'0:00.000',259.494
'0:00.004',256.251
'0:00.008',270.794
'0:00.012',287.784
'0:00.016',289.937
'0:00.020',321.762
'0:00.023',319.077
'0:00.027',318.519
'0:00.031',304.773
'0:00.035',306.395
'0:00.039',304.241
'0:00.043',331.999
'0:00.047',361.378
'0:00.051',395.357
'0:00.055',399.93
'0:00.059',355.449
'0:00.063',337.928
'0:00.066',346.569
'0:00.070',372.97
'0:00.074',391.581
'0:00.078',415.032
'0:00.082',447.92
'0:00.086',426.624
'0:00.090',407.773
'0:00.094',409.368
'0:00.098',412.08
'0:00.102',427.182
'0:00.105',454.408
'0:00.109',498.357
'0:00.113',516.41
'0:00.117',461.134
'0:00.121',387.806
'0:00.125',350.61
'0:00.129',336.864
'0:00.133',361.936
'0:00.137',385.121
'0:00.141',396.713
'0:00.145',367.041
'0:00.148',295.866
'0:00.152',241.149
'0:00.156',224.984
'0:00.160',228.759
'0:00.164',230.354
'0:00.168',258.404
'0:00.172',269.465
'0:00.176',240.086
'0:00.180',200.443
'0:00.184',171.33
'0:00.188',162.982
'0:00.191',168.911
'0:00.195',185.076
'0:00.199',179.679
'0:00.203',202.065
'0:00.207',210.946
'0:00.211',247.344
'0:00.215',261.648
'0:00.219',180.769
'0:00.223',130.89
'0:00.227',106.616
'0:00.230',100.687
'0:00.234',108.77
'0:00.238',124.43
'0:00.242',142.217
'0:00.246',139.239
'0:00.250',120.92
'0:00.254',126.849
'0:00.258',137.085
'0:00.262',153.543
'0:00.266',154.341
'0:00.270',139.771
'0:00.273',144.636
'0:00.277',166.199
'0:00.281',180.503
'0:00.285',169.708
'0:00.289',82.368
'0:00.293',41.663
'0:00.297',69.952
'0:00.301',120.362
'0:00.305',126.583
'0:00.309',83.99
'0:00.313',66.176
'0:00.316',42.726
'0:00.320',38.685
'0:00.324',42.194
'0:00.328',94.492
'0:00.332',109.062
'0:00.336',59.981
'0:00.340',30.336
'0:00.344',30.868
'0:00.348',27.624
'0:00.352',24.939
'0:00.355',57.03
'0:00.359',59.45
'0:00.363',62.135
'0:00.367',61.603
'0:00.371',58.918
'0:00.375',41.929
'0:00.379',28.449
'0:00.383',14.969
'0:00.387',-2.021
'0:00.391',-20.898
'0:00.395',-22.52
'0:00.398',-6.328
'0:00.402',26.295
'0:00.406',73.196
'0:00.410',88.563
'0:00.414',29.512
'0:00.418',-12.257
'0:00.422',-46.236
'0:00.426',-55.143
'0:00.430',-60.513
'0:00.434',-24.673
'0:00.438',13.347
'0:00.441',30.602
'0:00.445',27.093
'0:00.449',9.04
'0:00.453',-4.706
'0:00.457',-1.755
'0:00.461',-2.845
'0:00.465',24.673
'0:00.469',38.153
'0:00.473',26.295
'0:00.477',32.224
'0:00.480',16.032
'0:00.484',-4.998
'0:00.488',-39.509
'0:00.492',-68.064
'0:00.496',-79.949
'0:00.500',-66.469
'0:00.504',-72.398
'0:00.508',-73.196
'0:00.512',-52.697
'0:00.516',-64.581
'0:00.520',-49.745
'0:00.523',-70.51
'0:00.527',-86.941
'0:00.531',-99.065
'0:00.535',-96.38
'0:00.539',-83.432
'0:00.543',-57.03
'0:00.547',50.809
'0:00.551',208.792
'0:00.555',292.383
'0:00.559',380.255
'0:00.563',338.486
'0:00.566',261.382
'0:00.570',178.057
'0:00.574',185.342
'0:00.578',163.513
'0:00.582',137.351
'0:00.586',114.991
'0:00.590',68.064
'0:00.594',-34.112
'0:00.598',-102.575
'0:00.602',-119.032
'0:00.605',-102.575
'0:00.609',-86.941
'0:00.613',-102.309
'0:00.617',-100.687
'0:00.621',-85.319
'0:00.625',-71.574
'0:00.629',-71.84
'0:00.633',-69.154
'0:00.637',-67.001
'0:00.641',-68.064
'0:00.645',-55.408
'0:00.648',-56.206
'0:00.652',-53.255
'0:00.656',-50.277
'0:00.660',-51.101
'0:00.664',-54.318
'0:00.668',-55.408
'0:00.672',-22.52
'0:00.676',-5.264
'0:00.680',-19.542
'0:00.684',-18.744
'0:00.688',-4.998
'0:00.691',8.216
'0:00.695',-6.328
'0:00.699',-17.388
'0:00.703',-47.326
'0:00.707',-50.809
'0:00.711',-56.472
'0:00.715',-26.029
'0:00.719',9.04
'0:00.723',13.879
'0:00.727',15.235
'0:00.730',27.359
'0:00.734',23.317
'0:00.738',40.573
'0:00.742',60.247
'0:00.746',62.135
'0:00.750',76.147
'0:00.754',72.93
'0:00.758',88.563
'0:00.762',106.882
'0:00.766',124.43
'0:00.770',139.239
'0:00.773',137.617
'0:00.777',138.175
'0:00.781',139.771
'0:00.785',140.329
'0:00.789',138.707
'0:00.793',137.351
'0:00.797',137.351
'0:00.801',123.34
'0:00.805',108.77
'0:00.809',91.807
'0:00.813',73.727
'0:00.816',57.03
'0:00.820',57.828
'0:00.824',58.094
'0:00.828',73.196
'0:00.832',40.838
'0:00.836',-19.01
'0:00.840',-63.757
'0:00.844',-68.064
'0:00.848',-44.88
'0:00.852',-15.766
'0:00.855',-23.849
'0:00.859',-14.437
'0:00.863',-31.666
'0:00.867',-56.738
'0:00.871',-77.237
'0:00.875',-72.398
'0:00.879',-81.278
'0:00.883',-80.746
'0:00.887',-87.765
'0:00.891',-77.237
'0:00.895',-58.626
'0:00.898',-51.633
'0:00.902',-63.757
'0:00.906',-83.166
'0:00.910',-89.653
'0:00.914',-106.35
'0:00.918',-131.688
'0:00.922',-127.115
'0:00.926',-69.686
'0:00.930',-32.224
'0:00.934',0.931
'0:00.938',13.081
'0:00.941',52.165
'0:00.945',30.071
'0:00.949',-9.837
'0:00.953',20.632
'0:00.957',56.472
'0:00.961',-0.133
'0:00.965',-43.816
'0:00.969',-50.277
'0:00.973',-29.512
'0:00.977',-0.133
'0:00.980',9.837
'0:00.984',4.706
'0:00.988',-12.815
'0:00.992',-9.04
'0:00.996',14.41
'0:01.000',82.9
'0:01.004',155.963
'0:01.008',129.8
'0:01.012',-11.193
'0:01.016',-123.605
'0:01.020',-147.88
'0:01.023',-126.583
'0:01.027',-80.48
'0:01.031',-39.509
'0:01.035',-29.778
'0:01.039',-30.602
'0:01.043',-24.407
'0:01.047',-30.071
'0:01.051',-23.849
'0:01.055',0.665
'0:01.059',0.665
'0:01.063',-6.594
'0:01.066',-11.193
'0:01.070',-23.051
'0:01.074',-16.032
'0:01.078',-15.766
'0:01.082',-22.52
'0:01.086',-11.193
'0:01.090',-23.849
'0:01.094',-16.298
'0:01.098',-15.501
'0:01.102',-21.695
'0:01.105',-26.561
'0:01.109',-8.481
'0:01.113',-2.552
'0:01.117',-0.133
'0:01.121',11.725
'0:01.125',6.594
'0:01.129',7.684
'0:01.133',28.715
'0:01.137',30.602
'0:01.141',28.183
'0:01.145',24.673
'0:01.148',9.306
'0:01.152',12.815
'0:01.156',-1.489
'0:01.160',11.725
'0:01.164',23.051
'0:01.168',38.685
'0:01.172',74.259
'0:01.176',46.502
'0:01.180',1.223
'0:01.184',-48.655
'0:01.188',-69.686
'0:01.191',-26.827
'0:01.195',19.808
'0:01.199',41.104
'0:01.203',47.858
'0:01.207',-29.246
'0:01.211',-95.024
'0:01.215',-117.411
'0:01.219',-91.807
'0:01.223',-44.348
'0:01.227',85.878
'0:01.230',228.493
'0:01.234',338.194
'0:01.238',420.961
'0:01.242',351.673
'0:01.246',282.12
'0:01.250',229.291
'0:01.254',228.201
'0:01.258',219.321
'0:01.262',214.189
'0:01.266',167.555
'0:01.270',137.085
'0:01.273',150.034
'0:01.277',103.931
'0:01.281',-9.837
'0:01.285',-127.647
'0:01.289',-128.471
'0:01.293',-175.106
'0:01.297',-178.349
'0:01.301',-147.614
'0:01.305',-88.829
'0:01.309',-68.888
'0:01.313',-58.626
'0:01.316',-44.88
'0:01.320',-50.543
'0:01.324',-41.104
'0:01.328',-50.011
'0:01.332',-69.42
'0:01.336',-58.36
'0:01.340',-54.052
'0:01.344',-30.336
'0:01.348',-19.276
'0:01.352',-33.553
'0:01.355',-53.255
'0:01.359',-68.064
'0:01.363',-48.921
'0:01.367',-38.685
'0:01.371',-49.214
'0:01.375',-50.277
'0:01.379',-51.367
'0:01.383',-35.734
'0:01.387',-9.04
'0:01.391',-16.591
'0:01.395',-30.602
'0:01.398',-32.756
'0:01.402',-21.164
'0:01.406',3.642
'0:01.410',-1.223
'0:01.414',3.642
'0:01.418',47.033
'0:01.422',70.51
'0:01.426',81.278
'0:01.430',66.735
'0:01.434',57.562
'0:01.438',65.113
'0:01.441',67.798
'0:01.445',93.402
'0:01.449',97.177
'0:01.453',121.984
'0:01.457',129.269
'0:01.461',131.156
'0:01.465',141.127
'0:01.469',161.094
'0:01.473',154.075
'0:01.477',146.524
'0:01.480',163.248
'0:01.484',185.874
'0:01.488',174.574
'0:01.492',110.126
'0:01.496',43.258
'0:01.500',8.216
'0:01.504',-9.04
'0:01.508',-24.141
'0:01.512',-22.786
'0:01.516',-7.95
'0:01.520',-10.103
'0:01.523',-25.205
'0:01.527',-53.255
'0:01.531',-67.798
'0:01.535',-71.574
'0:01.539',-91.541
'0:01.543',-105.818
'0:01.547',-116.879
'0:01.551',-131.422
'0:01.555',-119.83
'0:01.559',-124.696
'0:01.563',-153.809
'0:01.566',-162.689
'0:01.570',-176.993
'0:01.574',-183.188
'0:01.578',-189.117
'0:01.582',-202.331
'0:01.586',-210.414
'0:01.590',-223.628
'0:01.594',-198.556
'0:01.598',-190.739
'0:01.602',-172.686
'0:01.605',-147.322
'0:01.609',-157.85
'0:01.613',-192.893
'0:01.617',-215.545
'0:01.621',-218.231
'0:01.625',-214.189
'0:01.629',-208.792
'0:01.633',-178.057
'0:01.637',-183.454
'0:01.641',-168.911
'0:01.645',-195.605
'0:01.648',-236.018
'0:01.652',-206.107
'0:01.656',-185.608
'0:01.660',-189.383
'0:01.664',-195.312
'0:01.668',-200.178
'0:01.672',-202.863
'0:01.676',-246.015
'0:01.680',-250.588
'0:01.684',-244.127
'0:01.688',-250.853
'0:01.691',-219.852
'0:01.695',-213.657
'0:01.699',-202.331
'0:01.703',-210.68
'0:01.707',-215.811
'0:01.711',-216.343
'0:01.715',-211.504
'0:01.719',-187.229
'0:01.723',-150.299
'0:01.727',-107.706
'0:01.730',-119.298
'0:01.734',-201.799
'0:01.738',-254.097
'0:01.742',-272.974
'0:01.746',-257.048
'0:01.750',-208.792
'0:01.754',-207.463
'0:01.758',-235.486
'0:01.762',-249.232
'0:01.766',-221.474
'0:01.770',-211.504
'0:01.773',-240.617
'0:01.777',-262.977
'0:01.781',-260.292
'0:01.785',-253.007
'0:01.789',-245.456
'0:01.793',-226.606
'0:01.797',-215.811
'0:01.801',-226.313
'0:01.805',-247.344
'0:01.809',-240.883
'0:01.813',-227.403
'0:01.816',-188.32
'0:01.820',-165.401
'0:01.824',-165.667
'0:01.828',-171.33
'0:01.832',-159.206
'0:01.836',-156.228
'0:01.840',-149.768
'0:01.844',-179.147
'0:01.848',-198.556
'0:01.852',-219.587
'0:01.855',-235.486
'0:01.859',-231.179
'0:01.863',-244.393
'0:01.867',-261.382
'0:01.871',-265.158
'0:01.875',-236.018
'0:01.879',-218.789
'0:01.883',-244.659
'0:01.887',-271.352
'0:01.891',-274.862
'0:01.895',-267.311
'0:01.898',-254.097
'0:01.902',-247.078
'0:01.906',-254.363
'0:01.910',-223.894
'0:01.914',-125.493
'0:01.918',38.153
'0:01.922',108.77
'0:01.926',147.056
'0:01.930',173.484
'0:01.934',98.268
'0:01.938',20.632
'0:01.941',3.908
'0:01.945',-17.388
'0:01.949',-72.398
'0:01.953',-123.605
'0:01.957',-182.922
'0:01.961',-219.852
'0:01.965',-245.19
'0:01.969',-237.374
'0:01.973',-208.526
'0:01.977',-186.964
'0:01.980',-204.485
'0:01.984',-209.616
'0:01.988',-186.166
'0:01.992',-222.83
'0:01.996',-262.18
'0:02.000',-248.434
'0:02.004',-259.76
'0:02.008',-268.641
'0:02.012',-253.565
'0:02.016',-214.721
'0:02.020',-219.055
'0:02.023',-257.048
'0:02.027',-277.281
'0:02.031',-264.865
'0:02.035',-248.434
'0:02.039',-238.73
'0:02.043',-226.871
'0:02.047',-212.567
'0:02.051',-213.657
'0:02.055',-212.036
'0:02.059',-204.751
'0:02.063',-195.87
'0:02.066',-196.934
'0:02.070',-195.046
'0:02.074',-192.627
'0:02.078',-172.128
'0:02.082',-166.199
'0:02.086',-165.667
'0:02.090',-160.004
'0:02.094',-156.76
'0:02.098',-138.973
'0:02.102',-136.022
'0:02.105',-134.666
'0:02.109',-110.657
'0:02.113',-106.616
'0:02.117',-120.92
'0:02.121',-87.473
'0:02.125',-73.196
'0:02.129',-64.023
'0:02.133',-71.042
'0:02.137',-68.33
'0:02.141',-55.408
'0:02.145',-44.082
'0:02.148',-33.288
'0:02.152',-36.797
'0:02.156',-33.288
'0:02.160',-38.419
'0:02.164',-44.614
'0:02.168',-33.553
'0:02.172',-36
'0:02.176',-47.858
'0:02.180',-68.33
'0:02.184',-60.513
'0:02.188',-82.634
'0:02.191',-98.799
'0:02.195',-124.696
'0:02.199',-162.157
'0:02.203',-172.686
'0:02.207',-180.503
'0:02.211',-180.769
'0:02.215',-173.484
'0:02.219',-193.983
'0:02.223',-249.79
'0:02.227',-271.087
'0:02.230',-258.936
'0:02.234',-241.415
'0:02.238',-199.912
'0:02.242',-205.017
'0:02.246',-204.751
'0:02.250',-220.118
'0:02.254',-219.587
'0:02.258',-230.913
'0:02.262',-222.564
'0:02.266',-222.272
'0:02.270',-218.789
'0:02.273',-232.269
'0:02.277',-243.568
'0:02.281',-253.831
'0:02.285',-239.261
'0:02.289',-250.853
'0:02.293',-245.749
'0:02.297',-241.681
'0:02.301',-223.096
'0:02.305',-224.984
'0:02.309',-217.167
'0:02.313',-210.148
'0:02.316',-207.463
'0:02.320',-222.272
'0:02.324',-239.261
'0:02.328',-215.279
'0:02.332',-209.882
'0:02.336',-192.361
'0:02.340',-191.005
'0:02.344',-190.473
'0:02.348',-196.402
'0:02.352',-205.309
'0:02.355',-220.677
'0:02.359',-222.272
'0:02.363',-224.425
'0:02.367',-213.392
'0:02.371',-219.587
'0:02.375',-202.597
'0:02.379',-206.373
'0:02.383',-208.792
'0:02.387',-211.504
'0:02.391',-200.709
'0:02.395',-216.343
'0:02.398',-236.576
'0:02.402',-270.528
'0:02.406',-288.874
'0:02.410',-248.168
'0:02.414',-205.017
'0:02.418',-194.249
'0:02.422',-175.371
'0:02.426',-188.32
'0:02.430',-208.526
'0:02.434',-214.455
'0:02.438',-209.616
'0:02.441',-195.87
'0:02.445',-175.637
'0:02.449',-175.106
'0:02.453',-192.893
'0:02.457',-189.649
'0:02.461',-181.035
'0:02.465',-162.982
'0:02.469',-174.281
'0:02.473',-187.761
'0:02.477',-216.609
'0:02.480',-212.036
'0:02.484',-213.392
'0:02.488',-223.096
'0:02.492',-217.433
'0:02.496',-215.013
'0:02.500',-213.392
'0:02.504',-183.188
'0:02.508',-191.005
'0:02.512',-197.466
'0:02.516',-209.882
'0:02.520',-211.504
'0:02.523',-216.343
'0:02.527',-222.83
'0:02.531',-211.77
'0:02.535',-208.792
'0:02.539',-212.036
'0:02.543',-216.343
'0:02.547',-190.207
'0:02.551',-117.676
'0:02.555',-38.685
'0:02.559',37.595
'0:02.563',116.586
'0:02.566',132.778
'0:02.570',54.85
'0:02.574',-4.706
'0:02.578',-79.125
'0:02.582',-123.605
'0:02.586',-129.269
'0:02.590',-127.913
'0:02.594',-137.085
'0:02.598',-144.104
'0:02.602',-139.797
'0:02.605',-161.626
'0:02.609',-158.382
'0:02.613',-167.023
'0:02.617',-160.004
'0:02.621',-172.952
'0:02.625',-161.892
'0:02.629',-173.484
'0:02.633',-164.869
'0:02.637',-159.206
'0:02.641',-157.85
'0:02.645',-162.157
'0:02.648',-140.329
'0:02.652',-147.614
'0:02.656',-141.685
'0:02.660',-156.494
'0:02.664',-161.094
'0:02.668',-155.165
'0:02.672',-146.79
'0:02.676',-141.685
'0:02.680',-110.126
'0:02.684',-83.99
'0:02.688',-91.248
'0:02.691',-109.328
'0:02.695',-103.931
'0:02.699',-93.96
'0:02.703',-87.473
'0:02.707',-76.705
'0:02.711',-75.881
'0:02.715',-69.42
'0:02.719',-61.072
'0:02.723',-56.472
'0:02.727',-45.704
'0:02.730',-27.359
'0:02.734',-20.632
'0:02.738',-12.257
'0:02.742',-23.849
'0:02.746',-12.815
'0:02.750',-10.662
'0:02.754',11.459
'0:02.758',33.846
'0:02.762',53.521
'0:02.766',65.911
'0:02.770',55.674
'0:02.773',63.757
'0:02.777',82.9
'0:02.781',98.268
'0:02.785',110.657
'0:02.789',119.83
'0:02.793',114.433
'0:02.797',132.778
'0:02.801',113.635
'0:02.805',78.859
'0:02.809',74.259
'0:02.813',82.9
'0:02.816',82.102
'0:02.820',78.593
'0:02.824',46.236
'0:02.828',44.082
'0:02.832',21.164
'0:02.836',-12.257
'0:02.840',-17.654
'0:02.844',-21.43
'0:02.848',-23.583
'0:02.852',-42.194
'0:02.855',-26.295
'0:02.859',-50.543
'0:02.863',-70.51
'0:02.867',-86.41
'0:02.871',-72.93
'0:02.875',-59.716
'0:02.879',-68.888
'0:02.883',-55.94
'0:02.887',-69.952
'0:02.891',-69.952
'0:02.895',-72.664
'0:02.898',-69.154
'0:02.902',-59.184
'0:02.906',-56.206
'0:02.910',-68.064
'0:02.914',-68.064
'0:02.918',-82.9
'0:02.922',-61.603
'0:02.926',-44.348
'0:02.930',-37.621
'0:02.934',-33.288
'0:02.938',-31.958
'0:02.941',-14.437
'0:02.945',-14.703
'0:02.949',-20.632
'0:02.953',-13.879
'0:02.957',1.223
'0:02.961',14.703
'0:02.965',14.703
'0:02.969',12.523
'0:02.973',-9.306
'0:02.977',-11.193
'0:02.980',-17.92
'0:02.984',-20.632
'0:02.988',-21.164
'0:02.992',-8.481
'0:02.996',-10.369
'0:03.000',-17.92
'0:03.004',-6.062
'0:03.008',-21.961
'0:03.012',-7.152
'0:03.016',-8.481
'0:03.020',12.523
'0:03.023',6.886
'0:03.027',-5.796
'0:03.031',11.991
'0:03.035',9.306
'0:03.039',11.725
'0:03.043',20.632
'0:03.047',39.775
'0:03.051',43.55
'0:03.055',44.082
'0:03.059',30.336
'0:03.063',5.53
'0:03.066',-7.95
'0:03.070',11.725
'0:03.074',10.635
'0:03.078',12.815
'0:03.082',19.808
'0:03.086',22.52
'0:03.090',28.183
'0:03.094',29.246
'0:03.098',60.513
'0:03.102',95.024
'0:03.105',98.268
'0:03.109',78.859
'0:03.113',53.521
'0:03.117',64.847
'0:03.121',59.45
'0:03.125',60.806
'0:03.129',76.971
'0:03.133',70.51
'0:03.137',36.265
'0:03.141',-0.957
'0:03.145',12.257
'0:03.148',39.483
'0:03.152',65.379
'0:03.156',67.001
'0:03.160',64.847
'0:03.164',30.868
'0:03.168',26.561
'0:03.172',65.645
'0:03.176',94.226
'0:03.180',138.175
'0:03.184',155.138
'0:03.188',63.757
'0:03.191',-0.133
'0:03.195',-23.583
'0:03.199',4.44
'0:03.203',44.082
'0:03.207',146.258
'0:03.211',278.079
'0:03.215',355.449
'0:03.219',437.418
'0:03.223',417.743
'0:03.227',381.079
'0:03.230',354.651
'0:03.234',329.845
'0:03.238',276.191
'0:03.242',222.83
'0:03.246',171.064
'0:03.250',114.991
'0:03.254',75.349
'0:03.258',65.113
'0:03.262',54.052
'0:03.266',35.441
'0:03.270',49.479
'0:03.273',60.247
'0:03.277',79.656
'0:03.281',66.442
'0:03.285',50.277
'0:03.289',36.797
'0:03.293',2.021
'0:03.297',-13.081
'0:03.301',-1.489
'0:03.305',40.838
'0:03.309',77.503
'0:03.313',52.165
'0:03.316',11.991
'0:03.320',4.44
'0:03.324',21.164
'0:03.328',54.318
'0:03.332',49.745
'0:03.336',62.667
'0:03.340',69.686
'0:03.344',82.634
'0:03.348',84.522
'0:03.352',68.622
'0:03.355',113.369
'0:03.359',130.625
'0:03.363',141.393
'0:03.367',116.879
'0:03.371',75.881
'0:03.375',41.104
'0:03.379',36
'0:03.383',23.317
'0:03.387',45.704
'0:03.391',56.206
'0:03.395',73.461
'0:03.398',100.155
'0:03.402',101.219
'0:03.406',123.34
'0:03.410',152.187
'0:03.414',170.506
'0:03.418',181.3
'0:03.422',181.035
'0:03.426',201.799
'0:03.430',199.646
'0:03.434',204.751
'0:03.438',199.353
'0:03.441',226.871
'0:03.445',228.493
'0:03.449',229.557
'0:03.453',239.261
'0:03.457',217.965
'0:03.461',179.679
'0:03.465',164.311
'0:03.469',179.147
'0:03.473',171.862
'0:03.477',137.91
'0:03.480',117.411
'0:03.484',99.358
'0:03.488',96.38
'0:03.492',121.452
'0:03.496',88.563
'0:03.500',69.952
'0:03.504',36.797
'0:03.508',32.756
'0:03.512',40.041
'0:03.516',38.153
'0:03.520',19.542
'0:03.523',19.808
'0:03.527',1.223
'0:03.531',9.572
'0:03.535',6.328
'0:03.539',1.755
'0:03.543',-29.512
'0:03.547',-13.879
'0:03.551',-6.062
'0:03.555',5.264
'0:03.559',15.235
'0:03.563',1.223
'0:03.566',-27.624
'0:03.570',-48.123
'0:03.574',-39.775
'0:03.578',-36.531
'0:03.582',-36.797
'0:03.586',1.223
'0:03.590',0.399
'0:03.594',-4.44
'0:03.598',-17.122
'0:03.602',-5.264
'0:03.605',-1.489
'0:03.609',0.399
'0:03.613',-17.122
'0:03.617',-14.969
'0:03.621',-7.684
'0:03.625',-4.998
'0:03.629',-14.969
'0:03.633',-28.98
'0:03.637',-28.715
'0:03.641',-10.662
'0:03.645',-9.572
'0:03.648',-14.969
'0:03.652',-24.673
'0:03.656',-25.737
'0:03.660',-27.917
'0:03.664',-43.816
'0:03.668',-31.134
'0:03.672',-23.849
'0:03.676',-10.103
'0:03.680',17.388
'0:03.684',17.122
'0:03.688',-28.715
'0:03.691',-47.592
'0:03.695',-53.255
'0:03.699',-50.011
'0:03.703',-21.961
'0:03.707',-17.388
'0:03.711',-29.512
'0:03.715',-46.767
'0:03.719',-31.134
'0:03.723',-26.029
'0:03.727',-6.062
'0:03.730',-28.98
'0:03.734',-41.104
'0:03.738',-58.918
'0:03.742',-43.55
'0:03.746',-27.624
'0:03.750',-31.4
'0:03.754',-22.786
'0:03.758',-23.849
'0:03.762',-27.624
'0:03.766',-13.613
'0:03.770',-0.957
'0:03.773',-5.796
'0:03.777',10.369
'0:03.781',4.44
'0:03.785',-14.145
'0:03.789',-0.133
'0:03.793',-19.808
'0:03.797',-35.441
'0:03.801',-42.726
'0:03.805',-32.756
'0:03.809',-50.809
'0:03.813',-35.175
'0:03.816',-34.112
'0:03.820',-58.36
'0:03.824',-95.29
'0:03.828',-96.38
'0:03.832',-68.064
'0:03.836',-54.052
'0:03.840',-60.806
'0:03.844',-62.693
'0:03.848',-31.666
'0:03.852',56.738
'0:03.855',192.893
'0:03.859',264.865
'0:03.863',349.786
'0:03.867',342.793
'0:03.871',264.865
'0:03.875',195.578
'0:03.879',191.537
'0:03.883',165.135
'0:03.887',156.76
'0:03.891',103.931
'0:03.895',56.738
'0:03.898',-11.991
'0:03.902',-74.551
'0:03.906',-102.841
'0:03.910',-78.061
'0:03.914',-62.135
'0:03.918',-64.289
'0:03.922',-44.348
'0:03.926',-24.673
'0:03.930',-29.778
'0:03.934',-41.104
'0:03.938',-58.918
'0:03.941',-59.981
'0:03.945',-44.082
'0:03.949',-33.022
'0:03.953',-24.939
'0:03.957',-24.673
'0:03.961',-27.093
'0:03.965',-13.347
'0:03.969',-2.021
'0:03.973',-7.684
'0:03.977',-6.062
'0:03.980',4.998
'0:03.984',15.766
'0:03.988',-2.845
'0:03.992',11.193
'0:03.996',11.725
'0:04.000',-26.561
'0:04.004',-46.767
'0:04.008',-34.378
'0:04.012',-7.684
'0:04.016',23.583
'0:04.020',34.378
'0:04.023',33.022
'0:04.027',32.49
'0:04.031',28.449
'0:04.035',26.003
'0:04.039',33.553
'0:04.043',45.146
'0:04.047',76.971
'0:04.051',91.514
'0:04.055',92.073
'0:04.059',114.991
'0:04.063',123.605
'0:04.066',138.973
'0:04.070',140.595
'0:04.074',143.014
'0:04.078',147.614
'0:04.082',153.251
'0:04.086',152.719
'0:04.090',141.658
'0:04.094',145.434
'0:04.098',147.322
'0:04.102',134.666
'0:04.105',134.666
'0:04.109',141.393
'0:04.113',130.066
'0:04.117',100.953
'0:04.121',102.841
'0:04.125',69.154
'0:04.129',45.704
'0:04.133',51.367
'0:04.137',50.809
'0:04.141',19.276
'0:04.145',4.706
'0:04.148',-1.223
'0:04.152',-11.991
'0:04.156',-28.98
'0:04.160',-45.438
'0:04.164',-45.438
'0:04.168',-35.175
'0:04.172',-59.45
'0:04.176',-89.361
'0:04.180',-122.25
'0:04.184',-79.656
'0:04.188',-57.828
'0:04.191',-62.401
'0:04.195',-70.218
'0:04.199',-70.776
'0:04.203',-63.757
'0:04.207',-43.55
'0:04.211',-31.4
'0:04.215',-21.961
'0:04.219',-6.328
'0:04.223',-15.501
'0:04.227',-40.573
'0:04.230',-43.258
'0:04.234',-37.063
'0:04.238',-25.471
'0:04.242',-34.378
'0:04.246',-40.041
'0:04.250',-40.573
'0:04.254',-35.734
'0:04.258',-11.459
'0:04.262',-5.53
'0:04.266',-8.774
'0:04.270',-21.164
'0:04.273',-31.4
'0:04.277',-26.561
'0:04.281',-24.141
'0:04.285',-27.359
'0:04.289',-36.265
'0:04.293',-28.98
'0:04.297',-10.662
'0:04.301',-11.193
'0:04.305',-12.815
'0:04.309',-2.845
'0:04.313',-10.662
'0:04.316',-40.041
'0:04.320',-41.397
'0:04.324',-30.868
'0:04.328',-37.887
'0:04.332',-26.295
'0:04.336',-53.787
'0:04.340',-55.94
'0:04.344',-32.224
'0:04.348',-9.837
'0:04.352',3.377
'0:04.355',11.725
'0:04.359',9.837
'0:04.363',16.591
'0:04.367',-8.481
'0:04.371',-9.837
'0:04.375',-3.111
'0:04.379',-7.95
'0:04.383',-17.122
'0:04.387',-8.216
'0:04.391',6.062
'0:04.395',27.359
'0:04.398',38.153
'0:04.402',30.336
'0:04.406',41.104
'0:04.410',39.775
'0:04.414',28.98
'0:04.418',38.685
'0:04.422',44.348
'0:04.426',54.584
'0:04.430',55.94
'0:04.434',62.667
'0:04.438',24.407
'0:04.441',45.146
'0:04.445',67.798
'0:04.449',6.594
'0:04.453',-42.992
'0:04.457',-33.846
'0:04.461',-23.317
'0:04.465',-20.074
'0:04.469',-11.991
'0:04.473',-9.837
'0:04.477',14.969
'0:04.480',8.216
'0:04.484',-3.377
'0:04.488',-9.837
'0:04.492',22.52
'0:04.496',90.185
'0:04.500',222.006
'0:04.504',305.039
'0:04.508',416.919
'0:04.512',442.257
'0:04.516',360.314
'0:04.520',273.772
'0:04.523',252.209
'0:04.527',220.118
'0:04.531',208.526
'0:04.535',163.779
'0:04.539',99.358
'0:04.543',47.592
'0:04.547',11.991
'0:04.551',-19.542
'0:04.555',-2.021
'0:04.559',27.89
'0:04.563',26.003
'0:04.566',27.624
'0:04.570',30.868
'0:04.574',46.502
'0:04.578',43.258
'0:04.582',26.827
'0:04.586',13.879
'0:04.590',31.134
'0:04.594',43.816
'0:04.598',56.472
'0:04.602',42.726
'0:04.605',32.49
'0:04.609',33.288
'0:04.613',27.89
'0:04.617',38.951
'0:04.621',55.94
'0:04.625',46.502
'0:04.629',50.277
'0:04.633',46.236
'0:04.637',86.144
'0:04.641',84.522
'0:04.645',62.135
'0:04.648',69.686
'0:04.652',95.29
'0:04.656',99.358
'0:04.660',98.799
'0:04.664',94.492
'0:04.668',102.575
'0:04.672',111.482
'0:04.676',130.359
'0:04.680',159.472
'0:04.684',170.798
'0:04.688',166.73
'0:04.691',163.513
'0:04.695',149.768
'0:04.699',174.281
'0:04.703',197.466
'0:04.707',209.882
'0:04.711',212.036
'0:04.715',232.242
'0:04.719',237.905
'0:04.723',258.404
'0:04.727',255.719
'0:04.730',260.558
'0:04.734',265.955
'0:04.738',269.731
'0:04.742',271.884
'0:04.746',269.465
'0:04.750',260.558
'0:04.754',267.045
'0:04.758',268.641
'0:04.762',237.639
'0:04.766',205.575
'0:04.770',198.29
'0:04.773',186.698
'0:04.777',170.506
'0:04.781',154.872
'0:04.785',138.973
'0:04.789',102.043
'0:04.793',92.87
'0:04.797',105.553
'0:04.801',85.585
'0:04.805',86.941
'0:04.809',85.585
'0:04.813',78.327
'0:04.816',43.816
'0:04.820',38.685
'0:04.824',36.265
'0:04.828',49.479
'0:04.832',75.881
'0:04.836',106.084
'0:04.840',69.952
'0:04.844',24.115
'0:04.848',23.051
'0:04.852',44.082
'0:04.855',53.255
'0:04.859',34.378
'0:04.863',39.483
'0:04.867',55.143
'0:04.871',106.616
'0:04.875',114.699
'0:04.879',67.266
'0:04.883',44.348
'0:04.887',27.624
'0:04.891',27.624
'0:04.895',32.49
'0:04.898',45.97
'0:04.902',54.85
'0:04.906',89.627
'0:04.910',93.136
'0:04.914',68.622
'0:04.918',49.187
'0:04.922',38.685
'0:04.926',39.775
'0:04.930',44.88
'0:04.934',36.797
'0:04.938',62.667
'0:04.941',81.544
'0:04.945',85.054
'0:04.949',49.745
'0:04.953',44.082
'0:04.957',47.326
'0:04.961',59.45
'0:04.965',64.289
'0:04.969',82.102
'0:04.973',78.593
'0:04.977',49.479
'0:04.980',44.082
'0:04.984',47.033
'0:04.988',33.288
'0:04.992',16.591
'0:04.996',3.111
'0:05.000',24.939
'0:05.004',56.738
'0:05.008',61.869
'0:05.012',5.264
'0:05.016',10.369
'0:05.020',40.041
'0:05.023',33.553
'0:05.027',27.89
'0:05.031',25.205
'0:05.035',-2.552
'0:05.039',-7.152
'0:05.043',15.235
'0:05.047',38.951
'0:05.051',54.318
'0:05.055',78.034
'0:05.059',73.727
'0:05.063',49.187
'0:05.066',26.827
'0:05.070',-5.796
'0:05.074',-0.957
'0:05.078',-9.04
'0:05.082',-3.377
'0:05.086',-7.418
'0:05.090',-5.264
'0:05.094',-15.235
'0:05.098',-23.849
'0:05.102',-20.074
'0:05.105',-25.205
'0:05.109',-36.797
'0:05.113',-29.246
'0:05.117',-24.141
'0:05.121',-37.887
'0:05.125',-56.738
'0:05.129',-50.809
'0:05.133',-29.512
'0:05.137',-11.193
'0:05.141',-55.143
'0:05.145',-38.419
'0:05.148',59.45
'0:05.152',198.822
'0:05.156',280.233
'0:05.160',372.97
'0:05.164',382.967
'0:05.168',298.312
'0:05.172',188.585
'0:05.176',164.843
'0:05.180',142.483
'0:05.184',98.268
'0:05.188',54.584
'0:05.191',16.032
'0:05.195',-40.573
'0:05.199',-82.368
'0:05.203',-36.531
'0:05.207',-35.441
'0:05.211',-50.809
'0:05.215',-67.001
'0:05.219',-109.328
'0:05.223',-131.981
'0:05.227',-102.043
'0:05.230',-102.841
'0:05.234',-146.524
'0:05.238',-137.351
'0:05.242',-116.879
'0:05.246',-106.882
'0:05.250',-88.297
'0:05.254',-80.215
'0:05.258',-71.84
'0:05.262',-83.99
'0:05.266',-104.462
'0:05.270',-101.245
'0:05.273',-110.95
'0:05.277',-104.462
'0:05.281',-71.042
'0:05.285',-60.513
'0:05.289',-68.888
'0:05.293',-104.462
'0:05.297',-114.167
'0:05.301',-87.473
'0:05.305',-66.735
'0:05.309',-88.031
'0:05.313',-84.788
'0:05.316',-78.327
'0:05.320',-87.473
'0:05.324',-83.698
'0:05.328',-72.93
'0:05.332',-38.153
'0:05.336',-0.399
'0:05.340',-7.95
'0:05.344',13.879
'0:05.348',9.306
'0:05.352',-19.01
'0:05.355',-11.991
'0:05.359',7.95
'0:05.363',9.306
'0:05.367',7.152
'0:05.371',45.704
'0:05.375',67.266
'0:05.379',71.042
'0:05.383',58.626
'0:05.387',41.929
'0:05.391',17.122
'0:05.395',6.328
'0:05.398',22.254
'0:05.402',52.431
'0:05.406',36.531
'0:05.410',-11.725
'0:05.414',-48.389
'0:05.418',-83.99
'0:05.422',-109.062
'0:05.426',-112.838
'0:05.430',-97.177
'0:05.434',-98.799
'0:05.438',-83.432
'0:05.441',-77.237
'0:05.445',-128.471
'0:05.449',-187.229
'0:05.453',-187.761
'0:05.457',-210.68
'0:05.461',-224.718
'0:05.465',-212.567
'0:05.469',-206.904
'0:05.473',-188.32
'0:05.477',-191.537
'0:05.480',-221.208
'0:05.484',-257.341
'0:05.488',-252.741
'0:05.492',-236.842
'0:05.496',-225.25
'0:05.500',-222.272
'0:05.504',-210.148
'0:05.508',-174.015
'0:05.512',-202.863
'0:05.516',-218.231
'0:05.520',-232.269
'0:05.523',-242.239
'0:05.527',-255.985
'0:05.531',-234.422
'0:05.535',-233.332
'0:05.539',-200.975
'0:05.543',-165.401
'0:05.547',-146.79
'0:05.551',-198.024
'0:05.555',-222.006
'0:05.559',-225.781
'0:05.563',-231.976
'0:05.566',-185.608
'0:05.570',-186.166
'0:05.574',-233.864
'0:05.578',-279.169
'0:05.582',-289.671
'0:05.586',-285.098
'0:05.590',-256.782
'0:05.594',-237.108
'0:05.598',-229.823
'0:05.602',-237.905
'0:05.605',-233.864
'0:05.609',-239.261
'0:05.613',-235.486
'0:05.617',-227.935
'0:05.621',-236.576
'0:05.625',-233.332
'0:05.629',-223.096
'0:05.633',-219.321
'0:05.637',-225.781
'0:05.641',-233.332
'0:05.645',-247.344
'0:05.648',-223.362
'0:05.652',-205.017
'0:05.656',-194.514
'0:05.660',-214.721
'0:05.664',-273.24
'0:05.668',-281.323
'0:05.672',-283.476
'0:05.676',-246.546
'0:05.680',-251.119
'0:05.684',-257.341
'0:05.688',-246.015
'0:05.691',-233.066
'0:05.695',-229.557
'0:05.699',-218.496
'0:05.703',-209.35
'0:05.707',-244.127
'0:05.711',-258.936
'0:05.715',-256.782
'0:05.719',-236.31
'0:05.723',-230.089
'0:05.727',-229.291
'0:05.730',-238.995
'0:05.734',-266.487
'0:05.738',-279.701
'0:05.742',-278.079
'0:05.746',-279.967
'0:05.750',-271.884
'0:05.754',-233.598
'0:05.758',-170.24
'0:05.762',-138.973
'0:05.766',-182.391
'0:05.770',-259.229
'0:05.773',-329.579
'0:05.777',-324.182
'0:05.781',-245.456
'0:05.785',-107.174
'0:05.789',11.991
'0:05.793',99.889
'0:05.797',118.474
'0:05.801',28.715
'0:05.805',-71.84
'0:05.809',-89.361
'0:05.813',-141.393
'0:05.816',-158.648
'0:05.820',-183.188
'0:05.824',-219.055
'0:05.828',-249.79
'0:05.832',-251.385
'0:05.836',-223.894
'0:05.840',-204.751
'0:05.844',-207.197
'0:05.848',-200.443
'0:05.852',-167.821
'0:05.855',-173.484
'0:05.859',-201.799
'0:05.863',-219.852
'0:05.867',-215.013
'0:05.871',-215.545
'0:05.875',-220.118
'0:05.879',-217.167
'0:05.883',-205.841
'0:05.887',-185.608
'0:05.891',-182.656
'0:05.895',-168.086
'0:05.898',-182.391
'0:05.902',-188.851
'0:05.906',-185.076
'0:05.910',-165.933
'0:05.914',-151.655
'0:05.918',-134.4
'0:05.922',-141.685
'0:05.926',-151.389
'0:05.930',-161.094
'0:05.934',-163.248
'0:05.938',-165.667
'0:05.941',-129.535
'0:05.945',-108.77
'0:05.949',-113.369
'0:05.953',-124.696
'0:05.957',-127.647
'0:05.961',-98.533
'0:05.965',-82.102
'0:05.969',-51.899
'0:05.973',-57.828
'0:05.977',-43.258
'0:05.980',-48.921
'0:05.984',-35.175
'0:05.988',-21.164
'0:05.992',-9.04
'0:05.996',21.695
'0:06.000',45.438
'0:06.004',73.461
'0:06.008',90.185
'0:06.012',74.817
'0:06.016',59.981
'0:06.020',79.656
'0:06.023',100.687
'0:06.027',131.954
'0:06.031',137.617
'0:06.035',127.913
'0:06.039',54.318
'0:06.043',11.193
'0:06.047',-26.295
'0:06.051',-25.471
'0:06.055',-6.062
'0:06.059',-14.969
'0:06.063',-23.051
'0:06.066',-40.573
'0:06.070',-38.951
'0:06.074',-37.329
'0:06.078',-47.858
'0:06.082',-71.84
'0:06.086',-72.105
'0:06.090',-70.51
'0:06.094',-100.155
'0:06.098',-94.758
'0:06.102',-74.286
'0:06.105',-76.173
'0:06.109',-85.878
'0:06.113',-95.29
'0:06.117',-92.339
'0:06.121',-92.073
'0:06.125',-94.492
'0:06.129',-85.878
'0:06.133',-93.136
'0:06.137',-75.083
'0:06.141',-46.236
'0:06.145',-3.377
'0:06.148',7.95
'0:06.152',-24.141
'0:06.156',-34.644
'0:06.160',-42.726
'0:06.164',-68.888
'0:06.168',-73.196
'0:06.172',-72.105
'0:06.176',-36.531
'0:06.180',-30.071
'0:06.184',-38.419
'0:06.188',-54.584
'0:06.191',-51.899
'0:06.195',-35.441
'0:06.199',-32.224
'0:06.203',-25.205
'0:06.207',-23.317
'0:06.211',-2.845
'0:06.215',-1.755
'0:06.219',0.665
'0:06.223',6.062
'0:06.227',7.684
'0:06.230',29.246
'0:06.234',47.033
'0:06.238',33.022
'0:06.242',23.051
'0:06.246',55.408
'0:06.250',28.449
'0:06.254',2.287
'0:06.258',-10.369
'0:06.262',-10.103
'0:06.266',17.388
'0:06.270',9.04
'0:06.273',65.645
'0:06.277',114.991
'0:06.281',52.697
'0:06.285',8.774
'0:06.289',-13.347
'0:06.293',-12.815
'0:06.297',13.081
'0:06.301',13.613
'0:06.305',5.264
'0:06.309',20.366
'0:06.313',37.595
'0:06.316',75.881
'0:06.320',104.728
'0:06.324',113.635
'0:06.328',87.473
'0:06.332',47.326
'0:06.336',50.543
'0:06.340',68.888
'0:06.344',87.739
'0:06.348',82.9
'0:06.352',83.166
'0:06.355',72.105
'0:06.359',69.686
'0:06.363',67.798
'0:06.367',63.757
'0:06.371',68.064
'0:06.375',43.816
'0:06.379',23.849
'0:06.383',48.921
'0:06.387',72.93
'0:06.391',96.114
'0:06.395',78.593
'0:06.398',61.337
'0:06.402',81.278
'0:06.406',69.154
'0:06.410',47.858
'0:06.414',66.176
'0:06.418',138.441
'0:06.422',290.761
'0:06.426',388.338
'0:06.430',490.248
'0:06.434',536.909
'0:06.438',457.093
'0:06.441',388.072
'0:06.445',380.813
'0:06.449',357.071
'0:06.453',291.559
'0:06.457',250.588
'0:06.461',196.668
'0:06.465',153.543
'0:06.469',128.737
'0:06.473',111.747
'0:06.477',117.942
'0:06.480',127.381
'0:06.484',147.88
'0:06.488',141.951
'0:06.492',144.902
'0:06.496',136.554
'0:06.500',113.103
'0:06.504',115.523
'0:06.508',123.34
'0:06.512',126.025
'0:06.516',151.097
'0:06.520',159.472
'0:06.523',131.156
'0:06.527',141.127
'0:06.531',142.749
'0:06.535',149.768
'0:06.539',188.585
'0:06.543',206.638
'0:06.547',156.494
'0:06.551',133.31
'0:06.555',154.341
'0:06.559',168.086
'0:06.563',183.188
'0:06.566',200.178
'0:06.570',243.568
'0:06.574',250.322
'0:06.578',203.953
'0:06.582',172.952
'0:06.586',185.342
'0:06.590',206.107
'0:06.594',212.833
'0:06.598',218.496
'0:06.602',266.753
'0:06.605',307.458
'0:06.609',299.376
'0:06.613',266.221
'0:06.617',257.607
'0:06.621',297.488
'0:06.625',315.009
'0:06.629',309.904
'0:06.633',315.833
'0:06.637',354.651
'0:06.641',358.427
'0:06.645',391.05
'0:06.648',433.909
'0:06.652',410.193
'0:06.656',375.682
'0:06.660',364.622
'0:06.664',342.527
'0:06.668',363.824
'0:06.672',402.376
'0:06.676',402.11
'0:06.680',381.079
'0:06.684',331.467
'0:06.688',303.151
'0:06.691',289.14
'0:06.695',285.364
'0:06.699',279.967
'0:06.703',264.333
'0:06.707',253.831
'0:06.711',255.985
'0:06.715',282.12
'0:06.719',245.19
'0:06.723',202.065
'0:06.727',162.157
'0:06.730',145.168
'0:06.734',165.933
'0:06.738',158.382
'0:06.742',149.768
'0:06.746',176.727
'0:06.750',206.904
'0:06.754',195.87
'0:06.758',160.801
'0:06.762',168.618
'0:06.766',144.104
'0:06.770',141.658
'0:06.773',131.688
'0:06.777',158.116
'0:06.781',178.881
'0:06.785',172.952
'0:06.789',160.004
'0:06.793',167.289
'0:06.797',204.219
'0:06.801',251.678
'0:06.805',201.241
'0:06.809',151.097
'0:06.813',129.003
'0:06.816',140.595
'0:06.820',147.322
'0:06.824',176.727
'0:06.828',209.882
'0:06.832',209.058
'0:06.836',192.893
'0:06.840',183.188
'0:06.844',160.536
'0:06.848',144.636
'0:06.852',144.902
'0:06.855',144.104
'0:06.859',148.412
'0:06.863',171.862
'0:06.867',188.054
'0:06.871',192.095
'0:06.875',179.413
'0:06.879',167.289
'0:06.883',201.799
'0:06.887',229.557
'0:06.891',205.282
'0:06.895',153.543
'0:06.898',142.749
'0:06.902',121.452
'0:06.906',127.913
'0:06.910',136.022
'0:06.914',135.198
'0:06.918',142.483
'0:06.922',152.719
'0:06.926',142.217
'0:06.930',136.022
'0:06.934',136.554
'0:06.938',142.483
'0:06.941',150.565
'0:06.945',139.771
'0:06.949',135.729
'0:06.953',137.617
'0:06.957',142.483
'0:06.961',148.678
'0:06.965',137.617
'0:06.969',134.932
'0:06.973',169.177
'0:06.977',203.395
'0:06.980',209.058
'0:06.984',170.506
'0:06.988',140.329
'0:06.992',110.391
'0:06.996',123.871
'0:07.000',108.504
'0:07.004',116.879
'0:07.008',105.287
'0:07.012',95.582
'0:07.016',79.125
'0:07.020',77.503
'0:07.023',81.012
'0:07.027',84.788
'0:07.031',94.226
'0:07.035',81.278
'0:07.039',110.391
'0:07.043',140.595
'0:07.047',158.648
'0:07.051',111.482
'0:07.055',59.45
'0:07.059',54.052
'0:07.063',72.664
'0:07.066',207.463
'0:07.070',364.09
'0:07.074',478.39
'0:07.078',566.554
'0:07.082',516.676
'0:07.086',464.91
'0:07.090',394.559
'0:07.094',371.375
'0:07.098',307.458
'0:07.102',241.149
'0:07.105',190.473
'0:07.109',136.554
'0:07.113',97.177
'0:07.117',64.847
'0:07.121',75.083
'0:07.125',116.32
'0:07.129',97.177
'0:07.133',113.901
'0:07.137',116.32
'0:07.141',91.807
'0:07.145',68.888
'0:07.148',66.176
'0:07.152',80.48
'0:07.156',112.811
'0:07.160',73.461
'0:07.164',39.217
'0:07.168',22.52
'0:07.172',33.288
'0:07.176',29.512
'0:07.180',37.887
'0:07.184',67.001
'0:07.188',83.166
'0:07.191',82.102
'0:07.195',81.81
'0:07.199',56.738
'0:07.203',66.442
'0:07.207',80.48
'0:07.211',95.848
'0:07.215',82.368
'0:07.219',74.817
'0:07.223',97.736
'0:07.227',78.034
'0:07.230',80.48
'0:07.234',84.522
'0:07.238',136.288
'0:07.242',185.874
'0:07.246',154.341
'0:07.250',119.298
'0:07.254',125.759
'0:07.258',151.655
'0:07.262',115.523
'0:07.266',104.462
'0:07.270',151.097
'0:07.273',186.166
'0:07.277',195.87
'0:07.281',195.578
'0:07.285',201.241
'0:07.289',200.178
'0:07.293',204.219
'0:07.297',212.567
'0:07.301',224.16
'0:07.305',244.127
'0:07.309',246.015
'0:07.313',223.628
'0:07.316',232.801
'0:07.320',223.096
'0:07.324',223.096
'0:07.328',211.504
'0:07.332',178.323
'0:07.336',126.025
'0:07.340',82.102
'0:07.344',91.248
'0:07.348',76.147
'0:07.352',78.327
'0:07.355',78.327
'0:07.359',65.645
'0:07.363',57.562
'0:07.367',58.626
'0:07.371',31.134
'0:07.375',-28.715
'0:07.379',-41.929
'0:07.383',-41.397
'0:07.387',-28.98
'0:07.391',-6.062
'0:07.395',-28.183
'0:07.398',-38.153
'0:07.402',-39.217
'0:07.406',-30.868
'0:07.410',-55.408
'0:07.414',-42.46
'0:07.418',-21.961
'0:07.422',-26.029
'0:07.426',-47.326
'0:07.430',-67.532
'0:07.434',-70.776
'0:07.438',-69.686
'0:07.441',-60.806
'0:07.445',-50.809
'0:07.449',-52.697
'0:07.453',-37.063
'0:07.457',-35.734
'0:07.461',-44.082
'0:07.465',-50.809
'0:07.469',-52.165
'0:07.473',-36.797
'0:07.477',-50.809
'0:07.480',-43.55
'0:07.484',-36
'0:07.488',-37.887
'0:07.492',-35.441
'0:07.496',-32.49
'0:07.500',-11.991
'0:07.504',-37.887
'0:07.508',-52.697
'0:07.512',-79.125
'0:07.516',-77.237
'0:07.520',-77.237
'0:07.523',-73.993
'0:07.527',-71.574
'0:07.531',-78.061
'0:07.535',-73.993
'0:07.539',-75.615
'0:07.543',-75.349
'0:07.547',-73.727
'0:07.551',-62.135
'0:07.555',-56.472
'0:07.559',-73.461
'0:07.563',-74.286
'0:07.566',-74.551
'0:07.570',-63.491
'0:07.574',-55.94
'0:07.578',-56.206
'0:07.582',-58.094
'0:07.586',-74.551
'0:07.590',-62.401
'0:07.594',-70.218
'0:07.598',-55.674
'0:07.602',-59.716
'0:07.605',-75.615
'0:07.609',-61.337
'0:07.613',-37.329
'0:07.617',-40.307
'0:07.621',-43.816
'0:07.625',-27.917
'0:07.629',-29.778
'0:07.633',-35.175
'0:07.637',-36.797
'0:07.641',-27.917
'0:07.645',-30.868
'0:07.648',-45.97
'0:07.652',-63.225
'0:07.656',-49.745
'0:07.660',-30.602
'0:07.664',-51.367
'0:07.668',-76.971
'0:07.672',-73.993
'0:07.676',-63.757
'0:07.680',-50.011
'0:07.684',-40.041
'0:07.688',-46.502
'0:07.691',-69.686
'0:07.695',-88.829
'0:07.699',-95.024
'0:07.703',-91.807
'0:07.707',-68.33
'0:07.711',-71.574
'0:07.715',-53.787
'0:07.719',1.489
'0:07.723',138.707
'0:07.727',252.475
'0:07.730',322.294
'0:07.734',400.754
'0:07.738',303.975
'0:07.742',205.282
'0:07.746',169.177
'0:07.750',144.37
'0:07.754',135.729
'0:07.758',106.616
'0:07.762',44.348
'0:07.766',-4.998
'0:07.770',-45.704
'0:07.773',-57.296
'0:07.777',-42.726
'0:07.781',-27.624
'0:07.785',-26.561
'0:07.789',-29.246
'0:07.793',-21.43
'0:07.797',-39.775
'0:07.801',-43.55
'0:07.805',-28.715
'0:07.809',-31.4
'0:07.813',-36
'0:07.816',-36.797
'0:07.820',-27.624
'0:07.824',-31.666
'0:07.828',-1.223
'0:07.832',-19.01
'0:07.836',-17.388
'0:07.840',-10.369
'0:07.844',-2.021
'0:07.848',-3.377
'0:07.852',-1.489
'0:07.855',0.931
'0:07.859',5.796
'0:07.863',27.093
'0:07.867',72.398
'0:07.871',76.705
'0:07.875',52.962
'0:07.879',13.347
'0:07.883',30.336
'0:07.887',67.266
'0:07.891',85.585
'0:07.895',114.699
'0:07.898',95.582
'0:07.902',66.735
'0:07.906',55.408
'0:07.910',85.054
'0:07.914',140.063
'0:07.918',183.72
'0:07.922',222.538
'0:07.926',217.167
'0:07.930',157.318
'0:07.934',133.842
'0:07.938',137.91
'0:07.941',197.758
'0:07.945',252.741
'0:07.949',278.637
'0:07.953',280.525
'0:07.957',288.342
'0:07.961',280.791
'0:07.965',237.639
'0:07.969',170.24
'0:07.973',141.127
'0:07.977',143.014
'0:07.980',145.168
'0:07.984',149.768
'0:07.988',165.933
'0:07.992',187.495
'0:07.996',160.536
'0:08.000',117.942
'0:08.004',104.994
'0:08.008',68.888
'0:08.012',42.194
'0:08.016',48.123
'0:08.020',50.543
'0:08.023',51.633
'0:08.027',65.645
'0:08.031',11.725
'0:08.035',-25.205
'0:08.039',-40.573
'0:08.043',-31.666
'0:08.047',-6.886
'0:08.051',-9.306
'0:08.055',-7.95
'0:08.059',-20.074
'0:08.063',-44.88
'0:08.066',-38.951
'0:08.070',-43.55
'0:08.074',-25.737
'0:08.078',-36
'0:08.082',-43.55
'0:08.086',-38.685
'0:08.090',-13.347
'0:08.094',-11.725
'0:08.098',-18.478
'0:08.102',-9.04
'0:08.105',-7.152
'0:08.109',0.931
'0:08.113',-10.927
'0:08.117',-0.399
'0:08.121',-8.216
'0:08.125',-7.684
'0:08.129',-0.133
'0:08.133',19.808
'0:08.137',15.235
'0:08.141',9.306
'0:08.145',9.837
'0:08.148',15.501
'0:08.152',18.744
'0:08.156',0.133
'0:08.160',10.927
'0:08.164',9.306
'0:08.168',13.613
'0:08.172',33.288
'0:08.176',31.666
'0:08.180',12.523
'0:08.184',27.093
'0:08.188',44.082
'0:08.191',30.868
'0:08.195',32.756
'0:08.199',30.336
'0:08.203',27.359
'0:08.207',27.359
'0:08.211',30.336
'0:08.215',47.326
'0:08.219',60.806
'0:08.223',74.259
'0:08.227',44.348
'0:08.230',18.186
'0:08.234',34.112
'0:08.238',57.828
'0:08.242',68.888
'0:08.246',27.89
'0:08.250',7.418
'0:08.254',21.43
'0:08.258',23.849
'0:08.262',-13.613
'0:08.266',11.725
'0:08.270',36.797
'0:08.273',34.378
'0:08.277',25.471
'0:08.281',52.431
'0:08.285',72.93
'0:08.289',81.544
'0:08.293',52.697
'0:08.297',47.033
'0:08.301',54.318
'0:08.305',69.154
'0:08.309',92.604
'0:08.313',98.799
'0:08.316',112.279
'0:08.320',73.461
'0:08.324',41.663
'0:08.328',30.868
'0:08.332',17.654
'0:08.336',13.613
'0:08.340',23.317
'0:08.344',7.418
'0:08.348',13.879
'0:08.352',2.021
'0:08.355',29.512
'0:08.359',21.961
'0:08.363',7.418
'0:08.367',14.969
'0:08.371',33.553
'0:08.375',43.55
'0:08.379',53.255
'0:08.383',70.776
'0:08.387',155.431
'0:08.391',264.865
'0:08.395',339.284
'0:08.398',419.073
'0:08.402',427.182
'0:08.406',373.528
'0:08.410',326.335
'0:08.414',268.109
'0:08.418',227.403
'0:08.422',167.289
'0:08.426',145.434
'0:08.430',114.699
'0:08.434',104.728
'0:08.438',95.582
'0:08.441',98.533
'0:08.445',109.062
'0:08.449',81.81
'0:08.453',59.981
'0:08.457',34.909
'0:08.461',33.553
'0:08.465',40.573
'0:08.469',61.603
'0:08.473',73.727
'0:08.477',67.266
'0:08.480',51.633
'0:08.484',27.093
'0:08.488',30.868
'0:08.492',40.307
'0:08.496',32.756
'0:08.500',49.745
'0:08.504',72.93
'0:08.508',76.971
'0:08.512',120.096
'0:08.516',143.546
'0:08.520',113.635
'0:08.523',62.401
'0:08.527',36.531
'0:08.531',26.003
'0:08.535',42.992
'0:08.539',89.095
'0:08.543',118.208
'0:08.547',114.991
'0:08.551',81.012
'0:08.555',82.634
'0:08.559',73.727
'0:08.563',97.177
'0:08.566',140.861
'0:08.570',157.584
'0:08.574',178.881
'0:08.578',187.495
'0:08.582',193.424
'0:08.586',189.117
'0:08.590',160.27
'0:08.594',165.933
'0:08.598',170.506
'0:08.602',234.422
'0:08.605',291.559
'0:08.609',299.934
'0:08.613',252.209
'0:08.617',213.657
'0:08.621',191.537
'0:08.625',176.462
'0:08.629',212.833
'0:08.633',275.394
'0:08.637',317.721
'0:08.641',271.352
'0:08.645',217.699
'0:08.648',205.282
'0:08.652',179.679
'0:08.656',153.543
'0:08.660',139.771
'0:08.664',134.134
'0:08.668',122.542
'0:08.672',161.36
'0:08.676',196.668
'0:08.680',167.821
'0:08.684',90.983
'0:08.688',37.329
'0:08.691',-8.216
'0:08.695',-29.512
'0:08.699',-31.958
'0:08.703',16.857
'0:08.707',30.071
'0:08.711',8.774
'0:08.715',-6.594
'0:08.719',-27.917
'0:08.723',-17.122
'0:08.727',-5.796
'0:08.730',-8.481
'0:08.734',-36
'0:08.738',-40.838
'0:08.742',-18.744
'0:08.746',5.264
'0:08.750',20.632
'0:08.754',-17.122
'0:08.758',-50.543
'0:08.762',-47.326
'0:08.766',-45.146
'0:08.770',-46.767
'0:08.773',-34.378
'0:08.777',-4.174
'0:08.781',13.879
'0:08.785',33.553
'0:08.789',19.276
'0:08.793',-59.45
'0:08.797',-60.513
'0:08.801',-50.543
'0:08.805',-53.255
'0:08.809',-33.288
'0:08.813',-12.815
'0:08.816',-28.449
'0:08.820',-62.135
'0:08.824',-64.289
'0:08.828',-65.379
'0:08.832',-64.023
'0:08.836',-61.869
'0:08.840',-46.502
'0:08.844',-48.655
'0:08.848',-64.289
'0:08.852',-77.237
'0:08.855',-76.439
'0:08.859',-79.125
'0:08.863',-81.544
'0:08.867',-80.746
'0:08.871',-62.135
'0:08.875',-30.602
'0:08.879',-16.857
'0:08.883',-32.224
'0:08.887',-44.082
'0:08.891',-58.094
'0:08.895',-76.705
'0:08.898',-80.746
'0:08.902',-50.809
'0:08.906',-94.758
'0:08.910',-134.932
'0:08.914',-119.83
'0:08.918',-98.799
'0:08.922',-88.829
'0:08.926',-81.012
'0:08.930',-85.319
'0:08.934',-69.154
'0:08.938',-65.113
'0:08.941',-72.398
'0:08.945',-65.113
'0:08.949',-69.154
'0:08.953',-83.432
'0:08.957',-93.694
'0:08.961',-87.207
'0:08.965',-83.99
'0:08.969',-72.105
'0:08.973',-67.532
'0:08.977',-75.349
'0:08.980',-99.889
'0:08.984',-129.003
'0:08.988',-150.299
'0:08.992',-147.322
'0:08.996',-156.494
'0:09.000',-149.502
'0:09.004',-146.79
'0:09.008',-120.362
'0:09.012',-116.055
'0:09.016',-121.984
'0:09.020',-98.799
'0:09.023',-21.695
'0:09.027',108.77
'0:09.031',193.69
'0:09.035',276.457
'0:09.039',277.016
'0:09.043',185.076
'0:09.047',110.391
'0:09.051',90.185
'0:09.055',63.757
'0:09.059',44.614
'0:09.063',36
'0:09.066',-18.744
'0:09.070',-66.176
'0:09.074',-92.604
'0:09.078',-101.511
'0:09.082',-82.9
'0:09.086',-72.93
'0:09.090',-83.432
'0:09.094',-104.462
'0:09.098',-113.103
'0:09.102',-114.725
'0:09.105',-107.706
'0:09.109',-86.144
'0:09.113',-73.461
'0:09.117',-79.949
'0:09.121',-80.48
'0:09.125',-74.551
'0:09.129',-70.218
'0:09.133',-72.664
'0:09.137',-78.327
'0:09.141',-64.023
'0:09.145',-44.614
'0:09.148',-40.041
'0:09.152',-24.141
'0:09.156',-28.449
'0:09.160',-45.704
'0:09.164',-27.093
'0:09.168',-24.939
'0:09.172',-40.573
'0:09.176',-26.827
'0:09.180',-29.246
'0:09.184',-28.183
'0:09.188',-9.572
'0:09.191',-9.04
'0:09.195',-10.369
'0:09.199',-11.725
'0:09.203',4.174
'0:09.207',4.998
'0:09.211',37.595
'0:09.215',36.797
'0:09.219',52.431
'0:09.223',68.622
'0:09.227',69.154
'0:09.230',85.585
'0:09.234',100.687
'0:09.238',115.523
'0:09.242',131.688
'0:09.246',133.31
'0:09.250',150.299
'0:09.254',148.943
'0:09.258',147.88
'0:09.262',148.146
'0:09.266',164.577
'0:09.270',195.046
'0:09.273',194.249
'0:09.277',227.137
'0:09.281',212.567
'0:09.285',182.922
'0:09.289',136.288
'0:09.293',102.309
'0:09.297',82.368
'0:09.301',49.479
'0:09.305',51.633
'0:09.309',68.064
'0:09.313',35.175
'0:09.316',4.174
'0:09.320',4.174
'0:09.324',-13.347
'0:09.328',-14.437
'0:09.332',-14.437
'0:09.336',-13.081
'0:09.340',-12.549
'0:09.344',-13.347
'0:09.348',-14.145
'0:09.352',-14.145
'0:09.355',2.021
'0:09.359',2.287
'0:09.363',2.818
'0:09.367',2.818
'0:09.371',17.92
'0:09.375',17.122
'0:09.379',18.186
'0:09.383',4.174
'0:09.387',-10.927
'0:09.391',33.553
'0:09.395',75.881
'0:09.398',77.237
'0:09.402',39.217
'0:09.406',13.347
'0:09.410',-9.04
'0:09.414',-4.998
'0:09.418',-7.418
'0:09.422',2.552
'0:09.426',-3.908
'0:09.430',8.216
'0:09.434',11.991
'0:09.438',23.317
'0:09.441',47.858
'0:09.445',58.094
'0:09.449',57.562
'0:09.453',63.225
'0:09.457',87.739
'0:09.461',92.87
'0:09.465',89.095
'0:09.469',61.072
'0:09.473',36.531
'0:09.477',41.104
'0:09.480',87.207
'0:09.484',143.28
'0:09.488',151.921
'0:09.492',105.818
'0:09.496',68.064
'0:09.500',76.147
'0:09.504',74.551
'0:09.508',50.809
'0:09.512',41.929
'0:09.516',37.887
'0:09.520',42.992
'0:09.523',55.408
'0:09.527',78.859
'0:09.531',87.739
'0:09.535',102.575
'0:09.539',93.402
'0:09.543',104.728
'0:09.547',94.226
'0:09.551',118.474
'0:09.555',117.676
'0:09.559',110.126
'0:09.563',105.818
'0:09.566',109.86
'0:09.570',131.688
'0:09.574',146.79
'0:09.578',172.394
'0:09.582',184.81
'0:09.586',205.017
'0:09.590',211.238
'0:09.594',196.668
'0:09.598',160.536
'0:09.602',140.595
'0:09.605',124.696
'0:09.609',112.279
'0:09.613',113.635
'0:09.617',125.759
'0:09.621',121.718
'0:09.625',123.34
'0:09.629',127.913
'0:09.633',129.269
'0:09.637',125.759
'0:09.641',122.25
'0:09.645',138.175
'0:09.648',141.393
'0:09.652',143.839
'0:09.656',127.115
'0:09.660',139.505
'0:09.664',152.453
'0:09.668',138.707
'0:09.672',143.839
'0:09.676',174.574
'0:09.680',230.913
'0:09.684',381.877
'0:09.688',524.227
'0:09.691',598.911
'0:09.695',643.392
'0:09.699',582.187
'0:09.703',511.278
'0:09.707',485.675
'0:09.711',482.431
'0:09.715',472.461
'0:09.719',401.552
'0:09.723',277.547
'0:09.727',206.373
'0:09.730',161.626
'0:09.734',157.026
'0:09.738',179.679
'0:09.742',188.054
'0:09.746',187.761
'0:09.750',179.679
'0:09.754',189.941
'0:09.758',193.158
'0:09.762',185.874
'0:09.766',188.054
'0:09.770',180.769
'0:09.773',173.75
'0:09.777',175.637
'0:09.781',198.556
'0:09.785',231.71
'0:09.789',226.606
'0:09.793',207.728
'0:09.797',210.414
'0:09.801',213.923
'0:09.805',198.024
'0:09.809',194.514
'0:09.813',206.638
'0:09.816',237.905
'0:09.820',241.415
'0:09.824',260.558
'0:09.828',228.493
'0:09.832',225.781
'0:09.836',222.538
'0:09.840',238.198
'0:09.844',255.719
'0:09.848',257.873
'0:09.852',273.24
'0:09.855',301.529
'0:09.859',299.934
'0:09.863',287.784
'0:09.867',322.294
'0:09.871',334.711
'0:09.875',330.935
'0:09.879',316.631
'0:09.883',336.306
'0:09.887',382.143
'0:09.891',423.938
'0:09.895',438.482
'0:09.898',460.337
'0:09.902',465.442
'0:09.906',448.213
'0:09.910',410.99
'0:09.914',408.039
'0:09.918',424.204
'0:09.922',457.359
'0:09.926',457.917
'0:09.930',473.551
'0:09.934',471.929
'0:09.938',456.03
'0:09.941',426.092
'0:09.945',426.358
'0:09.949',406.949
'0:09.953',404.529
'0:09.957',404.529
'0:09.961',391.05
'0:09.965',345.744
'0:09.969',282.679
'0:09.973',247.344
'0:09.977',226.047
'0:09.980',239.527
'0:09.984',272.416
'0:09.988',291.293
'0:09.992',246.812
'0:09.996',200.709
'0:10.000',181.035
'0:10.004',189.941
'0:10.008',203.395
'0:10.012',239.261
'0:10.016',260.026
'0:10.020',245.19
'0:10.023',210.946
'0:10.027',176.727
'0:10.031',160.536
'0:10.035',160.801
'0:10.039',175.637
'0:10.043',174.574
'0:10.047',175.371
'0:10.051',161.094
'0:10.055',207.728
'0:10.059',234.954
'0:10.063',219.321
'0:10.066',194.249
'0:10.070',182.098
'0:10.074',207.463
'0:10.078',213.923
'0:10.082',184.278
'0:10.086',164.045
'0:10.090',152.719
'0:10.094',143.28
'0:10.098',162.982
'0:10.102',178.615
'0:10.105',191.271
'0:10.109',199.912
'0:10.113',224.718
'0:10.117',211.504
'0:10.121',179.944
'0:10.125',176.727
'0:10.129',167.555
'0:10.133',190.207
'0:10.137',192.361
'0:10.141',208.526
'0:10.145',191.005
'0:10.148',154.341
'0:10.152',131.688
'0:10.156',114.433
'0:10.160',139.505
'0:10.164',166.199
'0:10.168',164.843
'0:10.172',119.032
'0:10.176',106.084
'0:10.180',93.402
'0:10.184',128.179
'0:10.188',187.229
'0:10.191',208.792
'0:10.195',172.952
'0:10.199',104.197
'0:10.203',72.398
'0:10.207',89.627
'0:10.211',103.931
'0:10.215',117.676
'0:10.219',118.474
'0:10.223',152.187
'0:10.227',183.454
'0:10.230',182.391
'0:10.234',121.718
'0:10.238',94.226
'0:10.242',75.615
'0:10.246',83.99
'0:10.250',80.48
'0:10.254',85.878
'0:10.258',107.972
'0:10.262',91.248
'0:10.266',85.878
'0:10.270',51.367
'0:10.273',54.584
'0:10.277',42.194
'0:10.281',26.003
'0:10.285',21.961
'0:10.289',34.112
'0:10.293',20.074
'0:10.297',-5.53
'0:10.301',-3.642
'0:10.305',-9.837
'0:10.309',-30.868
'0:10.313',2.287
'0:10.316',37.887
'0:10.320',71.308
'0:10.324',85.319
'0:10.328',22.52
'0:10.332',-20.366
'0:10.336',56.206
'0:10.340',155.138
'0:10.344',276.191
'0:10.348',364.887
'0:10.352',335.774
'0:10.355',265.955
'0:10.359',191.005
'0:10.363',202.331
'0:10.367',195.312
'0:10.371',180.503
'0:10.375',136.022
'0:10.379',85.319
'0:10.383',16.298
'0:10.387',-73.727
'0:10.391',-109.062
'0:10.395',-94.758
'0:10.398',-68.33
'0:10.402',-85.054
'0:10.406',-73.727
'0:10.410',-76.705
'0:10.414',-63.225
'0:10.418',-67.001
'0:10.422',-66.469
'0:10.426',-57.562
'0:10.430',-47.033
'0:10.434',-33.288
'0:10.438',-64.581
'0:10.441',-107.706
'0:10.445',-101.245
'0:10.449',-98.533
'0:10.453',-56.206
'0:10.457',-5.796
'0:10.461',-12.549
'0:10.465',-62.959
'0:10.469',-104.728
'0:10.473',-115.523
'0:10.477',-73.461
'0:10.480',-36.797
'0:10.484',-20.898
'0:10.488',-55.143
'0:10.492',-91.248
'0:10.496',-129.003
'0:10.500',-114.725
'0:10.504',-91.248
'0:10.508',-32.756
'0:10.512',-16.857
'0:10.516',-29.512
'0:10.520',-57.296
'0:10.523',-53.255
'0:10.527',-35.175
'0:10.531',-6.886
'0:10.535',15.235
'0:10.539',39.483
'0:10.543',59.981
'0:10.547',45.704
'0:10.551',43.258
'0:10.555',80.746
'0:10.559',70.776
'0:10.563',45.438
'0:10.566',63.757
'0:10.570',73.196
'0:10.574',77.503
'0:10.578',56.472
'0:10.582',33.288
'0:10.586',-13.347
'0:10.590',-21.961
'0:10.594',-20.632
'0:10.598',-26.827
'0:10.602',-32.49
'0:10.605',-30.071
'0:10.609',-38.951
'0:10.613',-51.633
'0:10.617',-72.398
'0:10.621',-109.594
'0:10.625',-109.328
'0:10.629',-120.92
'0:10.633',-133.576
'0:10.637',-136.022
'0:10.641',-141.127
'0:10.645',-141.951
'0:10.648',-152.985
'0:10.652',-179.679
'0:10.656',-196.668
'0:10.660',-187.761
'0:10.664',-207.463
'0:10.668',-202.331
'0:10.672',-180.503
'0:10.676',-196.668
'0:10.680',-201.241
'0:10.684',-204.485
'0:10.688',-202.065
'0:10.691',-197.466
'0:10.695',-196.402
'0:10.699',-184.278
'0:10.703',-187.495
'0:10.707',-200.709
'0:10.711',-195.312
'0:10.715',-179.679
'0:10.719',-169.177
'0:10.723',-186.964
'0:10.727',-182.125
'0:10.730',-177.791
'0:10.734',-179.147
'0:10.738',-168.352
'0:10.742',-154.872
'0:10.746',-166.199
'0:10.750',-160.004
'0:10.754',-176.169
'0:10.758',-181.832
'0:10.762',-185.608
'0:10.766',-182.922
'0:10.770',-177.259
'0:10.773',-175.903
'0:10.777',-179.944
'0:10.781',-168.352
'0:10.785',-182.391
'0:10.789',-176.462
'0:10.793',-174.574
'0:10.797',-194.249
'0:10.801',-198.024
'0:10.805',-182.125
'0:10.809',-193.983
'0:10.813',-190.207
'0:10.816',-161.094
'0:10.820',-151.097
'0:10.824',-150.299
'0:10.828',-143.839
'0:10.832',-139.797
'0:10.836',-158.648
'0:10.840',-163.779
'0:10.844',-165.135
'0:10.848',-161.094
'0:10.852',-126.025
'0:10.855',-127.913
'0:10.859',-130.359
'0:10.863',-145.168
'0:10.867',-157.85
'0:10.871',-172.128
'0:10.875',-174.84
'0:10.879',-178.615
'0:10.883',-162.689
'0:10.887',-143.839
'0:10.891',-141.127
'0:10.895',-140.861
'0:10.898',-174.281
'0:10.902',-174.84
'0:10.906',-159.738
'0:10.910',-159.738
'0:10.914',-157.85
'0:10.918',-171.862
'0:10.922',-156.76
'0:10.926',-159.472
'0:10.930',-159.738
'0:10.934',-172.394
'0:10.938',-169.974
'0:10.941',-171.862
'0:10.945',-144.104
'0:10.949',-160.801
'0:10.953',-170.798
'0:10.957',-182.391
'0:10.961',-185.342
'0:10.965',-176.462
'0:10.969',-131.688
'0:10.973',-18.744
'0:10.977',95.024
'0:10.980',192.095
'0:10.984',241.947
'0:10.988',184.278
'0:10.992',80.48
'0:10.996',31.4
'0:11.000',-12.815
'0:11.004',-37.063
'0:11.008',-47.858
'0:11.012',-37.621
'0:11.016',-67.266
'0:11.020',-105.818
'0:11.023',-113.369
'0:11.027',-113.635
'0:11.031',-106.35
'0:11.035',-101.511
'0:11.039',-105.021
'0:11.043',-111.482
'0:11.047',-112.279
'0:11.051',-122.25
'0:11.055',-102.043
'0:11.059',-89.653
'0:11.063',-80.215
'0:11.066',-49.214
'0:11.070',-73.993
'0:11.074',-82.368
'0:11.078',-100.687
'0:11.082',-94.226
'0:11.086',-83.432
'0:11.090',-61.869
'0:11.094',-37.329
'0:11.098',-36.265
'0:11.102',-58.094
'0:11.105',-62.959
'0:11.109',-61.072
'0:11.113',-55.674
'0:11.117',-53.521
'0:11.121',-41.663
'0:11.125',-30.868
'0:11.129',-14.437
'0:11.133',-8.481
'0:11.137',-4.44
'0:11.141',8.216
'0:11.145',2.021
'0:11.148',2.287
'0:11.152',38.685
'0:11.156',41.104
'0:11.160',55.674
'0:11.164',52.165
'0:11.168',67.266
'0:11.172',69.952
'0:11.176',88.297
'0:11.180',102.841
'0:11.184',115.523
'0:11.188',146.258
'0:11.191',164.311
'0:11.195',167.821
'0:11.199',168.911
'0:11.203',165.933
'0:11.207',162.982
'0:11.211',163.513
'0:11.215',150.831
'0:11.219',168.086
'0:11.223',164.577
'0:11.227',146.258
'0:11.230',132.512
'0:11.234',135.198
'0:11.238',118.474
'0:11.242',115.523
'0:11.246',98.002
'0:11.250',84.256
'0:11.254',70.776
'0:11.258',54.318
'0:11.262',50.809
'0:11.266',48.389
'0:11.270',34.378
'0:11.273',22.786
'0:11.277',22.786
'0:11.281',33.846
'0:11.285',-0.665
'0:11.289',3.111
'0:11.293',21.961
'0:11.297',35.707
'0:11.301',1.223
'0:11.305',2.552
'0:11.309',-10.927
'0:11.313',-10.927
'0:11.316',-13.347
'0:11.320',0.133
'0:11.324',-14.703
'0:11.328',4.706
'0:11.332',20.366
'0:11.336',2.287
'0:11.340',-13.613
'0:11.344',3.377
'0:11.348',3.111
'0:11.352',18.186
'0:11.355',2.287
'0:11.359',19.542
'0:11.363',50.277
'0:11.367',33.288
'0:11.371',35.441
'0:11.375',52.165
'0:11.379',50.809
'0:11.383',18.744
'0:11.387',35.707
'0:11.391',34.644
'0:11.395',49.479
'0:11.398',64.555
'0:11.402',81.544
'0:11.406',67.798
'0:11.410',53.787
'0:11.414',36.797
'0:11.418',33.553
'0:11.422',47.326
'0:11.426',63.757
'0:11.430',67.001
'0:11.434',69.154
'0:11.438',67.532
'0:11.441',64.289
'0:11.445',33.022
'0:11.449',36.265
'0:11.453',51.899
'0:11.457',63.757
'0:11.461',31.4
'0:11.465',20.074
'0:11.469',6.594
'0:11.473',18.744
'0:11.477',59.45
'0:11.480',58.626
'0:11.484',36.265
'0:11.488',27.624
'0:11.492',22.254
'0:11.496',-4.174
'0:11.500',-21.43
'0:11.504',17.654
'0:11.508',37.887
'0:11.512',35.707
'0:11.516',30.868
'0:11.520',-1.223
'0:11.523',34.378
'0:11.527',50.543
'0:11.531',64.023
'0:11.535',62.959
'0:11.539',65.113
'0:11.543',113.635
'0:11.547',158.116
'0:11.551',110.657
'0:11.555',39.217
'0:11.559',27.093
'0:11.563',2.552
'0:11.566',-6.886
'0:11.570',-6.062
'0:11.574',3.377
'0:11.578',8.481
'0:11.582',18.744
'0:11.586',-5.53
'0:11.590',-4.44
'0:11.594',-12.549
'0:11.598',-8.216
'0:11.602',-13.347
'0:11.605',-36.265
'0:11.609',-20.366
'0:11.613',-14.703
'0:11.617',-10.369
'0:11.621',-28.183
'0:11.625',-17.654
'0:11.629',72.105
'0:11.633',258.67
'0:11.637',372.172
'0:11.641',447.654
'0:11.645',488.36
'0:11.648',439.572
'0:11.652',354.651
'0:11.656',319.077
'0:11.660',286.72
'0:11.664',226.313
'0:11.668',165.667
'0:11.672',84.788
'0:11.676',31.958
'0:11.680',-4.706
'0:11.684',-20.366
'0:11.688',-2.021
'0:11.691',-1.489
'0:11.695',-48.921
'0:11.699',-79.656
'0:11.703',-81.278
'0:11.707',-69.42
'0:11.711',-39.509
'0:11.715',-36.531
'0:11.719',-31.134
'0:11.723',-61.337
'0:11.727',-64.847
'0:11.730',-85.585
'0:11.734',-85.319
'0:11.738',-65.911
'0:11.742',-48.389
'0:11.746',-19.276
'0:11.750',-37.063
'0:11.754',-49.745
'0:11.758',-77.237
'0:11.762',-93.429
'0:11.766',-98.799
'0:11.770',-102.841
'0:11.773',-100.155
'0:11.777',-79.39
'0:11.781',-78.593
'0:11.785',-66.176
'0:11.789',-53.787
'0:11.793',-36.797
'0:11.797',-16.298
'0:11.801',-29.512
'0:11.805',-30.868
'0:11.809',-19.542
'0:11.813',-6.062
'0:11.816',12.815
'0:11.820',17.654
'0:11.824',34.112
'0:11.828',14.703
'0:11.832',12.523
'0:11.836',29.246
'0:11.840',62.401
'0:11.844',78.327
'0:11.848',78.593
'0:11.852',110.126
'0:11.855',124.961
'0:11.859',110.126
'0:11.863',97.47
'0:11.867',97.47
'0:11.871',109.328
'0:11.875',106.084
'0:11.879',108.77
'0:11.883',97.736
'0:11.887',82.9
'0:11.891',78.593
'0:11.895',58.094
'0:11.898',44.082
'0:11.902',33.022
'0:11.906',18.478
'0:11.910',14.145
'0:11.914',-37.063
'0:11.918',-34.909
'0:11.922',-1.755
'0:11.926',-49.479
'0:11.930',-79.39
'0:11.934',-126.583
'0:11.938',-129.269
'0:11.941',-133.31
'0:11.945',-148.943
'0:11.949',-144.636
'0:11.953',-142.749
'0:11.957',-160.536
'0:11.961',-178.881
'0:11.965',-194.514
'0:11.969',-192.627
'0:11.973',-176.727
'0:11.977',-178.349
'0:11.980',-162.982
'0:11.984',-146.258
'0:11.988',-159.738
'0:11.992',-173.484
'0:11.996',-189.941
'0:12.000',-177.525
'0:12.004',-179.679
'0:12.008',-161.626
'0:12.012',-173.484
'0:12.016',-187.229
'0:12.020',-189.941
'0:12.023',-194.249
'0:12.027',-194.249
'0:12.031',-189.941
'0:12.035',-171.596
'0:12.039',-189.117
'0:12.043',-191.537
'0:12.047',-192.095
'0:12.051',-174.574
'0:12.055',-188.32
'0:12.059',-187.229
'0:12.063',-158.382
'0:12.066',-161.094
'0:12.070',-173.75
'0:12.074',-215.279
'0:12.078',-214.455
'0:12.082',-206.107
'0:12.086',-196.402
'0:12.090',-192.361
'0:12.094',-213.923
'0:12.098',-241.415
'0:12.102',-248.966
'0:12.105',-228.493
'0:12.109',-213.126
'0:12.113',-201.534
'0:12.117',-192.361
'0:12.121',-181.3
'0:12.125',-192.893
'0:12.129',-225.516
'0:12.133',-215.013
'0:12.137',-224.16
'0:12.141',-213.657
'0:12.145',-239.527
'0:12.148',-224.16
'0:12.152',-185.342
'0:12.156',-179.413
'0:12.160',-180.237
'0:12.164',-201.534
'0:12.168',-188.32
'0:12.172',-185.874
'0:12.176',-149.768
'0:12.180',-149.209
'0:12.184',-151.097
'0:12.188',-152.719
'0:12.191',-136.288
'0:12.195',-196.136
'0:12.199',-300.998
'0:12.203',-332.823
'0:12.207',-343.857
'0:12.211',-321.231
'0:12.215',-301.263
'0:12.219',-272.974
'0:12.223',-252.209
'0:12.227',-259.494
'0:12.230',-267.577
'0:12.234',-265.689
'0:12.238',-241.415
'0:12.242',-252.741
'0:12.246',-241.149
'0:12.250',-263.802
'0:12.254',-247.902
'0:12.258',-164.869
'0:12.262',-23.317
'0:12.266',129.535
'0:12.270',225.781
'0:12.273',300.2
'0:12.277',248.966
'0:12.281',142.217
'0:12.285',38.419
'0:12.289',8.774
'0:12.293',-12.815
'0:12.297',-19.542
'0:12.301',-55.674
'0:12.305',-118.501
'0:12.309',-176.727
'0:12.313',-186.964
'0:12.316',-185.874
'0:12.320',-160.27
'0:12.324',-154.607
'0:12.328',-159.206
'0:12.332',-167.023
'0:12.336',-167.821
'0:12.340',-145.434
'0:12.344',-124.961
'0:12.348',-142.749
'0:12.352',-177.791
'0:12.355',-193.983
'0:12.359',-176.993
'0:12.363',-161.36
'0:12.367',-130.625
'0:12.371',-130.359
'0:12.375',-143.014
'0:12.379',-155.963
'0:12.383',-157.85
'0:12.387',-146.79
'0:12.391',-132.778
'0:12.395',-128.471
'0:12.398',-138.707
'0:12.402',-138.441
'0:12.406',-144.104
'0:12.410',-132.512
'0:12.414',-114.433
'0:12.418',-108.504
'0:12.422',-105.553
'0:12.426',-62.693
'0:12.430',-53.521
'0:12.434',-66.469
'0:12.438',-88.031
'0:12.441',-100.421
'0:12.445',-93.136
'0:12.449',-87.473
'0:12.453',-69.952
'0:12.457',-42.992
'0:12.461',-21.43
'0:12.465',-27.093
'0:12.469',-19.808
'0:12.473',-4.706
'0:12.477',18.744
'0:12.480',55.94
'0:12.484',52.962
'0:12.488',62.959
'0:12.492',61.869
'0:12.496',51.633
'0:12.500',41.104
'0:12.504',38.419
'0:12.508',31.134
'0:12.512',28.715
'0:12.516',33.846
'0:12.520',39.217
'0:12.523',38.153
'0:12.527',32.224
'0:12.531',13.879
'0:12.535',-12.815
'0:12.539',-7.95
'0:12.543',-41.929
'0:12.547',-62.959
'0:12.551',-81.012
'0:12.555',-93.96
'0:12.559',-90.451
'0:12.563',-91.541
'0:12.566',-126.317
'0:12.570',-126.849
'0:12.574',-125.759
'0:12.578',-139.797
'0:12.582',-154.872
'0:12.586',-171.862
'0:12.590',-158.382
'0:12.594',-159.738
'0:12.598',-157.318
'0:12.602',-154.341
'0:12.605',-154.341
'0:12.609',-141.685
'0:12.613',-143.28
'0:12.617',-140.861
'0:12.621',-137.351
'0:12.625',-137.085
'0:12.629',-140.329
'0:12.633',-126.583
'0:12.637',-109.86
'0:12.641',-106.35
'0:12.645',-119.298
'0:12.648',-120.362
'0:12.652',-124.43
'0:12.656',-110.391
'0:12.660',-107.972
'0:12.664',-103.665
'0:12.668',-103.133
'0:12.672',-106.616
'0:12.676',-93.694
'0:12.680',-92.604
'0:12.684',-88.031
'0:12.688',-86.144
'0:12.691',-88.829
'0:12.695',-76.971
'0:12.699',-76.971
'0:12.703',-72.398
'0:12.707',-69.42
'0:12.711',-86.941
'0:12.715',-106.084
'0:12.719',-107.174
'0:12.723',-105.553
'0:12.727',-88.031
'0:12.730',-72.93
'0:12.734',-43.258
'0:12.738',-43.258
'0:12.742',-55.143
'0:12.746',-67.532
'0:12.750',-100.687
'0:12.754',-120.654
'0:12.758',-107.706
'0:12.762',-106.882
'0:12.766',-102.575
'0:12.770',-85.054
'0:12.773',-72.398
'0:12.777',-75.349
'0:12.781',-57.828
'0:12.785',-54.318
'0:12.789',-37.063
'0:12.793',-39.509
'0:12.797',-57.03
'0:12.801',-40.041
'0:12.805',-38.685
'0:12.809',-53.521
'0:12.813',-69.154
'0:12.816',-70.776
'0:12.820',-72.664
'0:12.824',-72.398
'0:12.828',-70.218
'0:12.832',-69.154
'0:12.836',-70.218
'0:12.840',-71.84
'0:12.844',-71.84
'0:12.848',-70.218
'0:12.852',-69.154
'0:12.855',-54.318
'0:12.859',-56.206
'0:12.863',-55.408
'0:12.867',-53.255
'0:12.871',-21.695
'0:12.875',-23.849
'0:12.879',-23.583
'0:12.883',86.675
'0:12.887',223.894
'0:12.891',302.354
'0:12.895',390.518
'0:12.898',353.561
'0:12.902',310.17
'0:12.906',285.098
'0:12.910',272.416
'0:12.914',210.148
'0:12.918',160.801
'0:12.922',88.829
'0:12.926',31.666
'0:12.930',-47.033
'0:12.934',-49.745
'0:12.938',-40.838
'0:12.941',-32.49
'0:12.945',-19.808
'0:12.949',-29.512
'0:12.953',-47.592
'0:12.957',-39.775
'0:12.961',-33.553
'0:12.965',-21.164
'0:12.969',1.489
'0:12.973',14.969
'0:12.977',7.684
'0:12.980',-14.437
'0:12.984',-62.959
'0:12.988',-58.094
'0:12.992',-67.001
'0:12.996',-61.603
'0:13.000',-34.378
'0:13.004',-32.224
'0:13.008',-40.307
'0:13.012',-32.224
'0:13.016',-29.778
'0:13.020',-4.706
'0:13.023',14.145
'0:13.027',8.481
'0:13.031',2.818
'0:13.035',4.44
'0:13.039',10.635
'0:13.043',28.715
'0:13.047',39.483
'0:13.051',34.909
'0:13.055',52.697
'0:13.059',73.461
'0:13.063',90.717
'0:13.066',118.767
'0:13.070',99.889
'0:13.074',72.398
'0:13.078',76.971
'0:13.082',89.919
'0:13.086',129.8
'0:13.090',127.647
'0:13.094',120.362
'0:13.098',127.913
'0:13.102',139.239
'0:13.105',144.636
'0:13.109',157.85
'0:13.113',181.832
'0:13.117',189.649
'0:13.121',188.32
'0:13.125',179.413
'0:13.129',190.473
'0:13.133',179.679
'0:13.137',188.054
'0:13.141',203.129
'0:13.145',225.516
'0:13.148',205.017
'0:13.152',165.667
'0:13.156',128.737
'0:13.160',48.389
'0:13.164',36.265
'0:13.168',9.572
'0:13.172',-32.224
'0:13.176',-34.644
'0:13.180',-48.655
'0:13.184',-45.438
'0:13.188',-55.94
'0:13.191',-50.277
'0:13.195',-37.063
'0:13.199',-33.288
'0:13.203',-43.258
'0:13.207',-68.33
'0:13.211',-65.113
'0:13.215',-70.51
'0:13.219',-66.735
'0:13.223',-59.184
'0:13.227',-52.697
'0:13.230',-50.277
'0:13.234',-39.217
'0:13.238',-18.744
'0:13.242',-41.663
'0:13.246',-64.581
'0:13.250',-78.859
'0:13.254',-72.105
'0:13.258',-38.685
'0:13.262',-75.083
'0:13.266',-93.136
'0:13.270',-106.882
'0:13.273',-104.197
'0:13.277',-89.653
'0:13.281',-77.503
'0:13.285',-62.693
'0:13.289',-58.918
'0:13.293',-70.218
'0:13.297',-70.51
'0:13.301',-90.983
'0:13.305',-78.061
'0:13.309',-76.705
'0:13.313',-87.473
'0:13.316',-85.319
'0:13.320',-58.36
'0:13.324',-48.123
'0:13.328',-45.97
'0:13.332',-69.154
'0:13.336',-80.746
'0:13.340',-87.473
'0:13.344',-111.482
'0:13.348',-110.657
'0:13.352',-103.133
'0:13.355',-98.799
'0:13.359',-103.133
'0:13.363',-93.96
'0:13.367',-79.125
'0:13.371',-72.93
'0:13.375',-82.102
'0:13.379',-99.065
'0:13.383',-121.718
'0:13.387',-125.759
'0:13.391',-107.174
'0:13.395',-86.41
'0:13.398',-54.052
'0:13.402',-41.929
'0:13.406',-74.551
'0:13.410',-100.953
'0:13.414',-98.268
'0:13.418',-102.841
'0:13.422',-92.604
'0:13.426',-92.339
'0:13.430',-101.245
'0:13.434',-96.912
'0:13.438',-85.585
'0:13.441',-77.237
'0:13.445',-92.604
'0:13.449',-114.991
'0:13.453',-125.493
'0:13.457',-131.688
'0:13.461',-141.685
'0:13.465',-157.318
'0:13.469',-132.246
'0:13.473',-112.013
'0:13.477',-147.614
'0:13.480',-168.086
'0:13.484',-184.544
'0:13.488',-165.401
'0:13.492',-163.779
'0:13.496',-179.944
'0:13.500',-135.198
'0:13.504',-60.513
'0:13.508',64.289
'0:13.512',178.323
'0:13.516',264.599
'0:13.520',271.352
'0:13.523',195.87
'0:13.527',84.522
'0:13.531',46.767
'0:13.535',21.961
'0:13.539',4.998
'0:13.543',-3.908
'0:13.547',-45.146
'0:13.551',-109.594
'0:13.555',-210.414
'0:13.559',-261.648
'0:13.563',-232.269
'0:13.566',-217.433
'0:13.570',-214.189
'0:13.574',-194.514
'0:13.578',-195.046
'0:13.582',-197.758
'0:13.586',-198.822
'0:13.590',-212.036
'0:13.594',-209.35
'0:13.598',-194.78
'0:13.602',-198.29
'0:13.605',-182.656
'0:13.609',-179.679
'0:13.613',-191.537
'0:13.617',-176.169
'0:13.621',-180.769
'0:13.625',-182.125
'0:13.629',-163.248
'0:13.633',-144.636
'0:13.637',-144.636
'0:13.641',-130.89
'0:13.645',-147.614
'0:13.648',-191.271
'0:13.652',-188.32
'0:13.656',-192.095
'0:13.660',-181.566
'0:13.664',-166.199
'0:13.668',-144.902
'0:13.672',-140.329
'0:13.676',-141.127
'0:13.680',-130.359
'0:13.684',-117.411
'0:13.688',-113.901
'0:13.691',-92.339
'0:13.695',-92.073
'0:13.699',-80.746
'0:13.703',-68.33
'0:13.707',-34.909
'0:13.711',-14.703
'0:13.715',-11.725
'0:13.719',-13.081
'0:13.723',-16.857
'0:13.727',-17.654
'0:13.730',-14.969
'0:13.734',3.111
'0:13.738',17.388
'0:13.742',14.969
'0:13.746',31.134
'0:13.750',33.288
'0:13.754',19.808
'0:13.758',3.908
'0:13.762',1.223
'0:13.766',-17.122
'0:13.770',-15.766
'0:13.773',-28.98
'0:13.777',-43.816
'0:13.781',-61.603
'0:13.785',-95.29
'0:13.789',-110.657
'0:13.793',-109.86
'0:13.797',-126.025
'0:13.801',-126.583
'0:13.805',-127.381
'0:13.809',-127.115
'0:13.813',-95.29
'0:13.816',-110.95
'0:13.820',-139.797
'0:13.824',-169.442
'0:13.828',-187.229
'0:13.832',-191.829
'0:13.836',-193.424
'0:13.840',-174.574
'0:13.844',-171.33
'0:13.848',-155.165
'0:13.852',-158.116
'0:13.855',-159.206
'0:13.859',-157.053
'0:13.863',-154.341
'0:13.867',-154.607
'0:13.871',-126.025
'0:13.875',-66.469
'0:13.879',-64.581
'0:13.883',-118.208
'0:13.887',-174.574
'0:13.891',-196.934
'0:13.895',-179.679
'0:13.898',-153.277
'0:13.902',-110.657
'0:13.906',-113.103
'0:13.910',-158.382
'0:13.914',-154.341
'0:13.918',-151.097
'0:13.922',-131.981
'0:13.926',-117.411
'0:13.930',-110.126
'0:13.934',-118.501
'0:13.938',-130.625
'0:13.941',-114.991
'0:13.945',-88.563
'0:13.949',-96.114
'0:13.953',-99.358
'0:13.957',-109.86
'0:13.961',-98.002
'0:13.965',-60.247
'0:13.969',-82.634
'0:13.973',-126.583
'0:13.977',-149.209
'0:13.980',-143.839
'0:13.984',-129.535
'0:13.988',-89.361
'0:13.992',-66.469
'0:13.996',-52.431
'0:14.000',-59.45
'0:14.004',-92.339
'0:14.008',-116.879
'0:14.012',-112.545
'0:14.016',-102.309
'0:14.020',-94.492
'0:14.023',-78.327
'0:14.027',-54.584
'0:14.031',-48.921
'0:14.035',-67.266
'0:14.039',-104.462
'0:14.043',-121.984
'0:14.047',-103.399
'0:14.051',-85.878
'0:14.055',-86.41
'0:14.059',-118.208
'0:14.063',-117.411
'0:14.066',-118.208
'0:14.070',-119.564
'0:14.074',-103.665
'0:14.078',-87.473
'0:14.082',-55.143
'0:14.086',-70.218
'0:14.090',-129.8
'0:14.094',-159.206
'0:14.098',-133.044
'0:14.102',-79.125
'0:14.105',29.246
'0:14.109',161.892
'0:14.113',234.422
'0:14.117',271.618
'0:14.121',238.73
'0:14.125',141.951
'0:14.129',63.757
'0:14.133',30.868
'0:14.137',24.939
'0:14.141',-10.103
'0:14.145',-6.594
'0:14.148',-33.846
'0:14.152',-49.214
'0:14.156',-54.584
'0:14.160',-74.551
'0:14.164',-87.765
'0:14.168',-67.001
'0:14.172',-67.532
'0:14.176',-86.675
'0:14.180',-103.665
'0:14.184',-117.145
'0:14.188',-130.89
'0:14.191',-147.322
'0:14.195',-134.932
'0:14.199',-121.984
'0:14.203',-104.197
'0:14.207',-84.256
'0:14.211',-82.368
'0:14.215',-99.624
'0:14.219',-101.777
'0:14.223',-102.841
'0:14.227',-101.245
'0:14.230',-99.065
'0:14.234',-99.065
'0:14.238',-100.953
'0:14.242',-102.043
'0:14.246',-100.953
'0:14.250',-99.065
'0:14.254',-83.432
'0:14.258',-54.318
'0:14.262',-55.143
'0:14.266',-67.001
'0:14.270',-78.859
'0:14.273',-65.113
'0:14.277',-86.41
'0:14.281',-86.941
'0:14.285',-83.166
'0:14.289',-48.921
'0:14.293',-36
'0:14.297',-22.786
'0:14.301',-6.062
'0:14.305',-2.021
'0:14.309',15.766
'0:14.313',28.715
'0:14.316',25.737
'0:14.320',58.094
'0:14.324',60.806
'0:14.328',79.125
'0:14.332',93.402
'0:14.336',90.451
'0:14.340',90.983
'0:14.344',93.694
'0:14.348',79.656
'0:14.352',47.326
'0:14.355',13.879
'0:14.359',11.991
'0:14.363',10.635
'0:14.367',11.459
'0:14.371',-2.021
'0:14.375',-16.857
'0:14.379',-34.112
'0:14.383',-37.063
'0:14.387',-53.521
'0:14.391',-66.735
'0:14.395',-80.215
'0:14.398',-112.838
'0:14.402',-115.789
'0:14.406',-133.842
'0:14.410',-132.246
'0:14.414',-145.168
'0:14.418',-160.004
'0:14.422',-162.423
'0:14.426',-150.299
'0:14.430',-165.667
'0:14.434',-176.462
'0:14.438',-204.751
'0:14.441',-176.727
'0:14.445',-168.352
'0:14.449',-183.72
'0:14.453',-190.473
'0:14.457',-185.608
'0:14.461',-191.537
'0:14.465',-215.013
'0:14.469',-213.923
'0:14.473',-207.197
'0:14.477',-187.495
'0:14.480',-191.537
'0:14.484',-211.77
'0:14.488',-210.68
'0:14.492',-206.373
'0:14.496',-189.117
'0:14.500',-191.829
'0:14.504',-193.983
'0:14.508',-192.627
'0:14.512',-189.383
'0:14.516',-188.32
'0:14.520',-190.473
'0:14.523',-192.627
'0:14.527',-206.904
'0:14.531',-219.321
'0:14.535',-218.789
'0:14.539',-206.638
'0:14.543',-209.616
'0:14.547',-206.904
'0:14.551',-186.698
'0:14.555',-186.432
'0:14.559',-204.485
'0:14.563',-236.576
'0:14.566',-235.22
'0:14.570',-235.22
'0:14.574',-205.309
'0:14.578',-191.271
'0:14.582',-188.851
'0:14.586',-215.545
'0:14.590',-244.659
'0:14.594',-264.333
'0:14.598',-285.63
'0:14.602',-270.528
'0:14.605',-266.753
'0:14.609',-262.18
'0:14.613',-262.712
'0:14.617',-235.752
'0:14.621',-238.464
'0:14.625',-249.232
'0:14.629',-243.037
'0:14.633',-228.759
'0:14.637',-235.22
'0:14.641',-237.108
'0:14.645',-231.71
'0:14.648',-226.606
'0:14.652',-212.302
'0:14.656',-233.332
'0:14.660',-280.233
'0:14.664',-306.129
'0:14.668',-304.507
'0:14.672',-310.436
'0:14.676',-299.668
'0:14.680',-312.856
'0:14.684',-320.406
'0:14.688',-317.721
'0:14.691',-308.814
'0:14.695',-299.934
'0:14.699',-296.956
'0:14.703',-303.151
'0:14.707',-298.578
'0:14.711',-320.965
'0:14.715',-328.489
'0:14.719',-281.589
'0:14.723',-182.656
'0:14.727',-38.685
'0:14.730',54.85
'0:14.734',121.186
'0:14.738',97.736
'0:14.742',26.827
'0:14.746',-38.153
'0:14.750',-65.645
'0:14.754',-106.084
'0:14.758',-131.981
'0:14.762',-136.819
'0:14.766',-182.922
'0:14.770',-253.831
'0:14.773',-323.384
'0:14.777',-369.221
'0:14.781',-349.254
'0:14.785',-335.242
'0:14.789',-338.752
'0:14.793',-338.22
'0:14.797',-334.152
'0:14.801',-316.099
'0:14.805',-302.885
'0:14.809',-289.937
'0:14.813',-303.975
'0:14.816',-329.579
'0:14.820',-342.793
'0:14.824',-332.557
'0:14.828',-323.384
'0:14.832',-321.762
'0:14.836',-297.488
'0:14.840',-278.079
'0:14.844',-267.045
'0:14.848',-287.784
'0:14.852',-316.099
'0:14.855',-309.639
'0:14.859',-294.271
'0:14.863',-300.466
'0:14.867',-302.619
'0:14.871',-298.046
'0:14.875',-292.649
'0:14.879',-277.547
'0:14.883',-282.945
'0:14.887',-268.933
'0:14.891',-265.158
'0:14.895',-244.393
'0:14.898',-244.393
'0:14.902',-247.902
'0:14.906',-234.422
'0:14.910',-201.534
'0:14.914',-198.024
'0:14.918',-179.147
'0:14.922',-165.135
'0:14.926',-152.719
'0:14.930',-167.555
'0:14.934',-101.245
'0:14.938',-54.877
'0:14.941',-102.043
'0:14.945',-143.573
'0:14.949',-157.584
'0:14.953',-164.045
'0:14.957',-155.165
'0:14.961',-122.808
'0:14.965',-115.257
'0:14.969',-109.062
'0:14.973',-96.646
'0:14.977',-119.83
'0:14.980',-135.729
'0:14.984',-129.535
'0:14.988',-126.317
'0:14.992',-144.902
'0:14.996',-164.869
'0:15.000',-181.035
'0:15.004',-193.158
'0:15.008',-191.005
'0:15.012',-209.084
'0:15.016',-227.403
'0:15.020',-227.403
'0:15.023',-225.781
'0:15.027',-178.057
'0:15.031',-210.414
'0:15.035',-269.996
'0:15.039',-298.312
'0:15.043',-317.721
'0:15.047',-324.448
'0:15.051',-310.436
'0:15.055',-305.039
'0:15.059',-283.476
'0:15.063',-284.301
'0:15.066',-288.874
'0:15.070',-290.761
'0:15.074',-271.884
'0:15.078',-252.475
'0:15.082',-252.209
'0:15.086',-238.464
'0:15.090',-255.719
'0:15.094',-253.007
'0:15.098',-250.853
'0:15.102',-251.385
'0:15.105',-237.905
'0:15.109',-223.628
'0:15.113',-236.576
'0:15.117',-216.901
'0:15.121',-202.065
'0:15.125',-220.942
'0:15.129',-236.018
'0:15.133',-248.434
'0:15.137',-247.636
'0:15.141',-234.954
'0:15.145',-222.564
'0:15.148',-220.677
'0:15.152',-215.279
'0:15.156',-213.126
'0:15.160',-231.976
'0:15.164',-235.22
'0:15.168',-235.22
'0:15.172',-216.609
'0:15.176',-214.455
'0:15.180',-214.721
'0:15.184',-200.975
'0:15.188',-202.065
'0:15.191',-199.646
'0:15.195',-196.934
'0:15.199',-196.934
'0:15.203',-199.646
'0:15.207',-200.709
'0:15.211',-198.822
'0:15.215',-181.035
'0:15.219',-181.3
'0:15.223',-166.757
'0:15.227',-167.289
'0:15.230',-181.035
'0:15.234',-178.349
'0:15.238',-148.678
'0:15.242',-137.085
'0:15.246',-151.389
'0:15.250',-161.094
'0:15.254',-158.914
'0:15.258',-179.147
'0:15.262',-168.352
'0:15.266',-152.719
'0:15.270',-147.614
'0:15.273',-142.749
'0:15.277',-159.738
'0:15.281',-149.209
'0:15.285',-152.187
'0:15.289',-148.412
'0:15.293',-142.749
'0:15.297',-158.116
'0:15.301',-162.423
'0:15.305',-166.465
'0:15.309',-149.502
'0:15.313',-144.902
'0:15.316',-126.583
'0:15.320',-129.269
'0:15.324',-147.614
'0:15.328',-130.89
'0:15.332',-129.003
'0:15.336',-112.013
'0:15.340',-66.735
'0:15.344',23.849
'0:15.348',147.88
'0:15.352',231.179
'0:15.355',319.343
'0:15.359',324.182
'0:15.363',246.015
'0:15.367',165.401
'0:15.371',144.37
'0:15.375',107.174
'0:15.379',92.339
'0:15.383',34.644
'0:15.387',-9.306
'0:15.391',-45.704
'0:15.395',-69.952
'0:15.398',-87.765
'0:15.402',-66.469
'0:15.406',-46.767
'0:15.410',-48.389
'0:15.414',-36.797
'0:15.418',-38.153
'0:15.422',-49.479
'0:15.426',-45.438
'0:15.430',-31.958
'0:15.434',-37.621
'0:15.438',-38.153
'0:15.441',-33.022
'0:15.445',-14.145
'0:15.449',-16.591
'0:15.453',-4.998
'0:15.457',-5.53
'0:15.461',29.778
'0:15.465',1.489
'0:15.469',2.287
'0:15.473',-2.021
'0:15.477',10.103
'0:15.480',26.561
'0:15.484',31.4
'0:15.488',34.378
'0:15.492',32.224
'0:15.496',58.626
'0:15.500',57.03
'0:15.504',77.769
'0:15.508',97.736
'0:15.512',96.38
'0:15.516',107.706
'0:15.520',121.452
'0:15.523',140.063
'0:15.527',144.37
'0:15.531',145.168
'0:15.535',172.686
'0:15.539',199.088
'0:15.543',247.344
'0:15.547',253.273
'0:15.551',212.567
'0:15.555',196.136
'0:15.559',202.331
'0:15.563',226.313
'0:15.566',245.722
'0:15.570',256.517
'0:15.574',276.191
'0:15.578',283.476
'0:15.582',274.862
'0:15.586',277.813
'0:15.590',302.354
'0:15.594',305.039
'0:15.598',283.742
'0:15.602',277.281
'0:15.605',277.281
'0:15.609',298.046
'0:15.613',316.365
'0:15.617',282.679
'0:15.621',249.232
'0:15.625',232.535
'0:15.629',201.241
'0:15.633',170.24
'0:15.637',153.543
'0:15.641',150.565
'0:15.645',148.412
'0:15.648',164.843
'0:15.652',151.655
'0:15.656',137.91
'0:15.660',136.288
'0:15.664',116.586
'0:15.668',131.156
'0:15.672',132.778
'0:15.676',150.831
'0:15.680',150.831
'0:15.684',148.943
'0:15.688',163.513
'0:15.691',163.779
'0:15.695',165.933
'0:15.699',182.098
'0:15.703',195.578
'0:15.707',193.983
'0:15.711',211.238
'0:15.715',197.758
'0:15.719',183.188
'0:15.723',150.299
'0:15.727',131.954
'0:15.730',145.168
'0:15.734',144.636
'0:15.738',162.982
'0:15.742',179.679
'0:15.746',178.881
'0:15.750',178.057
'0:15.754',177.791
'0:15.758',178.615
'0:15.762',209.616
'0:15.766',192.627
'0:15.770',193.983
'0:15.773',210.414
'0:15.777',208.792
'0:15.781',192.627
'0:15.785',209.058
'0:15.789',208.526
'0:15.793',208.26
'0:15.797',208.26
'0:15.801',223.894
'0:15.805',223.096
'0:15.809',238.995
'0:15.813',254.629
'0:15.816',239.527
'0:15.820',194.514
'0:15.824',179.413
'0:15.828',205.841
'0:15.832',200.178
'0:15.836',202.863
'0:15.840',224.984
'0:15.844',210.68
'0:15.848',206.638
'0:15.852',201.534
'0:15.855',186.166
'0:15.859',206.638
'0:15.863',238.73
'0:15.867',250.322
'0:15.871',248.7
'0:15.875',267.311
'0:15.879',270.262
'0:15.883',269.996
'0:15.887',266.753
'0:15.891',279.967
'0:15.895',296.159
'0:15.898',283.742
'0:15.902',286.162
'0:15.906',283.476
'0:15.910',294.537
'0:15.914',247.078
'0:15.918',221.74
'0:15.922',207.728
'0:15.926',216.875
'0:15.930',240.351
'0:15.934',241.415
'0:15.938',235.752
'0:15.941',225.516
'0:15.945',234.422
'0:15.949',223.362
'0:15.953',223.096
'0:15.957',233.066
'0:15.961',239.261
'0:15.965',249.232
'0:15.969',347.366
'0:15.973',498.064
'0:15.977',601.33
'0:15.980',712.945
'0:15.984',704.038
'0:15.988',635.841
'0:15.992',578.944
'0:15.996',604.574
'0:16.000',528.534
'0:16.004',460.868
'0:16.008',399.664
'0:16.012',339.815
'0:16.016',280.525
'0:16.020',250.588
'0:16.023',275.66
'0:16.027',262.18
'0:16.031',255.985
'0:16.035',248.7
'0:16.039',218.231
'0:16.043',210.68
'0:16.047',228.201
'0:16.051',251.385
'0:16.055',275.394
'0:16.059',310.17
'0:16.063',304.773
'0:16.066',264.067
'0:16.070',227.137
'0:16.074',230.354
'0:16.078',224.984
'0:16.082',233.598
'0:16.086',259.202
'0:16.090',272.682
'0:16.094',293.181
'0:16.098',303.975
'0:16.102',281.057
'0:16.105',277.016
'0:16.109',274.304
'0:16.113',276.191
'0:16.117',315.302
'0:16.121',353.561
'0:16.125',336.598
'0:16.129',295.334
'0:16.133',253.273
'0:16.137',253.831
'0:16.141',281.855
'0:16.145',309.639
'0:16.148',321.497
'0:16.152',334.152
'0:16.156',367.041
'0:16.160',375.682
'0:16.164',386.45
'0:16.168',400.488
'0:16.172',368.131
'0:16.176',354.651
'0:16.180',390.784
'0:16.184',410.193
'0:16.188',440.369
'0:16.191',461.959
'0:16.195',467.888
'0:16.199',471.929
'0:16.203',457.917
'0:16.207',454.939
'0:16.211',460.337
'0:16.215',481.367
'0:16.219',484.053
'0:16.223',439.838
'0:16.227',408.837
'0:16.230',398.042
'0:16.234',368.131
'0:16.238',353.029
'0:16.242',339.55
'0:16.246',339.284
'0:16.250',315.302
'0:16.254',304.773
'0:16.258',288.874
'0:16.262',272.416
'0:16.266',271.087
'0:16.270',279.967
'0:16.273',271.087
'0:16.277',241.681
'0:16.281',163.513
'0:16.285',161.094
'0:16.289',148.943
'0:16.293',153.809
'0:16.297',141.658
'0:16.301',160.536
'0:16.305',172.952
'0:16.309',194.514
'0:16.313',186.166
'0:16.316',176.169
'0:16.320',177.259
'0:16.324',171.33
'0:16.328',176.727
'0:16.332',154.607
'0:16.336',130.066
'0:16.340',129.269
'0:16.344',135.729
'0:16.348',155.963
'0:16.352',152.453
'0:16.355',177.791
'0:16.359',222.538
'0:16.363',196.934
'0:16.367',159.472
'0:16.371',143.839
'0:16.375',131.688
'0:16.379',138.441
'0:16.383',158.648
'0:16.387',154.872
'0:16.391',144.104
'0:16.395',104.462
'0:16.398',93.96
'0:16.402',108.238
'0:16.406',116.32
'0:16.410',139.505
'0:16.414',136.288
'0:16.418',112.811
'0:16.422',126.291
'0:16.426',115.257
'0:16.430',121.186
'0:16.434',135.198
'0:16.438',112.545
'0:16.441',95.29
'0:16.445',99.889
'0:16.449',103.106
'0:16.453',116.32
'0:16.457',96.114
'0:16.461',111.747
'0:16.465',145.726
'0:16.469',147.322
'0:16.473',101.777
'0:16.477',55.408
'0:16.480',52.165
'0:16.484',61.869
'0:16.488',91.514
'0:16.492',96.38
'0:16.496',118.208
'0:16.500',117.676
'0:16.504',96.646
'0:16.508',94.226
'0:16.512',127.115
'0:16.516',98.799
'0:16.520',101.777
'0:16.523',67.798
'0:16.527',64.023
'0:16.531',46.236
'0:16.535',64.023
'0:16.539',112.545
'0:16.543',111.216
'0:16.547',65.911
'0:16.551',22.52
'0:16.555',5.53
'0:16.559',-16.591
'0:16.563',-4.998
'0:16.566',12.523
'0:16.570',2.818
'0:16.574',-9.306
'0:16.578',-13.081
'0:16.582',-20.074
'0:16.586',-5.264
'0:16.590',92.604
'0:16.594',218.762
'0:16.598',342.793
'0:16.602',439.306
'0:16.605',478.921
'0:16.609',363.266
'0:16.613',273.24
'0:16.617',244.393
'0:16.621',226.313
'0:16.625',209.882
'0:16.629',195.312
'0:16.633',113.369
'0:16.637',12.815
'0:16.641',-53.521
'0:16.645',-65.113
'0:16.648',-26.827
'0:16.652',-12.257
'0:16.656',-22.52
'0:16.660',-32.224
'0:16.664',-44.348
'0:16.668',-43.258
'0:16.672',-31.4
'0:16.676',-24.673
'0:16.680',-31.134
'0:16.684',-41.663
'0:16.688',-42.194
'0:16.691',-33.022
'0:16.695',4.44
'0:16.699',14.969
'0:16.703',-7.95
'0:16.707',-52.697
'0:16.711',-44.88
'0:16.715',-29.246
'0:16.719',-36.797
'0:16.723',-71.574
'0:16.727',-81.278
'0:16.730',-60.806
'0:16.734',-48.921
'0:16.738',-54.877
'0:16.742',-38.951
'0:16.746',-33.288
'0:16.750',-28.98
'0:16.754',-31.134
'0:16.758',-21.164
'0:16.762',-7.684
'0:16.766',-3.111
'0:16.770',2.818
'0:16.773',17.92
'0:16.777',11.725
'0:16.781',24.939
'0:16.785',43.816
'0:16.789',49.187
'0:16.793',65.911
'0:16.797',76.705
'0:16.801',88.829
'0:16.805',91.514
'0:16.809',112.811
'0:16.813',113.635
'0:16.816',125.227
'0:16.820',121.452
'0:16.824',123.605
'0:16.828',128.471
'0:16.832',129.269
'0:16.836',140.595
'0:16.840',121.186
'0:16.844',108.504
'0:16.848',81.81
'0:16.852',66.442
'0:16.855',44.88
'0:16.859',24.673
'0:16.863',26.295
'0:16.867',15.235
'0:16.871',1.489
'0:16.875',-17.654
'0:16.879',-22.52
'0:16.883',-38.685
'0:16.887',-49.745
'0:16.891',-62.401
'0:16.895',-80.746
'0:16.898',-85.878
'0:16.902',-87.765
'0:16.906',-83.99
'0:16.910',-95.29
'0:16.914',-95.582
'0:16.918',-100.421
'0:16.922',-103.399
'0:16.926',-85.319
'0:16.930',-96.38
'0:16.934',-109.86
'0:16.938',-98.002
'0:16.941',-103.399
'0:16.945',-102.309
'0:16.949',-112.013
'0:16.953',-108.77
'0:16.957',-112.838
'0:16.961',-103.133
'0:16.965',-87.765
'0:16.969',-66.176
'0:16.973',-76.705
'0:16.977',-92.87
'0:16.980',-113.901
'0:16.984',-133.044
'0:16.988',-115.523
'0:16.992',-112.279
'0:16.996',-95.29
'0:17.000',-97.47
'0:17.004',-83.698
'0:17.008',-98.268
'0:17.012',-79.125
'0:17.016',-78.859
'0:17.020',-81.012
'0:17.023',-82.368
'0:17.027',-81.278
'0:17.031',-79.125
'0:17.035',-78.859
'0:17.039',-80.215
'0:17.043',-66.176
'0:17.047',-65.911
'0:17.051',-63.225
'0:17.055',-61.603
'0:17.059',-62.959
'0:17.063',-65.379
'0:17.066',-50.011
'0:17.070',-48.389
'0:17.074',-45.97
'0:17.078',-45.704
'0:17.082',-63.225
'0:17.086',-64.289
'0:17.090',-79.656
'0:17.094',-78.061
'0:17.098',-47.592
'0:17.102',-34.378
'0:17.105',-18.186
'0:17.109',-30.071
'0:17.113',-26.827
'0:17.117',-13.879
'0:17.121',-3.111
'0:17.125',11.991
'0:17.129',17.122
'0:17.133',52.697
'0:17.137',34.644
'0:17.141',-14.703
'0:17.145',-60.806
'0:17.148',-59.716
'0:17.152',-63.225
'0:17.156',-81.544
'0:17.160',-79.656
'0:17.164',-76.971
'0:17.168',-61.337
'0:17.172',-48.655
'0:17.176',-49.745
'0:17.180',-46.767
'0:17.184',-28.183
'0:17.188',-29.512
'0:17.191',-31.958
'0:17.195',-32.224
'0:17.199',-30.071
'0:17.203',2.287
'0:17.207',47.033
'0:17.211',153.543
'0:17.215',262.712
'0:17.219',347.366
'0:17.223',387.806
'0:17.227',315.009
'0:17.230',205.017
'0:17.234',150.034
'0:17.238',123.074
'0:17.242',104.994
'0:17.246',82.102
'0:17.250',73.461
'0:17.254',37.887
'0:17.258',12.523
'0:17.262',8.481
'0:17.266',-1.755
'0:17.270',21.43
'0:17.273',4.174
'0:17.277',-2.021
'0:17.281',9.572
'0:17.285',-3.111
'0:17.289',4.174
'0:17.293',4.706
'0:17.297',14.145
'0:17.301',9.04
'0:17.305',12.815
'0:17.309',19.542
'0:17.313',20.632
'0:17.316',14.969
'0:17.320',25.737
'0:17.324',27.359
'0:17.328',34.112
'0:17.332',36.797
'0:17.336',32.49
'0:17.340',42.46
'0:17.344',42.46
'0:17.348',64.289
'0:17.352',67.532
'0:17.355',65.113
'0:17.359',60.513
'0:17.363',74.817
'0:17.367',78.034
'0:17.371',97.736
'0:17.375',96.912
'0:17.379',109.062
'0:17.383',107.174
'0:17.387',125.493
'0:17.391',143.839
'0:17.395',143.839
'0:17.398',157.584
'0:17.402',186.698
'0:17.406',202.863
'0:17.410',191.005
'0:17.414',194.249
'0:17.418',206.904
'0:17.422',201.241
'0:17.426',232.242
'0:17.430',251.678
'0:17.434',286.72
'0:17.438',285.896
'0:17.441',283.476
'0:17.445',282.386
'0:17.449',283.476
'0:17.453',269.465
'0:17.457',254.097
'0:17.461',251.385
'0:17.465',263.802
'0:17.469',278.903
'0:17.473',297.222
'0:17.477',269.199
'0:17.480',223.628
'0:17.484',189.383
'0:17.488',198.556
'0:17.492',164.045
'0:17.496',107.174
'0:17.500',82.102
'0:17.504',77.237
'0:17.508',96.912
'0:17.512',78.034
'0:17.516',73.196
'0:17.520',67.001
'0:17.523',46.767
'0:17.527',34.378
'0:17.531',29.512
'0:17.535',52.962
'0:17.539',78.034
'0:17.543',92.604
'0:17.547',99.624
'0:17.551',79.922
'0:17.555',71.308
'0:17.559',93.96
'0:17.563',75.349
'0:17.566',37.063
'0:17.570',19.542
'0:17.574',38.153
'0:17.578',25.205
'0:17.582',25.205
'0:17.586',21.961
'0:17.590',50.543
'0:17.594',66.735
'0:17.598',71.308
'0:17.602',89.919
'0:17.605',87.473
'0:17.609',52.962
'0:17.613',22.786
'0:17.617',40.573
'0:17.621',38.419
'0:17.625',51.633
'0:17.629',51.633
'0:17.633',54.85
'0:17.637',56.738
'0:17.641',70.51
'0:17.645',82.368
'0:17.648',67.266
'0:17.652',71.84
'0:17.656',89.095
'0:17.660',100.687
'0:17.664',97.177
'0:17.668',68.888
'0:17.672',74.259
'0:17.676',57.562
'0:17.680',52.165
'0:17.684',63.757
'0:17.688',50.543
'0:17.691',26.003
'0:17.695',27.89
'0:17.699',51.367
'0:17.703',59.716
'0:17.707',63.757
'0:17.711',43.258
'0:17.715',0.665
'0:17.719',7.684
'0:17.723',10.369
'0:17.727',25.737
'0:17.730',69.42
'0:17.734',93.136
'0:17.738',73.461
'0:17.742',33.553
'0:17.746',46.767
'0:17.750',81.544
'0:17.754',101.777
'0:17.758',134.134
'0:17.762',146.258
'0:17.766',82.9
'0:17.770',10.369
'0:17.773',-34.112
'0:17.777',-26.561
'0:17.781',-6.594
'0:17.785',9.572
'0:17.789',21.961
'0:17.793',15.235
'0:17.797',9.572
'0:17.801',-18.478
'0:17.805',-21.164
'0:17.809',3.111
'0:17.813',10.927
'0:17.816',-6.594
'0:17.820',-14.437
'0:17.824',-3.642
'0:17.828',31.134
'0:17.832',130.89
'0:17.836',255.161
'0:17.840',329.845
'0:17.844',427.448
'0:17.848',389.694
'0:17.852',306.129
'0:17.855',225.25
'0:17.859',209.058
'0:17.863',180.21
'0:17.867',171.064
'0:17.871',155.697
'0:17.875',82.368
'0:17.879',-38.153
'0:17.883',-99.065
'0:17.887',-104.197
'0:17.891',-82.102
'0:17.895',-73.461
'0:17.898',-72.664
'0:17.902',-64.581
'0:17.906',-85.878
'0:17.910',-81.278
'0:17.914',-73.993
'0:17.918',-88.829
'0:17.922',-94.492
'0:17.926',-99.889
'0:17.930',-98.002
'0:17.934',-106.882
'0:17.938',-104.197
'0:17.941',-78.593
'0:17.945',-69.686
'0:17.949',-82.634
'0:17.953',-57.562
'0:17.957',-70.776
'0:17.961',-91.807
'0:17.965',-113.635
'0:17.969',-113.369
'0:17.973',-123.605
'0:17.977',-135.464
'0:17.980',-123.074
'0:17.984',-114.433
'0:17.988',-83.99
'0:17.992',-77.769
'0:17.996',-101.511
'0:18.000',-117.145
'0:18.004',-95.024
'0:18.008',-102.309
'0:18.012',-81.012
'0:18.016',-55.408
'0:18.020',-37.887
'0:18.023',-14.145
'0:18.027',-4.706
'0:18.031',-15.766
'0:18.035',-20.898
'0:18.039',-19.276
'0:18.043',-13.347
'0:18.047',-6.062
'0:18.051',-1.755
'0:18.055',9.837
'0:18.059',13.347
'0:18.063',20.366
'0:18.066',-4.174
'0:18.070',14.703
'0:18.074',8.216
'0:18.078',12.523
'0:18.082',5.796
'0:18.086',-2.552
'0:18.090',-17.122
'0:18.094',-23.849
'0:18.098',-19.808
'0:18.102',-41.929
'0:18.105',-49.479
'0:18.109',-49.214
'0:18.113',-73.196
'0:18.117',-114.167
'0:18.121',-133.576
'0:18.125',-159.472
'0:18.129',-147.88
'0:18.133',-126.583
'0:18.137',-133.842
'0:18.141',-147.614
'0:18.145',-185.342
'0:18.148',-207.197
'0:18.152',-222.006
'0:18.156',-216.343
'0:18.160',-214.189
'0:18.164',-202.331
'0:18.168',-206.638
'0:18.172',-204.751
'0:18.176',-199.088
'0:18.180',-197.2
'0:18.184',-200.709
'0:18.188',-204.751
'0:18.191',-203.687
'0:18.195',-199.088
'0:18.199',-196.934
'0:18.203',-183.72
'0:18.207',-187.761
'0:18.211',-171.064
'0:18.215',-167.023
'0:18.219',-179.413
'0:18.223',-180.503
'0:18.227',-169.708
'0:18.230',-156.228
'0:18.234',-167.821
'0:18.238',-192.361
'0:18.242',-207.463
'0:18.246',-230.381
'0:18.250',-235.752
'0:18.254',-218.231
'0:18.258',-196.402
'0:18.262',-193.158
'0:18.266',-195.605
'0:18.270',-215.279
'0:18.273',-215.013
'0:18.277',-196.668
'0:18.281',-195.046
'0:18.285',-195.312
'0:18.289',-196.668
'0:18.293',-197.2
'0:18.297',-195.87
'0:18.301',-194.249
'0:18.305',-194.249
'0:18.309',-195.312
'0:18.313',-195.87
'0:18.316',-179.413
'0:18.320',-178.615
'0:18.324',-177.525
'0:18.328',-177.259
'0:18.332',-193.424
'0:18.336',-208.792
'0:18.340',-208.792
'0:18.344',-209.616
'0:18.348',-194.514
'0:18.352',-194.249
'0:18.355',-161.36
'0:18.359',-160.801
'0:18.363',-160.004
'0:18.367',-174.84
'0:18.371',-174.84
'0:18.375',-176.169
'0:18.379',-161.626
'0:18.383',-145.434
'0:18.387',-143.28
'0:18.391',-172.128
'0:18.395',-186.964
'0:18.398',-190.473
'0:18.402',-194.249
'0:18.406',-208.526
'0:18.410',-203.687
'0:18.414',-202.597
'0:18.418',-205.841
'0:18.422',-209.084
'0:18.426',-207.463
'0:18.430',-188.32
'0:18.434',-187.229
'0:18.438',-203.953
'0:18.441',-205.309
'0:18.445',-205.575
'0:18.449',-189.117
'0:18.453',-157.318
'0:18.457',-95.29
'0:18.461',-18.186
'0:18.465',92.604
'0:18.469',174.574
'0:18.473',243.037
'0:18.477',231.71
'0:18.480',109.86
'0:18.484',16.298
'0:18.488',7.152
'0:18.492',-5.53
'0:18.496',-20.366
'0:18.500',-38.951
'0:18.504',-93.694
'0:18.508',-147.322
'0:18.512',-161.892
'0:18.516',-199.088
'0:18.520',-172.952
'0:18.523',-147.614
'0:18.527',-119.032
'0:18.531',-129.269
'0:18.535',-146.524
'0:18.539',-137.617
'0:18.543',-131.422
'0:18.547',-135.198
'0:18.551',-127.913
'0:18.555',-145.434
'0:18.559',-137.351
'0:18.563',-116.055
'0:18.566',-119.83
'0:18.570',-126.317
'0:18.574',-126.849
'0:18.578',-105.553
'0:18.582',-101.511
'0:18.586',-103.133
'0:18.590',-107.44
'0:18.594',-93.429
'0:18.598',-75.349
'0:18.602',-55.674
'0:18.605',-54.877
'0:18.609',-87.473
'0:18.613',-88.563
'0:18.617',-89.919
'0:18.621',-74.286
'0:18.625',-57.828
'0:18.629',-41.104
'0:18.633',-24.939
'0:18.637',-9.306
'0:18.641',6.328
'0:18.645',22.52
'0:18.648',39.217
'0:18.652',39.775
'0:18.656',40.573
'0:18.660',55.674
'0:18.664',69.686
'0:18.668',69.952
'0:18.672',72.398
'0:18.676',89.095
'0:18.680',117.942
'0:18.684',131.422
'0:18.688',133.576
'0:18.691',153.543
'0:18.695',153.809
'0:18.699',166.199
'0:18.703',178.881
'0:18.707',180.503
'0:18.711',169.442
'0:18.715',140.329
'0:18.719',121.186
'0:18.723',115.257
'0:18.727',113.103
'0:18.730',102.043
'0:18.734',91.248
'0:18.738',89.627
'0:18.742',51.899
'0:18.746',34.378
'0:18.750',37.329
'0:18.754',24.407
'0:18.758',8.216
'0:18.762',4.706
'0:18.766',1.755
'0:18.770',-12.257
'0:18.773',-8.216
'0:18.777',-8.216
'0:18.781',3.642
'0:18.785',0.931
'0:18.789',3.377
'0:18.793',7.95
'0:18.797',-22.52
'0:18.801',-25.471
'0:18.805',-45.704
'0:18.809',-45.438
'0:18.813',-42.194
'0:18.816',-24.939
'0:18.820',-26.827
'0:18.824',-13.347
'0:18.828',-13.081
'0:18.832',-9.837
'0:18.836',-8.216
'0:18.840',5.53
'0:18.844',17.654
'0:18.848',2.552
'0:18.852',22.786
'0:18.855',24.115
'0:18.859',37.063
'0:18.863',33.846
'0:18.867',50.809
'0:18.871',54.052
'0:18.875',40.573
'0:18.879',23.849
'0:18.883',20.074
'0:18.887',33.288
'0:18.891',50.277
'0:18.895',38.419
'0:18.898',10.369
'0:18.902',8.216
'0:18.906',17.388
'0:18.910',-0.665
'0:18.914',20.632
'0:18.918',40.307
'0:18.922',38.685
'0:18.926',34.644
'0:18.930',18.186
'0:18.934',37.063
'0:18.938',54.052
'0:18.941',52.697
'0:18.945',51.367
'0:18.949',36.531
'0:18.953',38.153
'0:18.957',52.962
'0:18.961',81.544
'0:18.965',80.746
'0:18.969',54.052
'0:18.973',27.093
'0:18.977',39.775
'0:18.980',46.767
'0:18.984',59.981
'0:18.988',51.899
'0:18.992',59.981
'0:18.996',57.296
'0:19.000',48.123
'0:19.004',59.716
'0:19.008',65.379
'0:19.012',89.095
'0:19.016',104.197
'0:19.020',96.912
'0:19.023',62.959
'0:19.027',52.962
'0:19.031',88.031
'0:19.035',83.698
'0:19.039',48.389
'0:19.043',19.542
'0:19.047',23.051
'0:19.051',67.532
'0:19.055',107.972
'0:19.059',77.237
'0:19.063',10.103
'0:19.066',-14.969
'0:19.070',5.264
'0:19.074',36
'0:19.078',21.43
'0:19.082',9.572
'0:19.086',5.264
'0:19.090',23.583
'0:19.094',80.48
'0:19.098',217.965
'0:19.102',330.377
'0:19.105',414.5
'0:19.109',446.591
'0:19.113',368.663
'0:19.117',283.476
'0:19.121',243.834
'0:19.125',219.321
'0:19.129',168.086
'0:19.133',126.583
'0:19.137',105.818
'0:19.141',110.126
'0:19.145',69.952
'0:19.148',9.572
'0:19.152',-12.815
'0:19.156',-7.418
'0:19.160',-9.306
'0:19.164',0.133
'0:19.168',54.052
'0:19.172',64.555
'0:19.176',26.561
'0:19.180',13.081
'0:19.184',-11.991
'0:19.188',-10.369
'0:19.191',-1.755
'0:19.195',-23.317
'0:19.199',-4.174
'0:19.203',17.92
'0:19.207',34.909
'0:19.211',15.235
'0:19.215',-18.186
'0:19.219',-31.666
'0:19.223',-30.071
'0:19.227',-16.591
'0:19.230',-4.44
'0:19.234',27.093
'0:19.238',30.602
'0:19.242',3.908
'0:19.246',-26.561
'0:19.250',-31.958
'0:19.254',-37.887
'0:19.258',-21.43
'0:19.262',-0.133
'0:19.266',3.377
'0:19.270',-13.879
'0:19.273',-2.552
'0:19.277',25.737
'0:19.281',28.183
'0:19.285',34.644
'0:19.289',20.898
'0:19.293',16.591
'0:19.297',10.927
'0:19.301',26.561
'0:19.305',47.033
'0:19.309',81.544
'0:19.313',110.657
'0:19.316',122.808
'0:19.320',93.694
'0:19.324',68.622
'0:19.328',69.154
'0:19.332',46.236
'0:19.336',56.738
'0:19.340',42.992
'0:19.344',50.543
'0:19.348',37.063
'0:19.352',31.666
'0:19.355',25.205
'0:19.359',10.635
'0:19.363',2.021
'0:19.367',-10.662
'0:19.371',-46.767
'0:19.375',-52.989
'0:19.379',-54.877
'0:19.383',-65.379
'0:19.387',-106.35
'0:19.391',-138.175
'0:19.395',-161.626
'0:19.398',-183.188
'0:19.402',-195.87
'0:19.406',-173.484
'0:19.410',-157.584
'0:19.414',-178.057
'0:19.418',-195.312
'0:19.422',-238.73
'0:19.426',-250.322
'0:19.430',-253.273
'0:19.434',-259.76
'0:19.438',-260.824
'0:19.441',-255.161
'0:19.445',-234.954
'0:19.449',-237.108
'0:19.453',-226.047
'0:19.457',-242.505
'0:19.461',-252.475
'0:19.465',-217.699
'0:19.469',-222.006
'0:19.473',-256.251
'0:19.477',-284.566
'0:19.480',-280.791
'0:19.484',-267.577
'0:19.488',-272.416
'0:19.492',-271.884
'0:19.496',-251.385
'0:19.500',-248.7
'0:19.504',-280.791
'0:19.508',-298.578
'0:19.512',-300.466
'0:19.516',-300.466
'0:19.520',-313.68
'0:19.523',-296.159
'0:19.527',-282.413
'0:19.531',-269.199
'0:19.535',-298.312
'0:19.539',-308.548
'0:19.543',-308.283
'0:19.547',-313.68
'0:19.551',-332.557
'0:19.555',-344.415
'0:19.559',-323.65
'0:19.563',-340.374
'0:19.566',-343.857
'0:19.570',-345.744
'0:19.574',-327.957
'0:19.578',-309.08
'0:19.582',-323.384
'0:19.586',-339.284
'0:19.590',-371.641
'0:19.594',-387.806
'0:19.598',-388.364
'0:19.602',-404.264
'0:19.605',-387.54
'0:19.609',-356.805
'0:19.613',-326.07
'0:19.617',-339.55
'0:19.621',-365.712
'0:19.625',-379.723
'0:19.629',-384.855
'0:19.633',-389.959
'0:19.637',-372.997
'0:19.641',-382.409
'0:19.645',-393.203
'0:19.648',-411.814
'0:19.652',-402.642
'0:19.656',-405.061
'0:19.660',-429.867
'0:19.664',-437.95
'0:19.668',-440.104
'0:19.672',-449.01
'0:19.676',-467.622
'0:19.680',-475.97
'0:19.684',-453.052
'0:19.688',-440.396
'0:19.691',-447.654
'0:19.695',-447.92
'0:19.699',-440.928
'0:19.703',-435.531
'0:19.707',-453.583
'0:19.711',-443.613
'0:19.715',-399.664
'0:19.719',-287.784
'0:19.723',-173.75
'0:19.727',-75.083
'0:19.730',21.961
'0:19.734',-52.697
'0:19.738',-169.442
'0:19.742',-231.71
'0:19.746',-276.75
'0:19.750',-320.141
'0:19.754',-347.366
'0:19.758',-380.813
'0:19.762',-422.848
'0:19.766',-449.276
'0:19.770',-463.022
'0:19.773',-477.592
'0:19.777',-463.58
'0:19.781',-440.396
'0:19.785',-448.213
'0:19.789',-458.449
'0:19.793',-426.624
'0:19.797',-416.919
'0:19.801',-408.305
'0:19.805',-442.257
'0:19.809',-466.266
'0:19.813',-392.937
'0:19.816',-344.415
'0:19.820',-379.989
'0:19.824',-447.123
'0:19.828',-482.165
'0:19.832',-483.521
'0:19.836',-446.325
'0:19.840',-405.593
'0:19.844',-371.907
'0:19.848',-382.143
'0:19.852',-393.469
'0:19.855',-329.313
'0:19.859',-267.045
'0:19.863',-311.792
'0:19.867',-340.64
'0:19.871',-240.086
'0:19.875',-66.735
'0:19.879',-58.626
'0:19.883',-285.098
'0:19.887',-493.491
'0:19.891',-499.686
'0:19.895',-491.338
'0:19.898',-469.775
'0:19.902',-386.184
'0:19.906',-310.436
'0:19.910',-286.72
'0:19.914',-315.302
'0:19.918',-314.212
'0:19.922',-261.382
'0:19.926',-191.829
'0:19.930',-174.84
'0:19.934',-222.564
'0:19.938',-222.564
'0:19.941',-183.72
'0:19.945',-122.542
'0:19.949',-144.37
'0:19.953',-178.349
'0:19.957',-195.605
'0:19.961',-185.342
'0:19.965',-147.322
'0:19.969',-116.613
'0:19.973',-157.318
'0:19.977',-201.534
'0:19.980',-197.2
'0:19.984',-184.544
'0:19.988',-200.443
'0:19.992',-247.636
'0:19.996',-273.24
'0:20.000',-277.016
'0:20.004',-255.453
'0:20.008',-222.272
'0:20.012',-215.279
'0:20.016',-236.018
'0:20.020',-271.087
'0:20.023',-315.009
'0:20.027',-315.568
'0:20.031',-326.335
'0:20.035',-332.557
'0:20.039',-289.937
'0:20.043',-226.313
'0:20.047',-223.894
'0:20.051',-301.529
'0:20.055',-332.265
'0:20.059',-331.733
'0:20.063',-312.856
'0:20.066',-280.525
'0:20.070',-240.617
'0:20.074',-203.129
'0:20.078',-200.443
'0:20.082',-212.567
'0:20.086',-196.402
'0:20.090',-190.473
'0:20.094',-216.343
'0:20.098',-243.568
'0:20.102',-257.341
'0:20.105',-215.279
'0:20.109',-226.606
'0:20.113',-261.914
'0:20.117',-284.301
'0:20.121',-224.425
'0:20.125',-175.637
'0:20.129',-168.352
'0:20.133',-192.893
'0:20.137',-194.514
'0:20.141',-203.421
'0:20.145',-223.096
'0:20.148',-201.241
'0:20.152',-40.573
'0:20.156',62.959
'0:20.160',-44.614
'0:20.164',-105.818
'0:20.168',-117.676
'0:20.172',-58.36
'0:20.176',-92.073
'0:20.180',-203.953
'0:20.184',-223.894
'0:20.188',-194.78
'0:20.191',-162.689
'0:20.195',-225.516
'0:20.199',-264.067
'0:20.203',-205.017
'0:20.207',-182.391
'0:20.211',-242.771
'0:20.215',-235.486
'0:20.219',-169.442
'0:20.223',-41.397
'0:20.227',47.033
'0:20.230',-76.173
'0:20.234',-71.84
'0:20.238',-79.125
'0:20.242',-138.707
'0:20.246',-206.107
'0:20.250',-199.353
'0:20.254',-81.012
'0:20.258',-16.857
'0:20.262',-79.39
'0:20.266',-203.953
'0:20.270',-272.15
'0:20.273',-267.577
'0:20.277',-237.905
'0:20.281',-207.463
'0:20.285',-163.513
'0:20.289',-142.483
'0:20.293',-164.045
'0:20.297',-181.832
'0:20.301',-157.584
'0:20.305',-105.021
'0:20.309',-83.166
'0:20.313',-96.646
'0:20.316',-94.758
'0:20.320',-137.617
'0:20.324',-181.832
'0:20.328',-160.27
'0:20.332',-53.787
'0:20.336',81.544
'0:20.340',198.822
'0:20.344',354.385
'0:20.348',387.008
'0:20.352',300.466
'0:20.355',126.849
'0:20.359',105.818
'0:20.363',184.81
'0:20.367',218.762
'0:20.371',85.054
'0:20.375',-47.326
'0:20.379',-132.246
'0:20.383',-59.45
'0:20.387',-58.094
'0:20.391',-150.034
'0:20.395',-153.277
'0:20.398',-142.217
'0:20.402',-126.849
'0:20.406',-127.381
'0:20.410',-105.553
'0:20.414',-75.615
'0:20.418',-60.513
'0:20.422',-73.461
'0:20.426',-44.348
'0:20.430',78.859
'0:20.434',89.627
'0:20.438',-21.961
'0:20.441',-82.634
'0:20.445',-80.215
'0:20.449',-43.816
'0:20.453',-22.52
'0:20.457',-57.828
'0:20.461',-58.36
'0:20.465',-26.561
'0:20.469',92.339
'0:20.473',138.441
'0:20.477',38.153
'0:20.480',-52.989
'0:20.484',-100.953
'0:20.488',-114.725
'0:20.492',-84.788
'0:20.496',3.908
'0:20.500',110.391
'0:20.504',107.174
'0:20.508',58.36
'0:20.512',40.041
'0:20.516',37.063
'0:20.520',11.193
'0:20.523',59.184
'0:20.527',87.739
'0:20.531',97.736
'0:20.535',159.738
'0:20.539',216.077
'0:20.543',174.281
'0:20.547',162.157
'0:20.551',182.391
'0:20.555',185.342
'0:20.559',209.882
'0:20.563',377.038
'0:20.566',316.897
'0:20.570',129.003
'0:20.574',64.023
'0:20.578',102.841
'0:20.582',120.654
'0:20.586',95.848
'0:20.590',109.594
'0:20.594',141.127
'0:20.598',148.678
'0:20.602',155.431
'0:20.605',147.056
'0:20.609',140.595
'0:20.613',107.706
'0:20.617',72.398
'0:20.621',79.922
'0:20.625',81.012
'0:20.629',23.051
'0:20.633',10.635
'0:20.637',40.838
'0:20.641',-15.766
'0:20.645',17.654
'0:20.648',50.011
'0:20.652',34.644
'0:20.656',10.635
'0:20.660',-67.532
'0:20.664',-116.055
'0:20.668',-95.848
'0:20.672',-12.549
'0:20.676',27.624
'0:20.680',12.523
'0:20.684',7.152
'0:20.688',-23.849
'0:20.691',-12.815
'0:20.695',-8.216
'0:20.699',-35.734
'0:20.703',-52.165
'0:20.707',-22.254
'0:20.711',89.095
'0:20.715',122.542
'0:20.719',15.501
'0:20.723',-78.327
'0:20.727',-86.144
'0:20.730',-14.969
'0:20.734',22.254
'0:20.738',67.798
'0:20.742',21.695
'0:20.746',-70.218
'0:20.750',-112.279
'0:20.754',-106.084
'0:20.758',-42.726
'0:20.762',38.685
'0:20.766',21.961
'0:20.770',-22.254
'0:20.773',-30.336
'0:20.777',5.264
'0:20.781',30.602
'0:20.785',3.377
'0:20.789',-0.957
'0:20.793',-25.205
'0:20.797',19.808
'0:20.801',71.042
'0:20.805',46.767
'0:20.809',-41.663
'0:20.813',-44.88
'0:20.816',-11.991
'0:20.820',-34.112
'0:20.824',-37.621
'0:20.828',37.329
'0:20.832',1.223
'0:20.836',-85.878
'0:20.840',-87.765
'0:20.844',-39.509
'0:20.848',-22.254
'0:20.852',11.193
'0:20.855',-3.908
'0:20.859',-18.478
'0:20.863',-19.276
'0:20.867',-6.062
'0:20.871',23.317
'0:20.875',40.573
'0:20.879',29.512
'0:20.883',16.857
'0:20.887',75.615
'0:20.891',52.697
'0:20.895',-21.43
'0:20.898',-11.459
'0:20.902',1.223
'0:20.906',-9.837
'0:20.910',-28.98
'0:20.914',-36
'0:20.918',-12.549
'0:20.922',-1.489
'0:20.926',4.706
'0:20.930',34.378
'0:20.934',57.828
'0:20.938',4.44
'0:20.941',-71.84
'0:20.945',-81.544
'0:20.949',-64.023
'0:20.953',-33.288
'0:20.957',42.194
'0:20.961',82.634
'0:20.965',95.848
'0:20.969',102.575
'0:20.973',146.258
'0:20.977',229.291
'0:20.980',360.314
'0:20.984',470.307
'0:20.988',393.469
'0:20.992',294.271
'0:20.996',311.234
'0:21.000',279.435
'0:21.004',191.537
'0:21.008',138.707
'0:21.012',118.767
'0:21.016',98.002
'0:21.020',51.633
'0:21.023',14.969
'0:21.027',39.483
'0:21.031',47.592
'0:21.035',92.073
'0:21.039',159.206
'0:21.043',186.698
'0:21.047',75.349
'0:21.051',30.071
'0:21.055',98.799
'0:21.059',70.776
'0:21.063',20.366
'0:21.066',59.981
'0:21.070',90.717
'0:21.074',94.492
'0:21.078',73.461
'0:21.082',41.104
'0:21.086',90.983
'0:21.090',132.246
'0:21.094',138.441
'0:21.098',170.798
'0:21.102',247.344
'0:21.105',199.353
'0:21.109',138.973
'0:21.113',119.032
'0:21.117',125.493
'0:21.121',127.115
'0:21.125',173.484
'0:21.129',227.137
'0:21.133',290.761
'0:21.137',255.985
'0:21.141',215.811
'0:21.145',211.504
'0:21.148',224.984
'0:21.152',252.741
'0:21.156',252.741
'0:21.160',278.079
'0:21.164',334.976
'0:21.168',378.633
'0:21.172',364.09
'0:21.176',370.551
'0:21.180',377.304
'0:21.184',380.521
'0:21.188',421.785
'0:21.191',424.47
'0:21.195',449.276
'0:21.199',441.46
'0:21.203',459.247
'0:21.207',482.431
'0:21.211',485.409
'0:21.215',480.809
'0:21.219',459.247
'0:21.223',474.614
'0:21.227',478.124
'0:21.230',481.102
'0:21.234',463.554
'0:21.238',459.512
'0:21.242',456.827
'0:21.246',442.816
'0:21.250',446.325
'0:21.254',445.235
'0:21.258',425.294
'0:21.262',423.407
'0:21.266',439.838
'0:21.270',487.562
'0:21.273',502.398
'0:21.277',441.725
'0:21.281',383.233
'0:21.285',319.343
'0:21.289',326.335
'0:21.293',363.558
'0:21.297',365.153
'0:21.301',346.569
'0:21.305',338.194
'0:21.309',359.783
'0:21.313',360.314
'0:21.316',375.948
'0:21.320',405.885
'0:21.324',430.665
'0:21.328',423.672
'0:21.332',426.624
'0:21.336',454.939
'0:21.340',480.011
'0:21.344',458.981
'0:21.348',442.816
'0:21.352',430.399
'0:21.355',421.519
'0:21.359',503.728
'0:21.363',605.106
'0:21.367',578.146
'0:21.371',518.298
'0:21.375',421.785
'0:21.379',383.765
'0:21.383',375.682
'0:21.387',420.429
'0:21.391',456.03
'0:21.395',462.756
'0:21.398',464.644
'0:21.402',474.348
'0:21.406',468.153
'0:21.410',469.775
'0:21.414',491.338
'0:21.418',492.96
'0:21.422',504.286
'0:21.426',483.521
'0:21.430',500.51
'0:21.434',488.626
'0:21.438',505.881
'0:21.441',532.575
'0:21.445',527.736
'0:21.449',514.788
'0:21.453',536.085
'0:21.457',566.022
'0:21.461',544.433
'0:21.465',543.37
'0:21.469',530.953
'0:21.473',564.666
'0:21.477',606.994
'0:21.480',602.421
'0:21.484',559.535
'0:21.488',520.451
'0:21.492',534.197
'0:21.496',537.175
'0:21.500',561.688
'0:21.504',568.708
'0:21.508',565.198
'0:21.512',550.92
'0:21.516',569.798
'0:21.520',542.838
'0:21.523',564.134
'0:21.527',591.36
'0:21.531',609.413
'0:21.535',599.974
'0:21.539',576.79
'0:21.543',595.401
'0:21.547',648.497
'0:21.551',664.689
'0:21.555',645.811
'0:21.559',643.658
'0:21.563',628.024
'0:21.566',614.013
'0:21.570',598.087
'0:21.574',594.87
'0:21.578',591.36
'0:21.582',591.094
'0:21.586',578.146
'0:21.590',579.768
'0:21.594',591.626
'0:21.598',571.685
'0:21.602',557.381
'0:21.605',560.625
'0:21.609',559.801
'0:21.613',571.127
'0:21.617',567.91
'0:21.621',570.063
'0:21.625',604.84
'0:21.629',680.588
'0:21.633',799.222
'0:21.637',876.325
'0:21.641',979.831
'0:21.645',973.902
'0:21.648',884.142
'0:21.652',753.65
'0:21.656',726.159
'0:21.660',745.568
'0:21.664',746.1
'0:21.668',727.781
'0:21.672',673.569
'0:21.676',618.852
'0:21.680',571.127
'0:21.684',549.033
'0:21.688',588.116
'0:21.691',597.023
'0:21.695',581.39
'0:21.699',572.749
'0:21.703',565.464
'0:21.707',567.91
'0:21.711',575.461
'0:21.715',577.348
'0:21.719',570.861
'0:21.723',564.134
'0:21.727',565.198
'0:21.730',571.127
'0:21.734',558.205
'0:21.738',553.872
'0:21.742',562.247
'0:21.746',576.258
'0:21.750',597.023
'0:21.754',601.862
'0:21.758',600.799
'0:21.762',563.576
'0:21.766',545.523
'0:21.770',562.247
'0:21.773',578.412
'0:21.777',593.514
'0:21.781',592.424
'0:21.785',592.689
'0:21.789',592.982
'0:21.793',592.158
'0:21.797',606.169
'0:21.801',604.574
'0:21.805',605.372
'0:21.809',606.728
'0:21.813',621.271
'0:21.816',618.586
'0:21.820',633.129
'0:21.824',634.219
'0:21.828',635.841
'0:21.832',650.677
'0:21.836',647.433
'0:21.840',661.711
'0:21.844',662.801
'0:21.848',664.689
'0:21.852',664.423
'0:21.855',661.445
'0:21.859',659.025
'0:21.863',659.291
'0:21.867',645.546
'0:21.871',661.179
'0:21.875',672.771
'0:21.879',685.719
'0:21.883',687.341
'0:21.887',706.458
'0:21.891',706.192
'0:21.895',702.975
'0:21.898',699.997
'0:21.902',638.792
'0:21.906',565.198
'0:21.910',532.841
'0:21.914',506.971
'0:21.918',483.521
'0:21.922',455.737
'0:21.926',464.112
'0:21.930',463.554
'0:21.934',424.204
'0:21.938',388.63
'0:21.941',391.05
'0:21.945',394.293
'0:21.949',409.103
'0:21.953',420.163
'0:21.957',433.643
'0:21.961',452.254
'0:21.965',456.03
'0:21.969',471.929
'0:21.973',451.962
'0:21.977',434.44
'0:21.980',435.796
'0:21.984',436.886
'0:21.988',420.163
'0:21.992',433.909
'0:21.996',431.489
'0:22.000',432.553
'0:22.004',403.705
'0:22.008',342.793
'0:22.012',340.374
'0:22.016',378.633
'0:22.020',436.062
'0:22.023',457.359
'0:22.027',438.216
'0:22.031',472.726
'0:22.035',475.97
'0:22.039',434.999
'0:22.043',410.724
'0:22.047',390.784
'0:22.051',405.593
'0:22.055',391.315
'0:22.059',383.765
'0:22.063',375.948
'0:22.066',403.173
'0:22.070',417.185
'0:22.074',405.593
'0:22.078',400.222
'0:22.082',375.948
'0:22.086',385.652
'0:22.090',382.701
'0:22.094',418.009
'0:22.098',472.992
'0:22.102',480.543
'0:22.105',418.541
'0:22.109',345.744
'0:22.113',330.377
'0:22.117',386.742
'0:22.121',431.489
'0:22.125',469.217
'0:22.129',518.563
'0:22.133',386.45
'0:22.137',183.72
'0:22.141',175.371
'0:22.145',217.433
'0:22.148',267.311
'0:22.152',290.761
'0:22.156',311.234
'0:22.160',307.458
'0:22.164',301.263
'0:22.168',284.832
'0:22.172',305.597
'0:22.176',307.751
'0:22.180',305.039
'0:22.184',300.998
'0:22.188',331.201
'0:22.191',348.722
'0:22.195',336.864
'0:22.199',384.855
'0:22.203',364.09
'0:22.207',301.263
'0:22.211',289.937
'0:22.215',319.609
'0:22.219',281.855
'0:22.223',250.322
'0:22.227',254.629
'0:22.230',270.262
'0:22.234',327.691
'0:22.238',308.283
'0:22.242',253.007
'0:22.246',214.455
'0:22.250',194.249
'0:22.254',180.503
'0:22.258',174.574
'0:22.262',183.188
'0:22.266',209.35
'0:22.270',207.994
'0:22.273',197.758
'0:22.277',207.994
'0:22.281',228.493
'0:22.285',221.74
'0:22.289',239.527
'0:22.293',231.179
'0:22.297',193.424
'0:22.301',228.493
'0:22.305',341.703
'0:22.309',432.845
'0:22.313',587.319
'0:22.316',667.906
'0:22.320',556.025
'0:22.324',430.399
'0:22.328',421.253
'0:22.332',407.481
'0:22.336',349.52
'0:22.340',278.345
'0:22.344',224.425
'0:22.348',182.922
'0:22.352',180.503
'0:22.355',164.843
'0:22.359',141.658
'0:22.363',171.862
'0:22.367',181.832
'0:22.371',180.503
'0:22.375',134.134
'0:22.379',64.289
'0:22.383',46.767
'0:22.387',84.788
'0:22.391',78.593
'0:22.395',126.849
'0:22.398',137.351
'0:22.402',79.125
'0:22.406',78.593
'0:22.410',54.584
'0:22.414',90.983
'0:22.418',156.228
'0:22.422',149.502
'0:22.426',69.42
'0:22.430',9.04
'0:22.434',2.818
'0:22.438',18.186
'0:22.441',69.686
'0:22.445',124.696
'0:22.449',138.175
'0:22.453',106.084
'0:22.457',72.93
'0:22.461',101.511
'0:22.465',104.197
'0:22.469',74.551
'0:22.473',93.96
'0:22.477',148.678
'0:22.480',186.432
'0:22.484',164.843
'0:22.488',101.219
'0:22.492',105.818
'0:22.496',100.155
'0:22.500',97.177
'0:22.504',141.658
'0:22.508',162.423
'0:22.512',170.798
'0:22.516',135.729
'0:22.520',162.157
'0:22.523',185.342
'0:22.527',175.903
'0:22.531',189.383
'0:22.535',139.505
'0:22.539',161.892
'0:22.543',226.871
'0:22.547',232.535
'0:22.551',175.903
'0:22.555',149.768
'0:22.559',164.045
'0:22.563',156.228
'0:22.566',132.512
'0:22.570',98.799
'0:22.574',88.563
'0:22.578',128.471
'0:22.582',101.219
'0:22.586',52.431
'0:22.590',25.471
'0:22.594',-3.377
'0:22.598',-48.389
'0:22.602',-76.705
'0:22.605',-63.225
'0:22.609',-44.082
'0:22.613',-7.95
'0:22.617',-2.552
'0:22.621',-58.094
'0:22.625',-72.93
'0:22.629',-118.208
'0:22.633',-133.576
'0:22.637',-132.512
'0:22.641',-96.912
'0:22.645',-18.478
'0:22.648',96.646
'0:22.652',-50.809
'0:22.656',-189.649
'0:22.660',-219.587
'0:22.664',-198.024
'0:22.668',-130.89
'0:22.672',-66.469
'0:22.676',-51.101
'0:22.680',-69.42
'0:22.684',-105.553
'0:22.688',-137.085
'0:22.691',-160.27
'0:22.695',-166.199
'0:22.699',-138.175
'0:22.703',-124.961
'0:22.707',-136.819
'0:22.711',-125.759
'0:22.715',-133.31
'0:22.719',-106.882
'0:22.723',-93.136
'0:22.727',-72.664
'0:22.730',-61.603
'0:22.734',-83.99
'0:22.738',-133.842
'0:22.742',-165.401
'0:22.746',-196.136
'0:22.750',-207.197
'0:22.754',-201.241
'0:22.758',-171.33
'0:22.762',-152.453
'0:22.766',-177.791
'0:22.770',-200.975
'0:22.773',-182.125
'0:22.777',-174.015
'0:22.781',-170.798
'0:22.785',-175.637
'0:22.789',-197.2
'0:22.793',-180.503
'0:22.797',-129.269
'0:22.801',-157.85
'0:22.805',-217.965
'0:22.809',-188.851
'0:22.813',-181.3
'0:22.816',-228.759
'0:22.820',-235.22
'0:22.824',-169.177
'0:22.828',-100.421
'0:22.832',-137.617
'0:22.836',-250.322
'0:22.840',-282.679
'0:22.844',-276.191
'0:22.848',-267.843
'0:22.852',-242.505
'0:22.855',-207.994
'0:22.859',-188.32
'0:22.863',-191.829
'0:22.867',-211.77
'0:22.871',-221.208
'0:22.875',-208.792
'0:22.879',-191.537
'0:22.883',-160.801
'0:22.887',-115.789
'0:22.891',-156.228
'0:22.895',-202.863
'0:22.898',-231.179
'0:22.902',-267.577
'0:22.906',-290.23
'0:22.910',-317.189
'0:22.914',-287.784
'0:22.918',-238.464
'0:22.922',-269.465
'0:22.926',-329.313
'0:22.930',-354.119
'0:22.934',-334.976
'0:22.938',-309.904
'0:22.941',-290.23
'0:22.945',-295.334
'0:22.949',-300.998
'0:22.953',-284.008
'0:22.957',-216.343
'0:22.961',-105.818
'0:22.965',-30.602
'0:22.969',34.112
'0:22.973',73.196
'0:22.977',2.552
'0:22.980',-88.829
'0:22.984',-143.839
'0:22.988',-156.494
'0:22.992',-160.004
'0:22.996',-181.566
'0:23.000',-232.801
'0:23.004',-296.956
'0:23.008',-341.703
'0:23.012',-367.865
'0:23.016',-347.632
'0:23.020',-320.965
'0:23.023',-316.365
'0:23.027',-322.56
'0:23.031',-314.743
'0:23.035',-313.946
'0:23.039',-305.039
'0:23.043',-284.008
'0:23.047',-257.873
'0:23.051',-249.79
'0:23.055',-263.536
'0:23.059',-284.301
'0:23.063',-310.17
'0:23.066',-348.456
'0:23.070',-343.591
'0:23.074',-345.744
'0:23.078',-320.672
'0:23.082',-296.69
'0:23.086',-299.11
'0:23.090',-306.661
'0:23.094',-324.74
'0:23.098',-318.253
'0:23.102',-297.488
'0:23.105',-299.668
'0:23.109',-304.507
'0:23.113',-305.305
'0:23.117',-269.996
'0:23.121',-267.045
'0:23.125',-235.486
'0:23.129',-192.095
'0:23.133',-177.791
'0:23.137',-187.495
'0:23.141',-212.036
'0:23.145',-259.494
'0:23.148',-282.413
'0:23.152',-227.403
'0:23.156',-196.668
'0:23.160',-216.901
'0:23.164',-222.006
'0:23.168',-195.87
'0:23.172',-179.413
'0:23.176',-167.023
'0:23.180',-168.911
'0:23.184',-155.431
'0:23.188',-144.902
'0:23.191',-160.536
'0:23.195',-149.502
'0:23.199',-138.175
'0:23.203',-125.227
'0:23.207',-127.381
'0:23.211',-140.329
'0:23.215',-146.524
'0:23.219',-154.075
'0:23.223',-142.483
'0:23.227',-158.648
'0:23.230',-153.809
'0:23.234',-115.257
'0:23.238',-79.125
'0:23.242',-143.28
'0:23.246',-242.771
'0:23.250',-298.578
'0:23.254',-334.976
'0:23.258',-357.895
'0:23.262',-343.857
'0:23.266',-313.148
'0:23.270',-300.732
'0:23.273',-300.2
'0:23.277',-305.863
'0:23.281',-294.271
'0:23.285',-296.425
'0:23.289',-298.046
'0:23.293',-311.792
'0:23.297',-319.077
'0:23.301',-310.436
'0:23.305',-282.679
'0:23.309',-267.045
'0:23.313',-261.648
'0:23.316',-267.311
'0:23.320',-260.026
'0:23.324',-265.158
'0:23.328',-295.334
'0:23.332',-304.507
'0:23.336',-282.12
'0:23.340',-233.598
'0:23.344',-176.462
'0:23.348',-215.013
'0:23.352',-307.485
'0:23.355',-330.669
'0:23.359',-342.261
'0:23.363',-327.957
'0:23.367',-302.619
'0:23.371',-263.27
'0:23.375',-250.588
'0:23.379',-257.873
'0:23.383',-258.67
'0:23.387',-267.311
'0:23.391',-261.648
'0:23.395',-264.865
'0:23.398',-272.15
'0:23.402',-273.24
'0:23.406',-251.678
'0:23.410',-215.811
'0:23.414',-186.698
'0:23.418',-190.739
'0:23.422',-250.588
'0:23.426',-290.23
'0:23.430',-306.129
'0:23.434',-300.2
'0:23.438',-291.559
'0:23.441',-270.528
'0:23.445',-244.393
'0:23.449',-256.517
'0:23.453',-262.712
'0:23.457',-254.895
'0:23.461',-254.363
'0:23.465',-245.456
'0:23.469',-255.161
'0:23.473',-258.936
'0:23.477',-267.577
'0:23.480',-238.464
'0:23.484',-232.269
'0:23.488',-223.894
'0:23.492',-208.526
'0:23.496',-216.343
'0:23.500',-204.485
'0:23.504',-184.278
'0:23.508',-161.36
'0:23.512',-175.371
'0:23.516',-179.413
'0:23.520',-199.912
'0:23.523',-213.923
'0:23.527',-209.084
'0:23.531',-223.628
'0:23.535',-242.239
'0:23.539',-230.089
'0:23.543',-230.913
'0:23.547',-211.238
'0:23.551',-207.994
'0:23.555',-208.26
'0:23.559',-226.606
'0:23.563',-227.403
'0:23.566',-210.946
'0:23.570',-209.616
'0:23.574',-208.26
'0:23.578',-208.26
'0:23.582',-193.983
'0:23.586',-194.78
'0:23.590',-192.627
'0:23.594',-175.106
'0:23.598',-160.27
'0:23.602',-84.522
'0:23.605',22.52
'0:23.609',72.398
'0:23.613',144.902
'0:23.617',150.034
'0:23.621',102.043
'0:23.625',66.442
'0:23.629',46.502
'0:23.633',30.602
'0:23.637',-12.815
'0:23.641',-72.105
'0:23.645',-136.819
'0:23.648',-159.472
'0:23.652',-181.035
'0:23.656',-179.147
'0:23.660',-157.584
'0:23.664',-140.329
'0:23.668',-97.47
'0:23.672',-55.143
'0:23.676',-51.633
'0:23.680',-104.197
'0:23.684',-145.726
'0:23.688',-200.975
'0:23.691',-244.127
'0:23.695',-215.545
'0:23.699',-193.158
'0:23.703',-168.911
'0:23.707',-168.645
'0:23.711',-159.472
'0:23.715',-148.943
'0:23.719',-144.902
'0:23.723',-136.819
'0:23.727',-134.666
'0:23.730',-140.861
'0:23.734',-131.156
'0:23.738',-98.533
'0:23.742',-60.806
'0:23.746',-71.574
'0:23.750',-118.501
'0:23.754',-138.175
'0:23.758',-143.573
'0:23.762',-67.001
'0:23.766',43.55
'0:23.770',18.186
'0:23.773',-94.758
'0:23.777',-153.809
'0:23.781',-169.708
'0:23.785',-156.228
'0:23.789',-122.542
'0:23.793',-72.105
'0:23.797',-29.512
'0:23.801',-7.152
'0:23.805',-6.594
'0:23.809',-21.695
'0:23.813',-6.062
'0:23.816',2.287
'0:23.820',9.04
'0:23.824',25.737
'0:23.828',55.94
'0:23.832',100.953
'0:23.836',96.646
'0:23.840',78.327
'0:23.844',157.85
'0:23.848',178.881
'0:23.852',98.533
'0:23.855',11.991
'0:23.859',-20.632
'0:23.863',-18.186
'0:23.867',-54.052
'0:23.871',-52.989
'0:23.875',-55.674
'0:23.879',-52.431
'0:23.883',-79.125
'0:23.887',-98.799
'0:23.891',-102.575
'0:23.895',-91.807
'0:23.898',-86.144
'0:23.902',-92.339
'0:23.906',-112.013
'0:23.910',-57.03
'0:23.914',-34.378
'0:23.918',-101.245
'0:23.922',-190.473
'0:23.926',-226.871
'0:23.930',-203.953
'0:23.934',-129.8
'0:23.938',-67.266
'0:23.941',-110.657
'0:23.945',-180.503
'0:23.949',-205.575
'0:23.953',-208.526
'0:23.957',-202.597
'0:23.961',-164.869
'0:23.965',-135.464
'0:23.969',-141.127
'0:23.973',-156.228
'0:23.977',-134.666
'0:23.980',-117.145
'0:23.984',-151.389
'0:23.988',-168.645
'0:23.992',-168.645
'0:23.996',-152.453
'0:24.000',-152.187
'0:24.004',-136.022
'0:24.008',-135.729
'0:24.012',-135.198
'0:24.016',-134.666
'0:24.020',-72.93
'0:24.023',-75.083
'0:24.027',-133.044
'0:24.031',-188.585
'0:24.035',-191.005
'0:24.039',-187.495
'0:24.043',-177.791
'0:24.047',-154.075
'0:24.051',-111.482
'0:24.055',-95.848
'0:24.059',-134.932
'0:24.063',-169.177
'0:24.066',-165.135
'0:24.070',-176.993
'0:24.074',-177.791
'0:24.078',-167.289
'0:24.082',-169.708
'0:24.086',-165.667
'0:24.090',-144.902
'0:24.094',-114.725
'0:24.098',-134.932
'0:24.102',-149.768
'0:24.105',-176.462
'0:24.109',-174.574
'0:24.113',-194.78
'0:24.117',-183.454
'0:24.121',-183.188
'0:24.125',-162.423
'0:24.129',-143.839
'0:24.133',-161.094
'0:24.137',-178.881
'0:24.141',-163.779
'0:24.145',-147.88
'0:24.148',-146.258
'0:24.152',-144.37
'0:24.156',-144.37
'0:24.160',-130.625
'0:24.164',-116.32
'0:24.168',-99.358
'0:24.172',-96.114
'0:24.176',-125.227
'0:24.180',-141.127
'0:24.184',-129.8
'0:24.188',-117.942
'0:24.191',-130.89
'0:24.195',-124.137
'0:24.199',-154.341
'0:24.203',-220.384
'0:24.207',-240.086
'0:24.211',-258.138
'0:24.215',-225.781
'0:24.219',-208.526
'0:24.223',-191.005
'0:24.227',-190.473
'0:24.230',-205.841
'0:24.234',-174.84
'0:24.238',-176.727
'0:24.242',-159.738
'0:24.246',-126.583
'0:24.250',-33.288
'0:24.254',88.563
'0:24.258',183.188
'0:24.262',239.527
'0:24.266',172.686
'0:24.270',83.166
'0:24.273',40.838
'0:24.277',-21.961
'0:24.281',-54.318
'0:24.285',-73.727
'0:24.289',-97.177
'0:24.293',-135.464
'0:24.297',-179.413
'0:24.301',-197.758
'0:24.305',-189.383
'0:24.309',-167.023
'0:24.313',-170.24
'0:24.316',-177.259
'0:24.320',-178.881
'0:24.324',-172.952
'0:24.328',-152.187
'0:24.332',-154.341
'0:24.336',-174.574
'0:24.340',-159.738
'0:24.344',-141.685
'0:24.348',-138.175
'0:24.352',-137.351
'0:24.355',-154.872
'0:24.359',-125.759
'0:24.363',-95.848
'0:24.367',-77.769
'0:24.371',-103.931
'0:24.375',-147.322
'0:24.379',-181.832
'0:24.383',-204.751
'0:24.387',-238.995
'0:24.391',-218.789
'0:24.395',-199.912
'0:24.398',-185.342
'0:24.402',-172.952
'0:24.406',-172.686
'0:24.410',-184.012
'0:24.414',-180.769
'0:24.418',-168.086
'0:24.422',-142.217
'0:24.426',-126.849
'0:24.430',-120.096
'0:24.434',-114.433
'0:24.438',-101.245
'0:24.441',-77.503
'0:24.445',-110.126
'0:24.449',-55.408
'0:24.453',-82.368
'0:24.457',-160.536
'0:24.461',-56.738
'0:24.465',-5.796
'0:24.469',-156.228
'0:24.473',-227.137
'0:24.477',-179.944
'0:24.480',-161.094
'0:24.484',-177.525
'0:24.488',-174.015
'0:24.492',-176.993
'0:24.496',-176.727
'0:24.500',-204.219
'0:24.504',-206.638
'0:24.508',-208.526
'0:24.512',-181.3
'0:24.516',-192.627
'0:24.520',-245.19
'0:24.523',-294.005
'0:24.527',-302.354
'0:24.531',-267.311
'0:24.535',-231.71
'0:24.539',-230.647
'0:24.543',-210.946
'0:24.547',-250.588
'0:24.551',-340.081
'0:24.555',-473.285
'0:24.559',-521.807
'0:24.563',-517.207
'0:24.566',-505.084
'0:24.570',-464.91
'0:24.574',-429.336
'0:24.578',-421.785
'0:24.582',-460.071
'0:24.586',-464.91
'0:24.590',-447.92
'0:24.594',-447.123
'0:24.598',-436.062
'0:24.602',-454.674
'0:24.605',-445.767
'0:24.609',-432.287
'0:24.613',-416.122
'0:24.617',-417.478
'0:24.621',-417.185
'0:24.625',-348.456
'0:24.629',-309.639
'0:24.633',-321.762
'0:24.637',-390.518
'0:24.641',-494.581
'0:24.645',-543.901
'0:24.648',-520.185
'0:24.652',-510.215
'0:24.656',-494.289
'0:24.660',-492.428
'0:24.664',-489.982
'0:24.668',-484.319
'0:24.672',-477.326
'0:24.676',-446.591
'0:24.680',-427.448
'0:24.684',-437.684
'0:24.688',-446.033
'0:24.691',-456.827
'0:24.695',-445.235
'0:24.699',-427.182
'0:24.703',-420.695
'0:24.707',-412.08
'0:24.711',-391.581
'0:24.715',-395.889
'0:24.719',-376.214
'0:24.723',-399.956
'0:24.727',-407.215
'0:24.730',-405.061
'0:24.734',-380.813
'0:24.738',-423.407
'0:24.742',-472.461
'0:24.746',-510.215
'0:24.750',-529.89
'0:24.754',-543.104
'0:24.758',-537.706
