'0:00.000',61.872
'0:00.004',28.704
'0:00.008',6.618
'0:00.012',2.545
'0:00.016',-15.507
'0:00.020',-18.209
'0:00.023',-34.108
'0:00.027',-41.94
'0:00.031',-47.579
'0:00.035',-33.834
'0:00.039',-19.541
'0:00.043',-17.935
'0:00.047',-24.944
'0:00.051',-30.858
'0:00.055',-33.285
'0:00.059',-18.992
'0:00.063',-17.935
'0:00.066',-9.829
'0:00.070',-16.055
'0:00.074',-17.113
'0:00.078',-16.839
'0:00.082',-16.055
'0:00.086',-10.377
'0:00.090',-18.209
'0:00.094',-2.31
'0:00.098',-16.055
'0:00.102',-13.353
'0:00.105',-9.555
'0:00.109',-19.815
'0:00.113',-19.541
'0:00.117',-14.959
'0:00.121',-27.646
'0:00.125',-40.021
'0:00.129',-36.262
'0:00.133',-37.867
'0:00.137',-31.954
'0:00.141',-26.55
'0:00.145',-23.574
'0:00.148',-21.42
'0:00.152',-22.791
'0:00.156',-30.583
'0:00.160',-39.512
'0:00.164',-37.867
'0:00.168',-39.238
'0:00.172',-41.391
'0:00.176',-46.521
'0:00.180',-37.358
'0:00.184',-52.434
'0:00.188',-39.747
'0:00.191',-43.271
'0:00.195',-47.03
'0:00.199',-51.103
'0:00.203',-65.631
'0:00.207',-55.959
'0:00.211',-61.872
'0:00.215',-48.949
'0:00.219',-65.631
'0:00.223',-62.694
'0:00.227',-71.035
'0:00.230',-63.477
'0:00.234',-66.453
'0:00.238',-64.848
'0:00.242',-60.775
'0:00.246',-54.862
'0:00.250',-64.848
'0:00.254',-66.453
'0:00.258',-63.203
'0:00.262',-74.794
'0:00.266',-85.328
'0:00.270',-81.295
'0:00.273',-84.232
'0:00.277',-79.415
'0:00.281',-73.463
'0:00.285',-68.881
'0:00.289',-81.804
'0:00.293',-83.723
'0:00.297',-78.319
'0:00.301',-88.03
'0:00.305',-83.997
'0:00.309',-82.626
'0:00.313',-85.328
'0:00.316',-77.77
'0:00.320',-70.487
'0:00.324',-67.55
'0:00.328',-67.276
'0:00.332',-69.704
'0:00.336',-76.439
'0:00.340',-83.449
'0:00.344',-81.804
'0:00.348',-84.232
'0:00.352',-56.742
'0:00.355',-46.756
'0:00.359',-50.281
'0:00.363',-46.247
'0:00.367',-50.829
'0:00.371',-57.29
'0:00.375',-62.42
'0:00.379',-49.184
'0:00.383',-30.858
'0:00.387',-20.911
'0:00.391',4.464
'0:00.395',16.839
'0:00.398',16.839
'0:00.402',20.911
'0:00.406',28.43
'0:00.410',18.992
'0:00.414',16.564
'0:00.418',18.483
'0:00.422',6.618
'0:00.426',-2.819
'0:00.430',-28.978
'0:00.434',-31.68
'0:00.438',-29.8
'0:00.441',-41.666
'0:00.445',-66.179
'0:00.449',-76.165
'0:00.453',-80.472
'0:00.457',-94.491
'0:00.461',-88.813
'0:00.465',-82.9
'0:00.469',-78.867
'0:00.473',-81.804
'0:00.477',-92.064
'0:00.480',-85.876
'0:00.484',-82.352
'0:00.488',-80.747
'0:00.492',-82.9
'0:00.496',-90.732
'0:00.500',-83.174
'0:00.504',-66.179
'0:00.508',-67.276
'0:00.512',-68.059
'0:00.516',-72.641
'0:00.520',-48.949
'0:00.523',-50.006
'0:00.527',-52.16
'0:00.531',-21.42
'0:00.535',67.002
'0:00.539',229.278
'0:00.543',369.468
'0:00.547',437.958
'0:00.551',295.34
'0:00.555',7.401
'0:00.559',-225.519
'0:00.563',-536.365
'0:00.566',-823.481
'0:00.570',-915.937
'0:00.574',-838.049
'0:00.578',-681.137
'0:00.582',-518.039
'0:00.586',-357.094
'0:00.590',-182.639
'0:00.594',-79.65
'0:00.598',-40.569
'0:00.602',-33.285
'0:00.605',-7.949
'0:00.609',11.474
'0:00.613',31.954
'0:00.617',27.098
'0:00.621',20.637
'0:00.625',25.728
'0:00.629',55.685
'0:00.633',75.068
'0:00.637',59.992
'0:00.641',58.112
'0:00.645',60.266
'0:00.648',68.333
'0:00.652',86.934
'0:00.656',91.515
'0:00.660',77.222
'0:00.664',94.491
'0:00.668',98.016
'0:00.672',114.972
'0:00.676',107.179
'0:00.680',96.645
'0:00.684',97.193
'0:00.688',111.761
'0:00.691',126.054
'0:00.695',136.823
'0:00.699',130.636
'0:00.703',131.967
'0:00.707',143.284
'0:00.711',154.327
'0:00.715',166.192
'0:00.719',163.49
'0:00.723',166.192
'0:00.727',190.471
'0:00.730',198.303
'0:00.734',211.5
'0:00.738',212.557
'0:00.742',216.355
'0:00.746',237.932
'0:00.750',242.788
'0:00.754',256.533
'0:00.758',276.191
'0:00.762',280.772
'0:00.766',301.253
'0:00.770',304.503
'0:00.773',318.248
'0:00.777',339.002
'0:00.781',344.68
'0:00.785',348.988
'0:00.789',366.766
'0:00.793',378.906
'0:00.797',369.742
'0:00.801',378.122
'0:00.805',396.449
'0:00.809',410.194
'0:00.813',406.67
'0:00.816',401.579
'0:00.820',396.175
'0:00.824',381.059
'0:00.828',360.579
'0:00.832',324.709
'0:00.836',289.662
'0:00.840',253.283
'0:00.844',221.211
'0:00.848',197.48
'0:00.852',160.279
'0:00.855',127.111
'0:00.859',93.943
'0:00.863',61.872
'0:00.867',51.103
'0:00.871',27.372
'0:00.875',27.372
'0:00.879',13.079
'0:00.883',14.411
'0:00.887',-12.805
'0:00.891',-6.07
'0:00.895',-7.127
'0:00.898',-19.266
'0:00.902',-31.132
'0:00.906',-27.372
'0:00.910',-24.67
'0:00.914',-26.002
'0:00.918',-19.266
'0:00.922',-28.704
'0:00.926',-10.377
'0:00.930',-10.651
'0:00.934',-11.983
'0:00.938',-17.935
'0:00.941',-10.103
'0:00.945',-25.219
'0:00.949',-26.824
'0:00.953',-14.137
'0:00.957',-19.541
'0:00.961',-9.046
'0:00.965',-23.065
'0:00.969',-10.925
'0:00.973',-15.781
'0:00.977',-19.815
'0:00.980',-23.065
'0:00.984',-21.146
'0:00.988',-27.646
'0:00.992',-33.285
'0:00.996',-36.262
'0:01.000',-22.242
'0:01.004',-20.911
'0:01.008',-27.921
'0:01.012',-48.949
'0:01.016',-35.439
'0:01.020',-53.531
'0:01.023',-36.262
'0:01.027',-44.877
'0:01.031',-35.165
'0:01.035',-20.911
'0:01.039',-36.262
'0:01.043',-33.011
'0:01.047',-42.997
'0:01.051',-52.16
'0:01.055',-38.415
'0:01.059',-52.16
'0:01.063',-31.954
'0:01.066',-42.723
'0:01.070',-52.708
'0:01.074',-69.704
'0:01.078',-65.905
'0:01.082',-63.477
'0:01.086',-59.992
'0:01.090',-70.487
'0:01.094',-54.314
'0:01.098',-49.732
'0:01.102',-61.598
'0:01.105',-57.838
'0:01.109',-70.487
'0:01.113',-71.583
'0:01.117',-65.396
'0:01.121',-75.891
'0:01.125',-57.29
'0:01.129',-56.194
'0:01.133',-41.94
'0:01.137',-48.949
'0:01.141',-56.194
'0:01.145',-69.978
'0:01.148',-56.468
'0:01.152',-61.049
'0:01.156',-65.631
'0:01.160',-69.704
'0:01.164',-52.16
'0:01.168',-58.112
'0:01.172',-62.42
'0:01.176',-64.848
'0:01.180',-51.886
'0:01.184',-36.262
'0:01.188',-43.271
'0:01.191',-46.756
'0:01.195',-32.228
'0:01.199',-34.656
'0:01.203',-34.656
'0:01.207',-11.474
'0:01.211',-2.036
'0:01.215',-17.113
'0:01.219',-14.959
'0:01.223',-14.685
'0:01.227',-11.983
'0:01.230',10.377
'0:01.234',27.098
'0:01.238',48.401
'0:01.242',51.612
'0:01.246',54.588
'0:01.250',58.622
'0:01.254',58.112
'0:01.258',64.574
'0:01.262',53.766
'0:01.266',24.944
'0:01.270',11.709
'0:01.273',-6.618
'0:01.277',-16.055
'0:01.281',-10.377
'0:01.285',-23.848
'0:01.289',-37.593
'0:01.293',-54.862
'0:01.297',-62.968
'0:01.301',-73.189
'0:01.305',-71.857
'0:01.309',-72.131
'0:01.313',-57.838
'0:01.316',-48.401
'0:01.320',-39.747
'0:01.324',-53.531
'0:01.328',-54.588
'0:01.332',-58.112
'0:01.336',-64.3
'0:01.340',-54.588
'0:01.344',-37.593
'0:01.348',-25.219
'0:01.352',-28.156
'0:01.355',-30.583
'0:01.359',-19.266
'0:01.363',-20.089
'0:01.367',-41.117
'0:01.371',-43.819
'0:01.375',30.583
'0:01.379',193.956
'0:01.383',394.295
'0:01.387',535.817
'0:01.391',534.212
'0:01.395',268.398
'0:01.398',-28.704
'0:01.402',-334.421
'0:01.406',-698.367
'0:01.410',-896.279
'0:01.414',-876.856
'0:01.418',-758.242
'0:01.422',-580.85
'0:01.426',-385.641
'0:01.430',-187.221
'0:01.434',-59.444
'0:01.438',-5.521
'0:01.441',3.642
'0:01.445',31.954
'0:01.449',56.742
'0:01.453',82.626
'0:01.457',91.789
'0:01.461',89.087
'0:01.465',83.997
'0:01.469',88.03
'0:01.473',110.664
'0:01.477',136.823
'0:01.480',122.53
'0:01.484',135.217
'0:01.488',135.452
'0:01.492',139.525
'0:01.496',151.899
'0:01.500',140.582
'0:01.504',152.721
'0:01.508',165.135
'0:01.512',167.015
'0:01.516',182.365
'0:01.520',174.846
'0:01.523',171.048
'0:01.527',180.485
'0:01.531',194.778
'0:01.535',195.053
'0:01.539',192.351
'0:01.543',189.923
'0:01.547',195.875
'0:01.551',206.37
'0:01.555',223.365
'0:01.559',223.913
'0:01.563',239.538
'0:01.566',243.297
'0:01.570',251.677
'0:01.574',268.398
'0:01.578',286.999
'0:01.582',303.446
'0:01.586',306.657
'0:01.590',313.666
'0:01.594',330.387
'0:01.598',334.147
'0:01.602',351.69
'0:01.605',353.844
'0:01.609',374.324
'0:01.613',390.497
'0:01.617',396.723
'0:01.621',401.031
'0:01.625',417.987
'0:01.629',419.083
'0:01.633',419.083
'0:01.637',427.972
'0:01.641',433.102
'0:01.645',432.828
'0:01.648',432.28
'0:01.652',431.771
'0:01.656',426.093
'0:01.660',417.478
'0:01.664',416.655
'0:01.668',412.896
'0:01.672',395.627
'0:01.676',361.676
'0:01.680',309.359
'0:01.684',291.032
'0:01.688',250.032
'0:01.691',229.826
'0:01.695',198.029
'0:01.699',165.135
'0:01.703',132.241
'0:01.707',120.376
'0:01.711',112.035
'0:01.715',96.919
'0:01.719',84.506
'0:01.723',85.328
'0:01.727',71.309
'0:01.730',76.987
'0:01.734',62.42
'0:01.738',68.607
'0:01.742',55.136
'0:01.746',55.959
'0:01.750',58.347
'0:01.754',59.17
'0:01.758',67.785
'0:01.762',72.366
'0:01.766',57.016
'0:01.770',58.347
'0:01.773',73.189
'0:01.777',66.179
'0:01.781',73.737
'0:01.785',59.17
'0:01.789',73.463
'0:01.793',70.213
'0:01.797',80.747
'0:01.801',90.184
'0:01.805',91.789
'0:01.809',73.463
'0:01.813',85.876
'0:01.816',79.924
'0:01.820',74.794
'0:01.824',61.598
'0:01.828',57.564
'0:01.832',67.002
'0:01.836',61.324
'0:01.840',59.444
'0:01.844',78.593
'0:01.848',72.131
'0:01.852',65.357
'0:01.855',62.146
'0:01.859',60.775
'0:01.863',62.968
'0:01.867',55.136
'0:01.871',63.477
'0:01.875',60.54
'0:01.879',61.324
'0:01.883',48.949
'0:01.887',55.685
'0:01.891',60.775
'0:01.895',57.838
'0:01.898',61.598
'0:01.902',51.338
'0:01.906',56.468
'0:01.910',58.896
'0:01.914',55.685
'0:01.918',61.598
'0:01.922',68.333
'0:01.926',72.131
'0:01.930',58.112
'0:01.934',55.685
'0:01.938',62.146
'0:01.941',52.983
'0:01.945',56.468
'0:01.949',56.742
'0:01.953',53.531
'0:01.957',45.973
'0:01.961',54.588
'0:01.965',40.843
'0:01.969',39.747
'0:01.973',35.987
'0:01.977',29.526
'0:01.980',54.862
'0:01.984',55.959
'0:01.988',69.429
'0:01.992',66.453
'0:01.996',62.694
'0:02.000',57.564
'0:02.004',57.838
'0:02.008',67.785
'0:02.012',63.203
'0:02.016',61.598
'0:02.020',59.718
'0:02.023',75.068
'0:02.027',81.569
'0:02.031',91.789
'0:02.035',92.338
'0:02.039',78.319
'0:02.043',94.217
'0:02.047',96.645
'0:02.051',88.578
'0:02.055',91.241
'0:02.059',110.664
'0:02.063',110.39
'0:02.066',127.934
'0:02.070',134.121
'0:02.074',152.447
'0:02.078',158.674
'0:02.082',145.438
'0:02.086',146.534
'0:02.090',133.298
'0:02.094',149.471
'0:02.098',125.78
'0:02.102',131.419
'0:02.105',115.52
'0:02.109',99.895
'0:02.113',99.347
'0:02.117',77.222
'0:02.121',53.257
'0:02.125',37.593
'0:02.129',49.458
'0:02.133',61.049
'0:02.137',57.564
'0:02.141',39.512
'0:02.145',41.391
'0:02.148',33.56
'0:02.152',26.276
'0:02.156',24.122
'0:02.160',39.512
'0:02.164',41.117
'0:02.168',48.401
'0:02.172',56.468
'0:02.176',55.136
'0:02.180',57.016
'0:02.184',44.093
'0:02.188',49.184
'0:02.191',38.689
'0:02.195',37.593
'0:02.199',41.391
'0:02.203',29.526
'0:02.207',64.574
'0:02.211',159.457
'0:02.215',280.224
'0:02.219',444.693
'0:02.223',520.467
'0:02.227',473.554
'0:02.230',249.523
'0:02.234',10.377
'0:02.238',-234.682
'0:02.242',-541.495
'0:02.246',-665.748
'0:02.250',-652.551
'0:02.254',-569.807
'0:02.258',-425.544
'0:02.262',-316.094
'0:02.266',-157.577
'0:02.270',-43.271
'0:02.273',27.921
'0:02.277',50.555
'0:02.281',66.453
'0:02.285',91.515
'0:02.289',87.756
'0:02.293',92.886
'0:02.297',99.621
'0:02.301',129.813
'0:02.305',153.27
'0:02.309',134.943
'0:02.313',111.761
'0:02.316',118.77
'0:02.320',113.914
'0:02.324',119.279
'0:02.328',147.866
'0:02.332',140.308
'0:02.336',150.019
'0:02.340',147.866
'0:02.344',152.721
'0:02.348',147.043
'0:02.352',154.327
'0:02.355',148.688
'0:02.359',163.764
'0:02.363',152.721
'0:02.367',162.433
'0:02.371',168.072
'0:02.375',178.332
'0:02.379',163.764
'0:02.383',170.774
'0:02.387',178.057
'0:02.391',165.683
'0:02.395',176.452
'0:02.398',194.778
'0:02.402',216.904
'0:02.406',224.148
'0:02.410',228.495
'0:02.414',224.696
'0:02.418',243.297
'0:02.422',248.427
'0:02.426',254.614
'0:02.430',289.427
'0:02.434',316.094
'0:02.438',321.224
'0:02.441',330.661
'0:02.445',351.964
'0:02.449',351.416
'0:02.453',361.676
'0:02.457',353.021
'0:02.461',363.281
'0:02.465',367.04
'0:02.469',380.002
'0:02.473',389.44
'0:02.477',383.213
'0:02.480',395.627
'0:02.484',398.603
'0:02.488',393.747
'0:02.492',387.012
'0:02.496',397.506
'0:02.500',378.906
'0:02.504',351.69
'0:02.508',330.387
'0:02.512',289.936
'0:02.516',252.46
'0:02.520',219.057
'0:02.523',191.019
'0:02.527',167.289
'0:02.531',141.678
'0:02.535',121.433
'0:02.539',106.083
'0:02.543',78.867
'0:02.547',70.213
'0:02.551',58.622
'0:02.555',38.689
'0:02.559',26.276
'0:02.563',31.406
'0:02.566',35.987
'0:02.570',38.964
'0:02.574',36.81
'0:02.578',27.372
'0:02.582',18.483
'0:02.586',36.536
'0:02.590',20.363
'0:02.594',18.992
'0:02.598',27.921
'0:02.602',19.541
'0:02.605',21.146
'0:02.609',19.541
'0:02.613',17.113
'0:02.617',27.098
'0:02.621',35.987
'0:02.625',37.593
'0:02.629',50.555
'0:02.633',47.304
'0:02.637',28.156
'0:02.641',23.848
'0:02.645',23.574
'0:02.648',16.564
'0:02.652',27.921
'0:02.656',26.276
'0:02.660',9.555
'0:02.664',10.925
'0:02.668',16.564
'0:02.672',8.772
'0:02.676',8.772
'0:02.680',10.925
'0:02.684',12.257
'0:02.688',0.666
'0:02.691',7.401
'0:02.695',-8.498
'0:02.699',-4.19
'0:02.703',-2.036
'0:02.707',0.392
'0:02.711',-10.377
'0:02.715',-9.32
'0:02.719',11.983
'0:02.723',-1.488
'0:02.727',1.488
'0:02.730',-10.377
'0:02.734',-10.103
'0:02.738',-4.19
'0:02.742',-16.055
'0:02.746',-13.627
'0:02.750',-11.748
'0:02.754',-27.921
'0:02.758',-34.93
'0:02.762',-29.526
'0:02.766',-45.151
'0:02.770',-60.54
'0:02.773',-45.151
'0:02.777',-36.81
'0:02.781',-29.8
'0:02.785',-43.545
'0:02.789',-27.921
'0:02.793',-30.858
'0:02.797',-36.81
'0:02.801',-27.372
'0:02.805',-41.666
'0:02.809',-28.704
'0:02.813',-32.737
'0:02.816',-52.708
'0:02.820',-40.569
'0:02.824',-40.569
'0:02.828',-46.247
'0:02.832',-50.281
'0:02.836',-52.434
'0:02.840',-55.136
'0:02.844',-54.862
'0:02.848',-47.03
'0:02.852',-37.084
'0:02.855',-22.517
'0:02.859',-21.968
'0:02.863',-19.815
'0:02.867',-29.252
'0:02.871',-37.084
'0:02.875',-38.689
'0:02.879',-37.358
'0:02.883',-34.93
'0:02.887',-14.137
'0:02.891',7.127
'0:02.895',22.242
'0:02.898',27.921
'0:02.902',17.387
'0:02.906',21.146
'0:02.910',7.127
'0:02.914',20.637
'0:02.918',11.2
'0:02.922',-12.257
'0:02.926',-39.238
'0:02.930',-55.685
'0:02.934',-46.247
'0:02.938',-40.569
'0:02.941',-45.425
'0:02.945',-69.155
'0:02.949',-85.054
'0:02.953',-93.669
'0:02.957',-120.65
'0:02.961',-108.785
'0:02.965',-102.323
'0:02.969',-103.655
'0:02.973',-110.39
'0:02.977',-118.496
'0:02.980',-122.255
'0:02.984',-117.4
'0:02.988',-120.65
'0:02.992',-127.385
'0:02.996',-117.948
'0:03.000',-121.198
'0:03.004',-116.068
'0:03.008',-105.025
'0:03.012',-112.544
'0:03.016',-101.775
'0:03.020',-103.107
'0:03.023',-82.9
'0:03.027',-89.362
'0:03.031',-50.281
'0:03.035',52.708
'0:03.039',190.745
'0:03.043',307.479
'0:03.047',295.614
'0:03.051',128.991
'0:03.055',-151.899
'0:03.059',-368.411
'0:03.063',-638.806
'0:03.066',-827.789
'0:03.070',-879.009
'0:03.074',-834.25
'0:03.078',-685.171
'0:03.082',-563.307
'0:03.086',-421.511
'0:03.090',-272.706
'0:03.094',-189.14
'0:03.098',-159.183
'0:03.102',-144.89
'0:03.105',-121.981
'0:03.109',-110.116
'0:03.113',-107.962
'0:03.117',-107.179
'0:03.121',-123.626
'0:03.125',-104.203
'0:03.129',-96.919
'0:03.133',-79.415
'0:03.137',-89.636
'0:03.141',-86.934
'0:03.145',-101.227
'0:03.148',-97.468
'0:03.152',-81.804
'0:03.156',-90.458
'0:03.160',-99.895
'0:03.164',-98.016
'0:03.168',-82.9
'0:03.172',-69.704
'0:03.176',-75.068
'0:03.180',-79.924
'0:03.184',-78.319
'0:03.188',-67.55
'0:03.191',-56.742
'0:03.195',-59.992
'0:03.199',-61.324
'0:03.203',-43.819
'0:03.207',-51.886
'0:03.211',-42.449
'0:03.215',-44.093
'0:03.219',-43.545
'0:03.223',-26.002
'0:03.227',-20.637
'0:03.230',2.545
'0:03.234',17.935
'0:03.238',21.694
'0:03.242',25.493
'0:03.246',44.877
'0:03.250',64.026
'0:03.254',78.867
'0:03.258',86.151
'0:03.262',107.962
'0:03.266',109.842
'0:03.270',126.837
'0:03.273',140.856
'0:03.277',149.471
'0:03.281',172.928
'0:03.285',189.923
'0:03.289',204.49
'0:03.293',203.119
'0:03.297',199.086
'0:03.301',207.74
'0:03.305',206.37
'0:03.309',217.961
'0:03.313',231.158
'0:03.316',213.379
'0:03.320',195.053
'0:03.324',178.606
'0:03.328',184.793
'0:03.332',147.043
'0:03.336',101.501
'0:03.340',71.309
'0:03.344',37.084
'0:03.348',-8.498
'0:03.352',-32.228
'0:03.355',-30.858
'0:03.359',-59.444
'0:03.363',-89.362
'0:03.367',-117.948
'0:03.371',-129.265
'0:03.375',-145.986
'0:03.379',-140.856
'0:03.383',-137.371
'0:03.387',-134.669
'0:03.391',-146.26
'0:03.395',-161.336
'0:03.398',-169.991
'0:03.402',-151.39
'0:03.406',-151.899
'0:03.410',-148.688
'0:03.414',-145.986
'0:03.418',-151.899
'0:03.422',-147.866
'0:03.426',-149.745
'0:03.430',-149.51
'0:03.434',-147.592
'0:03.438',-135.726
'0:03.441',-129.813
'0:03.445',-147.082
'0:03.449',-148.14
'0:03.453',-163.529
'0:03.457',-136.274
'0:03.461',-145.438
'0:03.465',-145.438
'0:03.469',-131.693
'0:03.473',-133.063
'0:03.477',-136
'0:03.480',-141.404
'0:03.484',-157.577
'0:03.488',-147.317
'0:03.492',-151.664
'0:03.496',-152.995
'0:03.500',-155.149
'0:03.504',-154.601
'0:03.508',-147.592
'0:03.512',-153.27
'0:03.516',-153.27
'0:03.520',-152.447
'0:03.523',-152.173
'0:03.527',-147.082
'0:03.531',-139.251
'0:03.535',-138.428
'0:03.539',-150.019
'0:03.543',-163.255
'0:03.547',-160.827
'0:03.551',-172.693
'0:03.555',-171.87
'0:03.559',-165.409
'0:03.563',-161.611
'0:03.566',-144.38
'0:03.570',-157.577
'0:03.574',-155.697
'0:03.578',-162.707
'0:03.582',-158.399
'0:03.586',-159.183
'0:03.590',-158.674
'0:03.594',-141.678
'0:03.598',-146.808
'0:03.602',-154.875
'0:03.605',-155.423
'0:03.609',-158.399
'0:03.613',-144.38
'0:03.617',-147.592
'0:03.621',-152.173
'0:03.625',-136.274
'0:03.629',-142.736
'0:03.633',-145.438
'0:03.637',-146.534
'0:03.641',-149.236
'0:03.645',-134.669
'0:03.648',-143.284
'0:03.652',-146.534
'0:03.656',-161.336
'0:03.660',-146.534
'0:03.664',-133.847
'0:03.668',-128.717
'0:03.672',-116.616
'0:03.676',-113.366
'0:03.680',-111.761
'0:03.684',-113.64
'0:03.688',-111.212
'0:03.691',-102.597
'0:03.695',-68.333
'0:03.699',-48.949
'0:03.703',-31.954
'0:03.707',-28.704
'0:03.711',-21.968
'0:03.715',-20.363
'0:03.719',-15.233
'0:03.723',-28.978
'0:03.727',-42.175
'0:03.730',-53.766
'0:03.734',-69.429
'0:03.738',-78.593
'0:03.742',-91.006
'0:03.746',-89.91
'0:03.750',-103.929
'0:03.754',-118.77
'0:03.758',-125.232
'0:03.762',-136.274
'0:03.766',-137.097
'0:03.770',-153.27
'0:03.773',-136.823
'0:03.777',-126.563
'0:03.781',-134.943
'0:03.785',-134.121
'0:03.789',-120.65
'0:03.793',-123.078
'0:03.797',-126.289
'0:03.801',-115.794
'0:03.805',-131.693
'0:03.809',-120.376
'0:03.813',-109.059
'0:03.816',-111.761
'0:03.820',-113.366
'0:03.824',-112.035
'0:03.828',-104.203
'0:03.832',-110.938
'0:03.836',-111.761
'0:03.840',-64.848
'0:03.844',58.622
'0:03.848',248.701
'0:03.852',384.584
'0:03.855',430.126
'0:03.859',230.923
'0:03.863',-88.03
'0:03.867',-365.435
'0:03.871',-717.516
'0:03.875',-994.921
'0:03.879',-1032.397
'0:03.883',-922.946
'0:03.887',-760.67
'0:03.891',-587.312
'0:03.895',-398.329
'0:03.898',-230.923
'0:03.902',-142.736
'0:03.906',-116.851
'0:03.910',-119.828
'0:03.914',-99.073
'0:03.918',-51.886
'0:03.922',-45.973
'0:03.926',-34.108
'0:03.930',-21.694
'0:03.934',-4.464
'0:03.938',-4.19
'0:03.941',5.521
'0:03.945',16.839
'0:03.949',-5.796
'0:03.953',10.651
'0:03.957',26.55
'0:03.961',21.694
'0:03.965',19.266
'0:03.969',27.372
'0:03.973',39.512
'0:03.977',40.021
'0:03.980',39.512
'0:03.984',38.689
'0:03.988',58.896
'0:03.992',67.55
'0:03.996',69.704
'0:04.000',73.463
'0:04.004',74.011
'0:04.008',75.617
'0:04.012',81.295
'0:04.016',83.174
'0:04.020',105.025
'0:04.023',122.255
'0:04.027',107.688
'0:04.031',113.366
'0:04.035',114.698
'0:04.039',136
'0:04.043',138.154
'0:04.047',155.423
'0:04.051',159.183
'0:04.055',176.178
'0:04.059',199.086
'0:04.063',202.884
'0:04.066',204.49
'0:04.070',222.268
'0:04.074',237.11
'0:04.078',245.451
'0:04.082',252.186
'0:04.086',253.831
'0:04.090',268.633
'0:04.094',281.321
'0:04.098',291.306
'0:04.102',300.744
'0:04.105',302.623
'0:04.109',299.647
'0:04.113',295.614
'0:04.117',290.484
'0:04.121',300.744
'0:04.125',301.527
'0:04.129',281.595
'0:04.133',278.07
'0:04.137',242.514
'0:04.141',207.192
'0:04.145',175.904
'0:04.148',136.823
'0:04.152',114.424
'0:04.156',79.65
'0:04.160',47.03
'0:04.164',17.113
'0:04.168',-8.223
'0:04.172',-33.011
'0:04.176',-51.103
'0:04.180',-65.396
'0:04.184',-78.593
'0:04.188',-73.737
'0:04.191',-83.997
'0:04.195',-85.054
'0:04.199',-96.097
'0:04.203',-107.688
'0:04.207',-104.477
'0:04.211',-102.323
'0:04.215',-103.381
'0:04.219',-111.212
'0:04.223',-104.751
'0:04.227',-118.77
'0:04.230',-118.496
'0:04.234',-120.65
'0:04.238',-127.111
'0:04.242',-118.77
'0:04.246',-117.674
'0:04.250',-119.553
'0:04.254',-136.823
'0:04.258',-125.506
'0:04.262',-117.4
'0:04.266',-133.063
'0:04.270',-119.279
'0:04.273',-121.981
'0:04.277',-125.78
'0:04.281',-130.361
'0:04.285',-130.087
'0:04.289',-135.491
'0:04.293',-139.251
'0:04.297',-141.678
'0:04.301',-128.991
'0:04.305',-128.991
'0:04.309',-120.102
'0:04.313',-139.799
'0:04.316',-140.073
'0:04.320',-141.953
'0:04.324',-127.659
'0:04.328',-121.707
'0:04.332',-125.78
'0:04.336',-123.352
'0:04.340',-123.078
'0:04.344',-124.683
'0:04.348',-136.549
'0:04.352',-157.851
'0:04.355',-155.149
'0:04.359',-138.702
'0:04.363',-140.582
'0:04.367',-136.549
'0:04.371',-142.227
'0:04.375',-138.976
'0:04.379',-152.173
'0:04.383',-152.995
'0:04.387',-151.39
'0:04.391',-144.655
'0:04.395',-156.755
'0:04.398',-134.669
'0:04.402',-150.019
'0:04.406',-164.861
'0:04.410',-144.655
'0:04.414',-158.909
'0:04.418',-150.293
'0:04.422',-162.433
'0:04.426',-162.433
'0:04.430',-161.611
'0:04.434',-145.438
'0:04.438',-135.491
'0:04.441',-143.832
'0:04.445',-142.736
'0:04.449',-144.38
'0:04.453',-131.145
'0:04.457',-136
'0:04.461',-140.856
'0:04.465',-139.525
'0:04.469',-128.717
'0:04.473',-133.298
'0:04.477',-135.726
'0:04.480',-122.255
'0:04.484',-106.357
'0:04.488',-113.64
'0:04.492',-117.4
'0:04.496',-102.597
'0:04.500',-74.011
'0:04.504',-43.545
'0:04.508',-50.281
'0:04.512',-36.536
'0:04.516',-21.146
'0:04.520',-39.512
'0:04.523',-54.862
'0:04.527',-32.737
'0:04.531',-40.021
'0:04.535',-70.487
'0:04.539',-82.9
'0:04.543',-114.189
'0:04.547',-96.919
'0:04.551',-108.785
'0:04.555',-121.472
'0:04.559',-128.991
'0:04.563',-157.577
'0:04.566',-174.298
'0:04.570',-158.399
'0:04.574',-158.399
'0:04.578',-147.082
'0:04.582',-154.875
'0:04.586',-154.875
'0:04.590',-157.577
'0:04.594',-159.457
'0:04.598',-147.317
'0:04.602',-137.645
'0:04.605',-137.371
'0:04.609',-140.856
'0:04.613',-127.659
'0:04.617',-131.419
'0:04.621',-135.217
'0:04.625',-134.121
'0:04.629',-109.333
'0:04.633',-114.972
'0:04.637',-130.87
'0:04.641',-145.712
'0:04.645',-83.997
'0:04.648',72.131
'0:04.652',264.325
'0:04.656',443.597
'0:04.660',494.308
'0:04.664',294.243
'0:04.668',21.42
'0:04.672',-272.431
'0:04.676',-641.234
'0:04.680',-862.837
'0:04.684',-890.601
'0:04.688',-816.198
'0:04.691',-680.589
'0:04.695',-506.957
'0:04.699',-345.229
'0:04.703',-200.457
'0:04.707',-117.4
'0:04.711',-105.025
'0:04.715',-91.241
'0:04.719',-78.045
'0:04.723',-51.377
'0:04.727',-51.377
'0:04.730',-40.021
'0:04.734',-42.997
'0:04.738',-29.526
'0:04.742',-17.935
'0:04.746',-17.935
'0:04.750',-23.574
'0:04.754',-27.098
'0:04.758',-13.902
'0:04.762',-17.387
'0:04.766',-16.564
'0:04.770',-7.401
'0:04.773',-13.079
'0:04.777',1.214
'0:04.781',-0.117
'0:04.785',1.488
'0:04.789',-6.618
'0:04.793',2.036
'0:04.797',-0.392
'0:04.801',16.055
'0:04.805',33.834
'0:04.809',24.67
'0:04.813',17.935
'0:04.816',32.228
'0:04.820',47.579
'0:04.824',64.848
'0:04.828',71.857
'0:04.832',80.747
'0:04.836',95.588
'0:04.840',96.645
'0:04.844',99.073
'0:04.848',104.751
'0:04.852',126.289
'0:04.855',140.034
'0:04.859',144.38
'0:04.863',165.135
'0:04.867',168.894
'0:04.871',188.043
'0:04.875',201.514
'0:04.879',207.975
'0:04.883',230.374
'0:04.887',233.076
'0:04.891',250.032
'0:04.895',247.604
'0:04.898',271.609
'0:04.902',278.345
'0:04.906',265.422
'0:04.910',265.97
'0:04.914',277.796
'0:04.918',269.181
'0:04.922',262.72
'0:04.926',266.205
'0:04.930',248.153
'0:04.934',243.571
'0:04.938',220.663
'0:04.941',184.793
'0:04.945',156.481
'0:04.949',120.102
'0:04.953',81.295
'0:04.957',43.819
'0:04.961',9.046
'0:04.965',-4.19
'0:04.969',-27.372
'0:04.973',-50.281
'0:04.977',-69.429
'0:04.980',-86.151
'0:04.984',-99.347
'0:04.988',-108.236
'0:04.992',-116.851
'0:04.996',-119.279
'0:05.000',-117.674
'0:05.004',-129.813
'0:05.008',-138.976
'0:05.012',-133.298
'0:05.016',-136.823
'0:05.020',-133.298
'0:05.023',-127.934
'0:05.027',-137.88
'0:05.031',-148.962
'0:05.035',-136.549
'0:05.039',-148.962
'0:05.043',-126.837
'0:05.047',-137.371
'0:05.051',-133.298
'0:05.055',-120.924
'0:05.059',-131.967
'0:05.063',-124.409
'0:05.066',-119.553
'0:05.070',-133.847
'0:05.074',-136.823
'0:05.078',-130.361
'0:05.082',-123.626
'0:05.086',-119.553
'0:05.090',-133.847
'0:05.094',-120.376
'0:05.098',-129.539
'0:05.102',-137.097
'0:05.105',-133.572
'0:05.109',-134.395
'0:05.113',-138.154
'0:05.117',-144.655
'0:05.121',-150.293
'0:05.125',-147.592
'0:05.129',-151.116
'0:05.133',-140.073
'0:05.137',-144.89
'0:05.141',-147.866
'0:05.145',-160.279
'0:05.148',-150.019
'0:05.152',-142.227
'0:05.156',-146.26
'0:05.160',-145.712
'0:05.164',-141.13
'0:05.168',-149.236
'0:05.172',-142.736
'0:05.176',-162.159
'0:05.180',-159.183
'0:05.184',-155.149
'0:05.188',-149.745
'0:05.191',-160.279
'0:05.195',-161.336
'0:05.199',-157.303
'0:05.203',-153.544
'0:05.207',-164.861
'0:05.211',-160.279
'0:05.215',-161.885
'0:05.219',-156.755
'0:05.223',-151.664
'0:05.227',-147.866
'0:05.230',-144.89
'0:05.234',-146.26
'0:05.238',-139.251
'0:05.242',-148.688
'0:05.246',-145.712
'0:05.250',-145.164
'0:05.254',-147.592
'0:05.258',-138.976
'0:05.262',-130.87
'0:05.266',-128.482
'0:05.270',-129.265
'0:05.273',-131.419
'0:05.277',-137.371
'0:05.281',-128.482
'0:05.285',-127.385
'0:05.289',-114.463
'0:05.293',-86.425
'0:05.297',-75.068
'0:05.301',-62.694
'0:05.305',-75.343
'0:05.309',-64.026
'0:05.313',-55.41
'0:05.316',-75.343
'0:05.320',-75.617
'0:05.324',-88.03
'0:05.328',-95.588
'0:05.332',-120.102
'0:05.336',-107.688
'0:05.340',-107.962
'0:05.344',-134.943
'0:05.348',-141.404
'0:05.352',-136
'0:05.355',-141.953
'0:05.359',-155.423
'0:05.363',-148.14
'0:05.367',-141.404
'0:05.371',-153.818
'0:05.375',-157.577
'0:05.379',-153.544
'0:05.383',-162.433
'0:05.387',-156.52
'0:05.391',-154.601
'0:05.395',-158.399
'0:05.398',-152.447
'0:05.402',-144.38
'0:05.406',-139.799
'0:05.410',-138.976
'0:05.414',-126.837
'0:05.418',-119.828
'0:05.422',-110.664
'0:05.426',-106.083
'0:05.430',-106.357
'0:05.434',-79.924
'0:05.438',4.464
'0:05.441',136.823
'0:05.445',298.042
'0:05.449',366.257
'0:05.453',281.595
'0:05.457',20.637
'0:05.461',-207.466
'0:05.465',-493.486
'0:05.469',-779.819
'0:05.473',-863.385
'0:05.477',-837.501
'0:05.480',-721.824
'0:05.484',-568.163
'0:05.488',-426.641
'0:05.492',-276.191
'0:05.496',-160.827
'0:05.500',-116.851
'0:05.504',-87.208
'0:05.508',-77.496
'0:05.512',-31.954
'0:05.516',-31.954
'0:05.520',-32.737
'0:05.523',-17.661
'0:05.527',-12.531
'0:05.531',-2.545
'0:05.535',-0.94
'0:05.539',1.488
'0:05.543',-13.902
'0:05.547',4.699
'0:05.551',10.103
'0:05.555',11.983
'0:05.559',18.483
'0:05.563',20.911
'0:05.566',37.084
'0:05.570',39.747
'0:05.574',41.94
'0:05.578',35.987
'0:05.582',40.295
'0:05.586',38.141
'0:05.590',53.257
'0:05.594',69.978
'0:05.598',66.727
'0:05.602',75.068
'0:05.605',72.915
'0:05.609',84.232
'0:05.613',83.174
'0:05.617',97.468
'0:05.621',107.962
'0:05.625',121.707
'0:05.629',130.87
'0:05.633',144.38
'0:05.637',160.005
'0:05.641',157.303
'0:05.645',171.87
'0:05.648',193.721
'0:05.652',204.216
'0:05.656',221.485
'0:05.660',222.817
'0:05.664',238.167
'0:05.668',256.807
'0:05.672',264.325
'0:05.676',282.652
'0:05.680',287.234
'0:05.684',288.33
'0:05.688',305.051
'0:05.691',324.474
'0:05.695',326.354
'0:05.699',334.969
'0:05.703',323.104
'0:05.707',337.671
'0:05.711',321.498
'0:05.715',323.104
'0:05.719',317.974
'0:05.723',308.027
'0:05.727',274.859
'0:05.730',257.316
'0:05.734',240.086
'0:05.738',203.942
'0:05.742',165.683
'0:05.746',117.4
'0:05.750',80.747
'0:05.754',59.992
'0:05.758',24.396
'0:05.762',20.363
'0:05.766',4.464
'0:05.770',-33.011
'0:05.773',-37.358
'0:05.777',-41.391
'0:05.781',-45.151
'0:05.785',-59.17
'0:05.789',-64.574
'0:05.793',-70.761
'0:05.797',-74.559
'0:05.801',-76.165
'0:05.805',-89.362
'0:05.809',-80.472
'0:05.813',-73.189
'0:05.816',-76.439
'0:05.820',-74.559
'0:05.824',-70.487
'0:05.828',-64.3
'0:05.832',-74.559
'0:05.836',-76.165
'0:05.840',-72.915
'0:05.844',-84.506
'0:05.848',-79.65
'0:05.852',-91.241
'0:05.855',-77.496
'0:05.859',-73.189
'0:05.863',-82.9
'0:05.867',-77.77
'0:05.871',-75.617
'0:05.875',-94.491
'0:05.879',-87.756
'0:05.883',-96.645
'0:05.887',-93.16
'0:05.891',-92.886
'0:05.895',-95.823
'0:05.898',-87.482
'0:05.902',-94.766
'0:05.906',-91.515
'0:05.910',-93.16
'0:05.914',-96.919
'0:05.918',-102.832
'0:05.922',-107.962
'0:05.926',-105.809
'0:05.930',-94.491
'0:05.934',-83.997
'0:05.938',-103.107
'0:05.941',-103.929
'0:05.945',-86.934
'0:05.949',-95.823
'0:05.953',-116.851
'0:05.957',-101.775
'0:05.961',-103.107
'0:05.965',-102.323
'0:05.969',-95.588
'0:05.973',-102.049
'0:05.977',-102.049
'0:05.980',-100.953
'0:05.984',-115.52
'0:05.988',-110.39
'0:05.992',-103.929
'0:05.996',-104.203
'0:06.000',-99.895
'0:06.004',-112.27
'0:06.008',-108.51
'0:06.012',-120.65
'0:06.016',-105.809
'0:06.020',-100.444
'0:06.023',-110.39
'0:06.027',-106.357
'0:06.031',-104.477
'0:06.035',-122.53
'0:06.039',-114.972
'0:06.043',-108.51
'0:06.047',-106.357
'0:06.051',-105.809
'0:06.055',-107.179
'0:06.059',-98.016
'0:06.063',-91.006
'0:06.066',-89.362
'0:06.070',-89.91
'0:06.074',-91.515
'0:06.078',-96.919
'0:06.082',-73.189
'0:06.086',-57.838
'0:06.090',-28.978
'0:06.094',-14.137
'0:06.098',-15.781
'0:06.102',-20.089
'0:06.105',-21.146
'0:06.109',-28.43
'0:06.113',-62.968
'0:06.117',-62.694
'0:06.121',-66.453
'0:06.125',-84.78
'0:06.129',-77.222
'0:06.133',-66.179
'0:06.137',-81.021
'0:06.141',-95.588
'0:06.145',-111.487
'0:06.148',-108.236
'0:06.152',-117.4
'0:06.156',-115.52
'0:06.160',-110.938
'0:06.164',-124.957
'0:06.168',-122.53
'0:06.172',-118.496
'0:06.176',-117.674
'0:06.180',-110.39
'0:06.184',-106.357
'0:06.188',-105.26
'0:06.191',-118.496
'0:06.195',-117.674
'0:06.199',-109.842
'0:06.203',-105.26
'0:06.207',-104.477
'0:06.211',-87.482
'0:06.215',-56.468
'0:06.219',-47.304
'0:06.223',-54.04
'0:06.227',-51.612
'0:06.230',38.415
'0:06.234',186.438
'0:06.238',321.498
'0:06.242',343.31
'0:06.246',222.268
'0:06.250',-55.41
'0:06.254',-291.58
'0:06.258',-556.846
'0:06.262',-822.385
'0:06.266',-922.163
'0:06.270',-863.659
'0:06.273',-728.324
'0:06.277',-571.139
'0:06.281',-434.982
'0:06.285',-265.696
'0:06.289',-153.544
'0:06.293',-109.059
'0:06.297',-91.006
'0:06.301',-68.881
'0:06.305',-35.165
'0:06.309',-23.574
'0:06.313',-26.55
'0:06.316',-23.848
'0:06.320',-18.992
'0:06.324',-3.368
'0:06.328',7.675
'0:06.332',5.247
'0:06.336',-6.344
'0:06.340',-1.488
'0:06.344',28.156
'0:06.348',21.694
'0:06.352',36.536
'0:06.355',26.276
'0:06.359',31.68
'0:06.363',29.252
'0:06.367',53.531
'0:06.371',50.555
'0:06.375',57.29
'0:06.379',48.675
'0:06.383',62.694
'0:06.387',69.155
'0:06.391',81.021
'0:06.395',71.857
'0:06.398',81.021
'0:06.402',95.314
'0:06.406',116.342
'0:06.410',126.837
'0:06.414',119.044
'0:06.418',130.087
'0:06.422',159.457
'0:06.426',178.332
'0:06.430',188.591
'0:06.434',182.913
'0:06.438',195.053
'0:06.441',208.249
'0:06.445',225.519
'0:06.449',249.797
'0:06.453',259.47
'0:06.457',289.152
'0:06.461',304.229
'0:06.465',322.281
'0:06.469',329.565
'0:06.473',353.295
'0:06.477',351.142
'0:06.480',368.411
'0:06.484',386.463
'0:06.488',391.593
'0:06.492',398.329
'0:06.496',412.896
'0:06.500',415.598
'0:06.504',403.459
'0:06.508',408.04
'0:06.512',411.251
'0:06.516',393.199
'0:06.520',367.863
'0:06.523',342.253
'0:06.527',312.609
'0:06.531',265.148
'0:06.535',215.533
'0:06.539',175.904
'0:06.543',149.471
'0:06.547',117.674
'0:06.551',100.679
'0:06.555',52.16
'0:06.559',31.68
'0:06.563',6.618
'0:06.566',-11.2
'0:06.570',-14.959
'0:06.574',-16.564
'0:06.578',-18.992
'0:06.582',-24.122
'0:06.586',-40.569
'0:06.590',-46.521
'0:06.594',-35.165
'0:06.598',-37.593
'0:06.602',-39.512
'0:06.605',-38.141
'0:06.609',-45.973
'0:06.613',-36.81
'0:06.617',-38.964
'0:06.621',-38.415
'0:06.625',-51.377
'0:06.629',-29.526
'0:06.633',-39.512
'0:06.637',-55.685
'0:06.641',-51.612
'0:06.645',-49.184
'0:06.648',-46.521
'0:06.652',-57.29
'0:06.656',-56.194
'0:06.660',-65.905
'0:06.664',-47.579
'0:06.668',-47.03
'0:06.672',-58.896
'0:06.676',-56.194
'0:06.680',-64.3
'0:06.684',-61.324
'0:06.688',-62.42
'0:06.691',-60.775
'0:06.695',-74.011
'0:06.699',-63.203
'0:06.703',-74.794
'0:06.707',-76.713
'0:06.711',-77.496
'0:06.715',-76.165
'0:06.719',-79.65
'0:06.723',-72.406
'0:06.727',-75.068
'0:06.730',-93.669
'0:06.734',-77.222
'0:06.738',-80.472
'0:06.742',-86.934
'0:06.746',-72.641
'0:06.750',-78.319
'0:06.754',-79.415
'0:06.758',-79.924
'0:06.762',-84.232
'0:06.766',-86.425
'0:06.770',-93.943
'0:06.773',-81.569
'0:06.777',-81.569
'0:06.781',-98.251
'0:06.785',-82.9
'0:06.789',-93.669
'0:06.793',-83.997
'0:06.797',-82.9
'0:06.801',-80.747
'0:06.805',-80.198
'0:06.809',-76.713
'0:06.813',-69.978
'0:06.816',-68.607
'0:06.820',-63.477
'0:06.824',-61.324
'0:06.828',-59.444
'0:06.832',-55.136
'0:06.836',-54.04
'0:06.840',-46.756
'0:06.844',-42.997
'0:06.848',-42.449
'0:06.852',-40.021
'0:06.855',-39.238
'0:06.859',-30.348
'0:06.863',-25.493
'0:06.867',-25.219
'0:06.871',-24.67
'0:06.875',-9.046
'0:06.879',16.055
'0:06.883',38.415
'0:06.887',39.747
'0:06.891',55.959
'0:06.895',54.588
'0:06.898',49.184
'0:06.902',41.94
'0:06.906',41.94
'0:06.910',22.791
'0:06.914',5.521
'0:06.918',-13.902
'0:06.922',-20.363
'0:06.926',-22.242
'0:06.930',-27.646
'0:06.934',-29.526
'0:06.938',-45.973
'0:06.941',-65.122
'0:06.945',-67.002
'0:06.949',-61.324
'0:06.953',-65.905
'0:06.957',-63.751
'0:06.961',-63.203
'0:06.965',-64.574
'0:06.969',-76.439
'0:06.973',-67.276
'0:06.977',-65.631
'0:06.980',-62.694
'0:06.984',-46.756
'0:06.988',-59.718
'0:06.992',-52.16
'0:06.996',-50.555
'0:07.000',-45.973
'0:07.004',-44.602
'0:07.008',-42.723
'0:07.012',-52.983
'0:07.016',-66.453
'0:07.020',-44.877
'0:07.023',64.026
'0:07.027',231.432
'0:07.031',408.04
'0:07.035',499.947
'0:07.039',401.031
'0:07.043',103.655
'0:07.047',-155.149
'0:07.051',-494.582
'0:07.055',-822.659
'0:07.059',-919.735
'0:07.063',-869.024
'0:07.066',-725.348
'0:07.070',-561.153
'0:07.074',-392.376
'0:07.078',-218.509
'0:07.082',-123.626
'0:07.086',-83.723
'0:07.090',-63.203
'0:07.094',-61.324
'0:07.098',-37.593
'0:07.102',-23.848
'0:07.105',-31.954
'0:07.109',-29.252
'0:07.113',-30.348
'0:07.117',-7.675
'0:07.121',-7.401
'0:07.125',-12.531
'0:07.129',4.19
'0:07.133',14.411
'0:07.137',36.536
'0:07.141',25.728
'0:07.145',9.046
'0:07.148',7.949
'0:07.152',27.646
'0:07.156',31.132
'0:07.160',40.843
'0:07.164',44.093
'0:07.168',57.564
'0:07.172',57.838
'0:07.176',61.049
'0:07.180',72.915
'0:07.184',77.77
'0:07.188',90.184
'0:07.191',88.304
'0:07.195',106.631
'0:07.199',119.828
'0:07.203',126.837
'0:07.207',139.799
'0:07.211',135.726
'0:07.215',152.173
'0:07.219',166.192
'0:07.223',190.745
'0:07.227',188.317
'0:07.230',199.634
'0:07.234',213.927
'0:07.238',243.571
'0:07.242',254.105
'0:07.246',284.571
'0:07.250',294.008
'0:07.254',307.479
'0:07.258',322.555
'0:07.262',334.969
'0:07.266',333.637
'0:07.270',341.43
'0:07.273',352.512
'0:07.277',367.04
'0:07.281',381.608
'0:07.285',382.156
'0:07.289',373.541
'0:07.293',382.43
'0:07.297',395.901
'0:07.301',380.276
'0:07.305',367.589
'0:07.309',358.151
'0:07.313',331.993
'0:07.316',313.666
'0:07.320',284.297
'0:07.324',256.533
'0:07.328',244.667
'0:07.332',200.731
'0:07.336',152.173
'0:07.340',110.116
'0:07.344',81.569
'0:07.348',65.631
'0:07.352',50.829
'0:07.355',35.439
'0:07.359',28.704
'0:07.363',33.834
'0:07.367',32.737
'0:07.371',16.839
'0:07.375',33.56
'0:07.379',27.921
'0:07.383',34.93
'0:07.387',33.834
'0:07.391',31.954
'0:07.395',31.406
'0:07.398',27.921
'0:07.402',20.911
'0:07.406',4.19
'0:07.410',-0.117
'0:07.414',-3.094
'0:07.418',9.555
'0:07.422',4.973
'0:07.426',-9.555
'0:07.430',-30.348
'0:07.434',-19.541
'0:07.438',-9.32
'0:07.441',-12.257
'0:07.445',-23.848
'0:07.449',-28.43
'0:07.453',-36.262
'0:07.457',-41.94
'0:07.461',-43.545
'0:07.465',-54.588
'0:07.469',-60.266
'0:07.473',-53.766
'0:07.477',-44.093
'0:07.480',-44.093
'0:07.484',-68.059
'0:07.488',-73.189
'0:07.492',-69.704
'0:07.496',-62.694
'0:07.500',-76.713
'0:07.504',-81.569
'0:07.508',-87.482
'0:07.512',-86.425
'0:07.516',-80.472
'0:07.520',-77.222
'0:07.523',-80.747
'0:07.527',-85.876
'0:07.531',-85.602
'0:07.535',-96.371
'0:07.539',-92.886
'0:07.543',-95.823
'0:07.547',-85.876
'0:07.551',-86.425
'0:07.555',-80.747
'0:07.559',-91.789
'0:07.563',-93.669
'0:07.566',-99.895
'0:07.570',-102.323
'0:07.574',-97.742
'0:07.578',-107.962
'0:07.582',-92.886
'0:07.586',-83.997
'0:07.590',-71.583
'0:07.594',-82.078
'0:07.598',-74.285
'0:07.602',-90.458
'0:07.605',-82.078
'0:07.609',-87.482
'0:07.613',-83.174
'0:07.617',-90.732
'0:07.621',-89.087
'0:07.625',-80.747
'0:07.629',-56.468
'0:07.633',-69.155
'0:07.637',-73.737
'0:07.641',-69.978
'0:07.645',-47.853
'0:07.648',-42.175
'0:07.652',-54.04
'0:07.656',-71.583
'0:07.660',-67.002
'0:07.664',-47.579
'0:07.668',-29.252
'0:07.672',-9.555
'0:07.676',-8.772
'0:07.680',-0.392
'0:07.684',19.541
'0:07.688',34.93
'0:07.691',21.146
'0:07.695',8.223
'0:07.699',-12.805
'0:07.703',-24.396
'0:07.707',-28.156
'0:07.711',-30.074
'0:07.715',-27.921
'0:07.719',-45.151
'0:07.723',-52.983
'0:07.727',-57.564
'0:07.730',-63.477
'0:07.734',-78.593
'0:07.738',-92.886
'0:07.742',-82.626
'0:07.746',-73.189
'0:07.750',-81.804
'0:07.754',-95.823
'0:07.758',-91.515
'0:07.762',-96.097
'0:07.766',-103.107
'0:07.770',-113.366
'0:07.773',-113.914
'0:07.777',-109.333
'0:07.781',-95.588
'0:07.785',-85.602
'0:07.789',-81.804
'0:07.793',-83.174
'0:07.797',-77.222
'0:07.801',-76.987
'0:07.805',-97.468
'0:07.809',-49.458
'0:07.813',51.886
'0:07.816',211.225
'0:07.820',374.05
'0:07.824',428.795
'0:07.828',334.147
'0:07.832',99.073
'0:07.836',-123.626
'0:07.840',-419.631
'0:07.844',-666.022
'0:07.848',-730.478
'0:07.852',-683.017
'0:07.855',-546.077
'0:07.859',-398.603
'0:07.863',-244.667
'0:07.867',-121.981
'0:07.871',-51.612
'0:07.875',-21.42
'0:07.879',-0.117
'0:07.883',6.618
'0:07.887',26.824
'0:07.891',28.704
'0:07.895',41.94
'0:07.898',33.285
'0:07.902',26.002
'0:07.906',44.602
'0:07.910',42.449
'0:07.914',39.238
'0:07.918',34.108
'0:07.922',28.704
'0:07.926',45.151
'0:07.930',24.67
'0:07.934',37.593
'0:07.938',33.56
'0:07.941',45.151
'0:07.945',45.699
'0:07.949',71.309
'0:07.953',66.453
'0:07.957',65.631
'0:07.961',48.949
'0:07.965',64.574
'0:07.969',69.429
'0:07.973',78.319
'0:07.977',79.65
'0:07.980',82.626
'0:07.984',83.174
'0:07.988',70.213
'0:07.992',92.064
'0:07.996',92.338
'0:08.000',82.352
'0:08.004',86.385
'0:08.008',102.832
'0:08.012',104.477
'0:08.016',120.924
'0:08.020',114.698
'0:08.023',105.534
'0:08.027',89.91
'0:08.031',57.29
'0:08.035',71.035
'0:08.039',125.506
'0:08.043',162.981
'0:08.047',198.029
'0:08.051',232.254
'0:08.055',231.706
'0:08.059',256.259
'0:08.063',261.898
'0:08.066',278.619
'0:08.070',278.345
'0:08.074',293.46
'0:08.078',302.897
'0:08.082',295.066
'0:08.086',295.888
'0:08.090',293.186
'0:08.094',290.21
'0:08.098',270.004
'0:08.102',249.249
'0:08.105',233.585
'0:08.109',211.5
'0:08.113',160.005
'0:08.117',126.563
'0:08.121',75.617
'0:08.125',42.449
'0:08.129',16.839
'0:08.133',-5.247
'0:08.137',-21.42
'0:08.141',-52.434
'0:08.145',-52.16
'0:08.148',-79.924
'0:08.152',-87.756
'0:08.156',-103.107
'0:08.160',-115.52
'0:08.164',-130.087
'0:08.168',-127.659
'0:08.172',-107.688
'0:08.176',-107.179
'0:08.180',-99.347
'0:08.184',-94.491
'0:08.188',-93.434
'0:08.191',-92.064
'0:08.195',-76.713
'0:08.199',-83.174
'0:08.203',-91.241
'0:08.207',-74.794
'0:08.211',-62.146
'0:08.215',-79.141
'0:08.219',-65.631
'0:08.223',-56.468
'0:08.227',-73.463
'0:08.230',-61.872
'0:08.234',-48.949
'0:08.238',-51.377
'0:08.242',-54.314
'0:08.246',-53.766
'0:08.250',-61.324
'0:08.254',-66.453
'0:08.258',-67.785
'0:08.262',-68.881
'0:08.266',-68.333
'0:08.270',-61.598
'0:08.273',-68.333
'0:08.277',-68.333
'0:08.281',-82.352
'0:08.285',-81.295
'0:08.289',-93.16
'0:08.293',-86.425
'0:08.297',-71.035
'0:08.301',-67.002
'0:08.305',-47.853
'0:08.309',-59.718
'0:08.313',-69.429
'0:08.316',-69.978
'0:08.320',-81.569
'0:08.324',-78.045
'0:08.328',-75.617
'0:08.332',-87.208
'0:08.336',-102.323
'0:08.340',-95.588
'0:08.344',-92.886
'0:08.348',-92.064
'0:08.352',-88.813
'0:08.355',-87.482
'0:08.359',-78.867
'0:08.363',-74.559
'0:08.367',-89.91
'0:08.371',-88.304
'0:08.375',-88.578
'0:08.379',-79.65
'0:08.383',-89.087
'0:08.387',-103.107
'0:08.391',-103.655
'0:08.395',-90.732
'0:08.398',-81.804
'0:08.402',-87.756
'0:08.406',-99.895
'0:08.410',-101.775
'0:08.414',-92.064
'0:08.418',-83.723
'0:08.422',-87.208
'0:08.426',-81.569
'0:08.430',-69.704
'0:08.434',-61.872
'0:08.438',-83.174
'0:08.441',-83.449
'0:08.445',-79.141
'0:08.449',-71.035
'0:08.453',-33.834
'0:08.457',-7.127
'0:08.461',-3.368
'0:08.465',-10.377
'0:08.469',-18.209
'0:08.473',-16.839
'0:08.477',-24.122
'0:08.480',-35.165
'0:08.484',-55.959
'0:08.488',-79.65
'0:08.492',-80.747
'0:08.496',-90.458
'0:08.500',-85.054
'0:08.504',-88.03
'0:08.508',-79.415
'0:08.512',-112.035
'0:08.516',-120.376
'0:08.520',-116.068
'0:08.523',-120.65
'0:08.527',-112.27
'0:08.531',-112.818
'0:08.535',-120.65
'0:08.539',-114.698
'0:08.543',-119.044
'0:08.547',-127.111
'0:08.551',-112.818
'0:08.555',-106.357
'0:08.559',-115.246
'0:08.563',-100.953
'0:08.566',-109.059
'0:08.570',-96.645
'0:08.574',-91.241
'0:08.578',-68.333
'0:08.582',-68.607
'0:08.586',-59.17
'0:08.590',-31.954
'0:08.594',48.401
'0:08.598',162.433
'0:08.602',305.051
'0:08.605',337.397
'0:08.609',221.211
'0:08.613',-47.853
'0:08.617',-251.677
'0:08.621',-494.034
'0:08.625',-718.339
'0:08.629',-797.323
'0:08.633',-727.776
'0:08.637',-588.917
'0:08.641',-470.852
'0:08.645',-342.527
'0:08.648',-219.566
'0:08.652',-114.463
'0:08.656',-67.785
'0:08.660',-57.564
'0:08.664',-42.175
'0:08.668',-6.07
'0:08.672',13.353
'0:08.676',13.079
'0:08.680',10.377
'0:08.684',9.046
'0:08.688',25.728
'0:08.691',43.271
'0:08.695',43.819
'0:08.699',43.545
'0:08.703',42.997
'0:08.707',42.449
'0:08.711',58.347
'0:08.715',42.997
'0:08.719',44.328
'0:08.723',43.819
'0:08.727',72.915
'0:08.730',86.934
'0:08.734',89.362
'0:08.738',93.395
'0:08.742',78.319
'0:08.746',90.458
'0:08.750',86.385
'0:08.754',87.756
'0:08.758',92.612
'0:08.762',93.943
'0:08.766',106.083
'0:08.770',117.4
'0:08.773',133.847
'0:08.777',138.976
'0:08.781',142.462
'0:08.785',139.525
'0:08.789',165.409
'0:08.793',163.764
'0:08.797',184.793
'0:08.801',205.038
'0:08.805',218.783
'0:08.809',229.278
'0:08.813',243.571
'0:08.816',263.268
'0:08.820',282.926
'0:08.824',297.768
'0:08.828',309.085
'0:08.832',338.493
'0:08.836',341.156
'0:08.840',346.286
'0:08.844',346.56
'0:08.848',357.094
'0:08.852',368.137
'0:08.855',385.641
'0:08.859',375.93
'0:08.863',378.906
'0:08.867',389.44
'0:08.871',382.43
'0:08.875',367.863
'0:08.879',359.248
'0:08.883',330.935
'0:08.887',309.633
'0:08.891',286.176
'0:08.895',238.441
'0:08.898',198.538
'0:08.902',170.5
'0:08.906',147.866
'0:08.910',107.688
'0:08.914',92.338
'0:08.918',52.434
'0:08.922',41.117
'0:08.926',18.992
'0:08.930',10.103
'0:08.934',-6.07
'0:08.938',-28.978
'0:08.941',-23.339
'0:08.945',-29.526
'0:08.949',-38.689
'0:08.953',-38.964
'0:08.957',-30.583
'0:08.961',-40.295
'0:08.965',-43.819
'0:08.969',-37.084
'0:08.973',-39.747
'0:08.977',-47.579
'0:08.980',-40.021
'0:08.984',-27.646
'0:08.988',-37.084
'0:08.992',-39.238
'0:08.996',-31.68
'0:09.000',-24.944
'0:09.004',-27.372
'0:09.008',-19.815
'0:09.012',-22.791
'0:09.016',-31.954
'0:09.020',-24.396
'0:09.023',-26.55
'0:09.027',-34.93
'0:09.031',-38.141
'0:09.035',-32.737
'0:09.039',-26.002
'0:09.043',-42.175
'0:09.047',-33.011
'0:09.051',-37.867
'0:09.055',-49.458
'0:09.059',-57.564
'0:09.063',-56.742
'0:09.066',-49.184
'0:09.070',-54.862
'0:09.074',-50.281
'0:09.078',-41.94
'0:09.082',-56.194
'0:09.086',-78.045
'0:09.090',-68.607
'0:09.094',-68.059
'0:09.098',-76.439
'0:09.102',-71.583
'0:09.105',-76.439
'0:09.109',-68.059
'0:09.113',-68.881
'0:09.117',-76.713
'0:09.121',-70.761
'0:09.125',-74.794
'0:09.129',-67.55
'0:09.133',-69.429
'0:09.137',-61.872
'0:09.141',-55.136
'0:09.145',-73.189
'0:09.148',-80.472
'0:09.152',-68.607
'0:09.156',-79.65
'0:09.160',-72.131
'0:09.164',-72.131
'0:09.168',-63.751
'0:09.172',-68.607
'0:09.176',-63.751
'0:09.180',-71.857
'0:09.184',-55.41
'0:09.188',-47.579
'0:09.191',-52.708
'0:09.195',-63.203
'0:09.199',-69.978
'0:09.203',-69.978
'0:09.207',-78.867
'0:09.211',-69.155
'0:09.215',-65.122
'0:09.219',-55.685
'0:09.223',-53.531
'0:09.227',-45.151
'0:09.230',-52.16
'0:09.234',-48.675
'0:09.238',-40.295
'0:09.242',-22.242
'0:09.246',2.036
'0:09.250',-4.19
'0:09.254',0.392
'0:09.258',9.046
'0:09.262',-4.973
'0:09.266',3.916
'0:09.270',11.983
'0:09.273',-16.564
'0:09.277',-21.968
'0:09.281',-50.281
'0:09.285',-42.723
'0:09.289',-53.257
'0:09.293',-66.727
'0:09.297',-86.151
'0:09.301',-96.371
'0:09.305',-105.26
'0:09.309',-117.126
'0:09.313',-116.342
'0:09.316',-120.102
'0:09.320',-97.468
'0:09.324',-105.025
'0:09.328',-99.621
'0:09.332',-99.621
'0:09.336',-104.477
'0:09.340',-112.27
'0:09.344',-117.948
'0:09.348',-114.189
'0:09.352',-101.227
'0:09.355',-106.905
'0:09.359',-96.097
'0:09.363',-84.232
'0:09.367',-81.021
'0:09.371',-54.04
'0:09.375',-60.266
'0:09.379',-63.203
'0:09.383',-33.56
'0:09.387',44.877
'0:09.391',175.355
'0:09.395',310.181
'0:09.398',316.916
'0:09.402',176.452
'0:09.406',-110.116
'0:09.410',-318.248
'0:09.414',-604.033
'0:09.418',-821.054
'0:09.422',-875.759
'0:09.426',-807.583
'0:09.430',-656.075
'0:09.434',-518.313
'0:09.438',-383.761
'0:09.441',-248.975
'0:09.445',-141.953
'0:09.449',-99.895
'0:09.453',-73.463
'0:09.457',-54.588
'0:09.461',-19.815
'0:09.465',5.247
'0:09.469',-15.507
'0:09.473',-6.07
'0:09.477',9.046
'0:09.480',9.829
'0:09.484',22.517
'0:09.488',3.916
'0:09.492',11.2
'0:09.496',7.127
'0:09.500',23.574
'0:09.504',38.141
'0:09.508',37.084
'0:09.512',28.43
'0:09.516',38.964
'0:09.520',53.766
'0:09.523',53.531
'0:09.527',39.747
'0:09.531',46.247
'0:09.535',52.708
'0:09.539',66.453
'0:09.543',69.155
'0:09.547',73.737
'0:09.551',79.141
'0:09.555',83.174
'0:09.559',111.761
'0:09.563',115.794
'0:09.566',122.804
'0:09.570',128.717
'0:09.574',130.636
'0:09.578',157.303
'0:09.582',177.509
'0:09.586',186.438
'0:09.590',209.072
'0:09.594',210.129
'0:09.598',220.389
'0:09.602',241.417
'0:09.605',250.032
'0:09.609',271.883
'0:09.613',272.431
'0:09.617',298.59
'0:09.621',319.618
'0:09.625',329.291
'0:09.629',336.3
'0:09.633',336.3
'0:09.637',360.579
'0:09.641',380.55
'0:09.645',375.93
'0:09.648',400.208
'0:09.652',398.877
'0:09.656',390.771
'0:09.660',381.059
'0:09.664',376.752
'0:09.668',382.43
'0:09.672',363.829
'0:09.676',340.882
'0:09.680',317.465
'0:09.684',281.869
'0:09.688',254.614
'0:09.691',202.884
'0:09.695',178.88
'0:09.699',123.626
'0:09.703',105.26
'0:09.707',77.222
'0:09.711',55.41
'0:09.715',31.132
'0:09.719',10.103
'0:09.723',-6.892
'0:09.727',-18.757
'0:09.730',-26.276
'0:09.734',-35.713
'0:09.738',-39.747
'0:09.742',-38.689
'0:09.746',-34.382
'0:09.750',-42.723
'0:09.754',-21.146
'0:09.758',-25.493
'0:09.762',-21.968
'0:09.766',-16.055
'0:09.770',-25.493
'0:09.773',-21.968
'0:09.777',-26.002
'0:09.781',-21.694
'0:09.785',-14.959
'0:09.789',5.796
'0:09.793',7.675
'0:09.797',-10.377
'0:09.801',-18.209
'0:09.805',-27.372
'0:09.809',-25.728
'0:09.813',-11.474
'0:09.816',1.488
'0:09.820',11.983
'0:09.824',6.892
'0:09.828',9.281
'0:09.832',5.247
'0:09.836',15.781
'0:09.840',-4.464
'0:09.844',9.046
'0:09.848',-4.973
'0:09.852',4.464
'0:09.855',28.43
'0:09.859',24.944
'0:09.863',26.276
'0:09.867',-0.392
'0:09.871',6.892
'0:09.875',10.377
'0:09.879',5.796
'0:09.883',10.103
'0:09.887',16.839
'0:09.891',-8.223
'0:09.895',-5.247
'0:09.898',-10.651
'0:09.902',-22.242
'0:09.906',-14.137
'0:09.910',-8.772
'0:09.914',-7.675
'0:09.918',-11.983
'0:09.922',-20.637
'0:09.926',-27.372
'0:09.930',-39.238
'0:09.934',-24.944
'0:09.938',-15.507
'0:09.941',-6.892
'0:09.945',-10.103
'0:09.949',-20.089
'0:09.953',-38.964
'0:09.957',-31.406
'0:09.961',-40.021
'0:09.965',-42.175
'0:09.969',-50.829
'0:09.973',-54.588
'0:09.977',-48.949
'0:09.980',-57.29
'0:09.984',-57.29
'0:09.988',-49.458
'0:09.992',-54.862
'0:09.996',-50.006
'0:10.000',-41.666
'0:10.004',-25.493
'0:10.008',-33.011
'0:10.012',-37.358
'0:10.016',-33.011
'0:10.020',-26.276
'0:10.023',-41.391
'0:10.027',-46.756
'0:10.031',-51.612
'0:10.035',-50.006
'0:10.039',-28.704
'0:10.043',-26.824
'0:10.047',0.94
'0:10.051',11.983
'0:10.055',29.252
'0:10.059',19.815
'0:10.063',23.574
'0:10.066',34.93
'0:10.070',43.545
'0:10.074',43.819
'0:10.078',20.637
'0:10.082',10.651
'0:10.086',-10.377
'0:10.090',-4.464
'0:10.094',-6.892
'0:10.098',-14.137
'0:10.102',-36.81
'0:10.105',-39.512
'0:10.109',-51.103
'0:10.113',-56.194
'0:10.117',-64.026
'0:10.121',-54.04
'0:10.125',-55.685
'0:10.129',-65.905
'0:10.133',-70.761
'0:10.137',-64.574
'0:10.141',-71.309
'0:10.145',-55.685
'0:10.148',-64.848
'0:10.152',-54.588
'0:10.156',-49.458
'0:10.160',-55.959
'0:10.164',-54.04
'0:10.168',-47.03
'0:10.172',-54.588
'0:10.176',-50.281
'0:10.180',-71.583
'0:10.184',-83.723
'0:10.188',-45.973
'0:10.191',81.804
'0:10.195',267.576
'0:10.199',453.582
'0:10.203',534.995
'0:10.207',420.18
'0:10.211',122.255
'0:10.215',-168.346
'0:10.219',-512.361
'0:10.223',-818.9
'0:10.227',-903.288
'0:10.230',-838.558
'0:10.234',-661.714
'0:10.238',-484.048
'0:10.242',-290.758
'0:10.246',-134.669
'0:10.250',-42.723
'0:10.254',-4.19
'0:10.258',-2.545
'0:10.262',24.944
'0:10.266',45.973
'0:10.270',54.862
'0:10.273',46.247
'0:10.277',47.579
'0:10.281',56.742
'0:10.285',61.049
'0:10.289',86.385
'0:10.293',77.77
'0:10.297',79.65
'0:10.301',88.813
'0:10.305',92.612
'0:10.309',86.66
'0:10.313',94.766
'0:10.316',79.376
'0:10.320',87.756
'0:10.324',91.789
'0:10.328',102.049
'0:10.332',109.842
'0:10.336',110.116
'0:10.340',118.77
'0:10.344',123.626
'0:10.348',134.395
'0:10.352',126.054
'0:10.355',126.289
'0:10.359',133.847
'0:10.363',153.818
'0:10.367',164.587
'0:10.371',158.125
'0:10.375',174.572
'0:10.379',180.485
'0:10.383',199.908
'0:10.387',196.11
'0:10.391',206.644
'0:10.395',221.485
'0:10.398',226.341
'0:10.402',246.273
'0:10.406',274.859
'0:10.410',284.806
'0:10.414',300.195
'0:10.418',305.834
'0:10.422',325.806
'0:10.426',337.945
'0:10.430',347.657
'0:10.434',362.733
'0:10.438',368.137
'0:10.441',372.718
'0:10.445',385.641
'0:10.449',378.906
'0:10.453',377.574
'0:10.457',382.43
'0:10.461',386.189
'0:10.465',399.386
'0:10.469',393.199
'0:10.473',392.376
'0:10.477',365.983
'0:10.480',354.666
'0:10.484',319.853
'0:10.488',297.219
'0:10.492',247.604
'0:10.496',220.663
'0:10.500',177
'0:10.504',142.736
'0:10.508',119.553
'0:10.512',100.17
'0:10.516',72.915
'0:10.520',62.968
'0:10.523',45.699
'0:10.527',23.3
'0:10.531',19.541
'0:10.535',6.892
'0:10.539',-2.819
'0:10.543',-2.545
'0:10.547',-9.046
'0:10.551',-13.079
'0:10.555',-10.103
'0:10.559',-4.19
'0:10.563',-3.094
'0:10.566',7.401
'0:10.570',-12.531
'0:10.574',-24.67
'0:10.578',-19.266
'0:10.582',-19.815
'0:10.586',-25.219
'0:10.590',-12.805
'0:10.594',-25.493
'0:10.598',-19.541
'0:10.602',-19.266
'0:10.605',-24.67
'0:10.609',-12.805
'0:10.613',-26.002
'0:10.617',-19.541
'0:10.621',-34.108
'0:10.625',-38.964
'0:10.629',-28.704
'0:10.633',-27.921
'0:10.637',-21.42
'0:10.641',-17.935
'0:10.645',-21.42
'0:10.648',-11.748
'0:10.652',-12.531
'0:10.656',-6.344
'0:10.660',-17.387
'0:10.664',-19.541
'0:10.668',-26.276
'0:10.672',-44.093
'0:10.676',-38.964
'0:10.680',-34.656
'0:10.684',-36.536
'0:10.688',-41.666
'0:10.691',-43.271
'0:10.695',-54.862
'0:10.699',-50.281
'0:10.703',-52.16
'0:10.707',-57.29
'0:10.711',-43.545
'0:10.715',-40.021
'0:10.719',-50.555
'0:10.723',-50.006
'0:10.727',-40.021
'0:10.730',-44.368
'0:10.734',-40.843
'0:10.738',-34.656
'0:10.742',-49.184
'0:10.746',-38.415
'0:10.750',-43.819
'0:10.754',-41.94
'0:10.758',-50.829
'0:10.762',-48.127
'0:10.766',-37.867
'0:10.770',-44.368
'0:10.773',-42.175
'0:10.777',-50.555
'0:10.781',-47.304
'0:10.785',-37.593
'0:10.789',-44.602
'0:10.793',-42.449
'0:10.797',-50.281
'0:10.801',-61.872
'0:10.805',-51.886
'0:10.809',-60.54
'0:10.813',-59.718
'0:10.816',-66.727
'0:10.820',-61.324
'0:10.824',-67.002
'0:10.828',-59.992
'0:10.832',-45.151
'0:10.836',-36.81
'0:10.840',-29.8
'0:10.844',-32.737
'0:10.848',-41.117
'0:10.852',-43.819
'0:10.855',-37.593
'0:10.859',-62.146
'0:10.863',-47.304
'0:10.867',-40.843
'0:10.871',-29.8
'0:10.875',7.127
'0:10.879',31.132
'0:10.883',33.011
'0:10.887',27.372
'0:10.891',22.242
'0:10.895',23.848
'0:10.898',29.8
'0:10.902',16.564
'0:10.906',13.079
'0:10.910',-8.223
'0:10.914',-7.949
'0:10.918',-3.916
'0:10.922',-16.839
'0:10.926',-33.834
'0:10.930',-53.531
'0:10.934',-71.035
'0:10.938',-69.155
'0:10.941',-67.276
'0:10.945',-52.16
'0:10.949',-54.588
'0:10.953',-38.964
'0:10.957',-52.434
'0:10.961',-65.122
'0:10.965',-65.905
'0:10.969',-69.978
'0:10.973',-56.468
'0:10.977',-54.314
'0:10.980',-49.732
'0:10.984',-48.675
'0:10.988',-36.81
'0:10.992',-40.295
'0:10.996',-38.141
'0:11.000',-48.949
'0:11.004',-47.304
'0:11.008',-67.276
'0:11.012',-71.035
'0:11.016',-8.772
'0:11.020',147.592
'0:11.023',334.421
'0:11.027',478.919
'0:11.031',507.231
'0:11.035',319.344
'0:11.039',75.343
'0:11.043',-206.37
'0:11.047',-542.278
'0:11.051',-770.107
'0:11.055',-785.458
'0:11.059',-713.483
'0:11.063',-549.288
'0:11.066',-407.218
'0:11.070',-235.504
'0:11.074',-127.385
'0:11.078',-77.222
'0:11.082',-51.886
'0:11.086',-25.219
'0:11.090',9.555
'0:11.094',17.661
'0:11.098',21.694
'0:11.102',16.839
'0:11.105',25.493
'0:11.109',40.569
'0:11.113',47.304
'0:11.117',37.867
'0:11.121',35.713
'0:11.125',27.646
'0:11.129',39.747
'0:11.133',44.602
'0:11.137',51.886
'0:11.141',36.81
'0:11.145',30.309
'0:11.148',40.295
'0:11.152',42.175
'0:11.156',49.458
'0:11.160',52.708
'0:11.164',63.203
'0:11.168',56.742
'0:11.172',58.112
'0:11.176',64.848
'0:11.180',83.449
'0:11.184',93.943
'0:11.188',88.813
'0:11.191',106.357
'0:11.195',127.385
'0:11.199',129.813
'0:11.203',127.111
'0:11.207',138.428
'0:11.211',153.27
'0:11.215',157.029
'0:11.219',176.726
'0:11.223',175.081
'0:11.227',186.712
'0:11.230',200.457
'0:11.234',203.394
'0:11.238',223.365
'0:11.242',238.167
'0:11.246',249.797
'0:11.250',263.542
'0:11.254',282.143
'0:11.258',285.902
'0:11.262',286.45
'0:11.266',298.316
'0:11.270',294.791
'0:11.273',312.061
'0:11.277',300.195
'0:11.281',302.075
'0:11.285',298.59
'0:11.289',309.359
'0:11.293',308.81
'0:11.297',313.666
'0:11.301',285.902
'0:11.305',268.633
'0:11.309',246.547
'0:11.313',212.322
'0:11.316',184.519
'0:11.320',141.404
'0:11.324',108.51
'0:11.328',85.876
'0:11.332',65.357
'0:11.336',21.694
'0:11.340',-2.819
'0:11.344',-19.541
'0:11.348',-43.545
'0:11.352',-48.675
'0:11.355',-60.775
'0:11.359',-53.257
'0:11.363',-68.059
'0:11.367',-58.622
'0:11.371',-64.848
'0:11.375',-61.872
'0:11.379',-69.704
'0:11.383',-67.002
'0:11.387',-73.463
'0:11.391',-64.3
'0:11.395',-62.968
'0:11.398',-54.862
'0:11.402',-66.179
'0:11.406',-55.136
'0:11.410',-63.203
'0:11.414',-63.203
'0:11.418',-55.685
'0:11.422',-50.829
'0:11.426',-54.588
'0:11.430',-61.324
'0:11.434',-62.42
'0:11.438',-56.468
'0:11.441',-51.886
'0:11.445',-54.04
'0:11.449',-59.718
'0:11.453',-61.324
'0:11.457',-72.406
'0:11.461',-67.55
'0:11.465',-54.314
'0:11.469',-60.266
'0:11.473',-61.049
'0:11.477',-71.309
'0:11.480',-66.727
'0:11.484',-69.704
'0:11.488',-75.617
'0:11.492',-76.713
'0:11.496',-71.857
'0:11.500',-82.9
'0:11.504',-84.232
'0:11.508',-90.184
'0:11.512',-77.222
'0:11.516',-73.737
'0:11.520',-83.449
'0:11.523',-82.352
'0:11.527',-88.03
'0:11.531',-92.612
'0:11.535',-90.184
'0:11.539',-84.232
'0:11.543',-82.626
'0:11.547',-71.309
'0:11.551',-76.165
'0:11.555',-58.387
'0:11.559',-68.333
'0:11.563',-65.122
'0:11.566',-69.429
'0:11.570',-59.444
'0:11.574',-59.444
'0:11.578',-68.607
'0:11.582',-64.026
'0:11.586',-67.785
'0:11.590',-59.17
'0:11.594',-60.266
'0:11.598',-53.531
'0:11.602',-48.127
'0:11.605',-50.555
'0:11.609',-57.29
'0:11.613',-59.17
'0:11.617',-69.429
'0:11.621',-48.675
'0:11.625',-51.377
'0:11.629',-56.742
'0:11.633',-57.838
'0:11.637',-68.881
'0:11.641',-64.574
'0:11.645',-67.002
'0:11.648',-72.406
'0:11.652',-73.737
'0:11.656',-69.155
'0:11.660',-65.122
'0:11.664',-66.727
'0:11.668',-55.685
'0:11.672',-57.564
'0:11.676',-53.531
'0:11.680',-64.3
'0:11.684',-49.184
'0:11.688',-55.41
'0:11.691',-42.175
'0:11.695',-38.415
'0:11.699',-48.127
'0:11.703',-47.304
'0:11.707',-37.867
'0:11.711',-11.983
'0:11.715',6.344
'0:11.719',14.411
'0:11.723',18.718
'0:11.727',13.627
'0:11.730',6.618
'0:11.734',6.618
'0:11.738',-2.31
'0:11.742',-13.079
'0:11.746',-32.502
'0:11.750',-39.747
'0:11.754',-57.838
'0:11.758',-67.55
'0:11.762',-62.146
'0:11.766',-65.122
'0:11.770',-71.857
'0:11.773',-88.813
'0:11.777',-83.174
'0:11.781',-94.491
'0:11.785',-96.645
'0:11.789',-102.832
'0:11.793',-89.362
'0:11.797',-100.444
'0:11.801',-94.217
'0:11.805',-79.924
'0:11.809',-86.66
'0:11.813',-88.578
'0:11.816',-99.073
'0:11.820',-93.434
'0:11.824',-80.198
'0:11.828',-71.309
'0:11.832',-57.564
'0:11.836',-67.002
'0:11.840',-44.368
'0:11.844',-47.03
'0:11.848',-53.766
'0:11.852',5.796
'0:11.855',117.126
'0:11.859',277.287
'0:11.863',374.872
'0:11.867',366.257
'0:11.871',157.577
'0:11.875',-117.4
'0:11.879',-347.931
'0:11.883',-653.373
'0:11.887',-852.068
'0:11.891',-881.986
'0:11.895',-789.256
'0:11.898',-624.239
'0:11.902',-484.871
'0:11.906',-315.546
'0:11.910',-175.63
'0:11.914',-92.338
'0:11.918',-64.848
'0:11.922',-51.886
'0:11.926',-2.036
'0:11.930',2.545
'0:11.934',21.146
'0:11.938',18.718
'0:11.941',15.233
'0:11.945',30.858
'0:11.949',48.949
'0:11.953',51.338
'0:11.957',51.612
'0:11.961',49.458
'0:11.965',47.853
'0:11.969',79.376
'0:11.973',80.747
'0:11.977',82.9
'0:11.980',83.174
'0:11.984',81.295
'0:11.988',95.04
'0:11.992',110.664
'0:11.996',113.092
'0:12.000',100.17
'0:12.004',114.972
'0:12.008',126.289
'0:12.012',140.034
'0:12.016',143.284
'0:12.020',148.14
'0:12.023',163.49
'0:12.027',173.75
'0:12.031',186.438
'0:12.035',190.197
'0:12.039',180.485
'0:12.043',196.384
'0:12.047',205.038
'0:12.051',231.432
'0:12.055',235.23
'0:12.059',243.571
'0:12.063',260.84
'0:12.066',268.907
'0:12.070',293.734
'0:12.074',296.671
'0:12.078',321.772
'0:12.082',339.825
'0:12.086',348.44
'0:12.090',357.603
'0:12.094',375.42
'0:12.098',382.939
'0:12.102',386.738
'0:12.105',396.723
'0:12.109',404.516
'0:12.113',404.79
'0:12.117',428.246
'0:12.121',416.655
'0:12.125',428.521
'0:12.129',420.415
'0:12.133',419.083
'0:12.137',394.295
'0:12.141',384.31
'0:12.145',348.714
'0:12.148',324.474
'0:12.152',289.662
'0:12.156',248.427
'0:12.160',207.192
'0:12.164',172.693
'0:12.168',131.419
'0:12.172',95.588
'0:12.176',69.429
'0:12.180',44.328
'0:12.184',26.824
'0:12.188',17.935
'0:12.191',-2.545
'0:12.195',2.819
'0:12.199',-5.796
'0:12.203',-5.796
'0:12.207',-13.353
'0:12.211',-18.209
'0:12.215',-29.8
'0:12.219',-22.517
'0:12.223',-22.517
'0:12.227',-13.627
'0:12.230',-18.483
'0:12.234',-29.526
'0:12.238',-21.968
'0:12.242',-37.593
'0:12.246',-44.368
'0:12.250',-34.108
'0:12.254',-31.68
'0:12.258',-39.512
'0:12.262',-36.262
'0:12.266',-42.449
'0:12.270',-33.834
'0:12.273',-48.401
'0:12.277',-55.41
'0:12.281',-51.377
'0:12.285',-57.838
'0:12.289',-50.281
'0:12.293',-65.122
'0:12.297',-55.685
'0:12.301',-51.377
'0:12.305',-57.016
'0:12.309',-64.574
'0:12.313',-64.3
'0:12.316',-72.406
'0:12.320',-67.55
'0:12.324',-72.131
'0:12.328',-64.3
'0:12.332',-65.122
'0:12.336',-72.915
'0:12.340',-66.727
'0:12.344',-70.761
'0:12.348',-79.141
'0:12.352',-65.122
'0:12.355',-74.285
'0:12.359',-67.002
'0:12.363',-69.429
'0:12.367',-61.872
'0:12.371',-65.396
'0:12.375',-74.285
'0:12.379',-66.453
'0:12.383',-68.333
'0:12.387',-76.987
'0:12.391',-80.472
'0:12.395',-74.794
'0:12.398',-83.174
'0:12.402',-83.449
'0:12.406',-91.006
'0:12.410',-80.198
'0:12.414',-76.713
'0:12.418',-83.997
'0:12.422',-81.804
'0:12.426',-88.813
'0:12.430',-79.924
'0:12.434',-78.045
'0:12.438',-84.78
'0:12.441',-95.823
'0:12.445',-101.775
'0:12.449',-110.39
'0:12.453',-95.314
'0:12.457',-103.107
'0:12.461',-111.487
'0:12.465',-114.698
'0:12.469',-109.059
'0:12.473',-112.27
'0:12.477',-104.477
'0:12.480',-96.097
'0:12.484',-97.742
'0:12.488',-91.006
'0:12.492',-95.588
'0:12.496',-104.203
'0:12.500',-95.588
'0:12.504',-96.919
'0:12.508',-90.458
'0:12.512',-79.65
'0:12.516',-89.087
'0:12.520',-94.491
'0:12.523',-78.867
'0:12.527',-74.011
'0:12.531',-64.848
'0:12.535',-42.723
'0:12.539',-16.329
'0:12.543',0.666
'0:12.547',-7.401
'0:12.551',2.545
'0:12.555',-9.555
'0:12.559',-0.392
'0:12.563',0.94
'0:12.566',-6.344
'0:12.570',-27.921
'0:12.574',-55.41
'0:12.578',-63.477
'0:12.582',-63.751
'0:12.586',-71.857
'0:12.590',-92.064
'0:12.594',-102.832
'0:12.598',-111.212
'0:12.602',-111.761
'0:12.605',-119.553
'0:12.609',-108.785
'0:12.613',-120.102
'0:12.617',-142.501
'0:12.621',-171.596
'0:12.625',-164.587
'0:12.629',-143.01
'0:12.633',-125.506
'0:12.637',-113.366
'0:12.641',-106.083
'0:12.645',-96.919
'0:12.648',-92.612
'0:12.652',-93.16
'0:12.656',-81.804
'0:12.660',-74.011
'0:12.664',-63.751
'0:12.668',-59.17
'0:12.672',-60.54
'0:12.676',-19.266
'0:12.680',80.472
'0:12.684',214.202
'0:12.688',331.21
'0:12.691',338.728
'0:12.695',189.649
'0:12.699',-93.16
'0:12.703',-342.253
'0:12.707',-642.056
'0:12.711',-876.856
'0:12.715',-914.331
'0:12.719',-844.51
'0:12.723',-697.31
'0:12.727',-553.36
'0:12.730',-390.497
'0:12.734',-243.297
'0:12.738',-134.121
'0:12.742',-91.515
'0:12.746',-56.468
'0:12.750',-27.098
'0:12.754',0.392
'0:12.758',11.983
'0:12.762',9.281
'0:12.766',12.257
'0:12.770',21.968
'0:12.773',30.309
'0:12.777',26.824
'0:12.781',27.372
'0:12.785',30.583
'0:12.789',37.593
'0:12.793',59.17
'0:12.797',56.468
'0:12.801',60.54
'0:12.805',65.631
'0:12.809',54.588
'0:12.813',73.737
'0:12.816',85.602
'0:12.820',91.006
'0:12.824',83.449
'0:12.828',88.813
'0:12.832',104.203
'0:12.836',114.189
'0:12.840',121.707
'0:12.844',117.4
'0:12.848',107.414
'0:12.852',104.751
'0:12.855',127.659
'0:12.859',134.121
'0:12.863',163.49
'0:12.867',170.774
'0:12.871',184.284
'0:12.875',191.019
'0:12.879',198.029
'0:12.883',227.124
'0:12.887',233.86
'0:12.891',246.821
'0:12.895',269.455
'0:12.898',276.739
'0:12.902',291.032
'0:12.906',298.59
'0:12.910',309.907
'0:12.914',330.661
'0:12.918',338.219
'0:12.922',354.392
'0:12.926',362.459
'0:12.930',372.993
'0:12.934',376.752
'0:12.938',384.584
'0:12.941',385.641
'0:12.945',394.021
'0:12.949',387.56
'0:12.953',390.497
'0:12.957',382.43
'0:12.961',368.92
'0:12.965',346.834
'0:12.969',323.926
'0:12.973',308.81
'0:12.977',268.398
'0:12.980',225.244
'0:12.984',172.928
'0:12.988',147.866
'0:12.992',128.443
'0:12.996',118.222
'0:13.000',78.045
'0:13.004',61.598
'0:13.008',36.81
'0:13.012',15.233
'0:13.016',3.642
'0:13.020',-4.464
'0:13.023',-19.541
'0:13.027',-11.474
'0:13.031',-33.56
'0:13.035',-29.526
'0:13.039',-37.358
'0:13.043',-20.089
'0:13.047',-12.257
'0:13.051',-17.935
'0:13.055',-28.704
'0:13.059',-20.089
'0:13.063',-35.439
'0:13.066',-27.372
'0:13.070',-33.834
'0:13.074',-14.685
'0:13.078',-21.968
'0:13.082',-18.483
'0:13.086',-24.944
'0:13.090',-16.839
'0:13.094',-0.666
'0:13.098',-23.339
'0:13.102',-16.839
'0:13.105',-22.517
'0:13.109',-32.228
'0:13.113',-33.011
'0:13.117',-40.295
'0:13.121',-33.56
'0:13.125',-22.517
'0:13.129',-16.564
'0:13.133',-33.285
'0:13.137',-23.574
'0:13.141',-48.401
'0:13.145',-52.434
'0:13.148',-62.968
'0:13.152',-65.905
'0:13.156',-73.737
'0:13.160',-65.122
'0:13.164',-68.059
'0:13.168',-62.146
'0:13.172',-66.179
'0:13.176',-74.011
'0:13.180',-80.472
'0:13.184',-82.352
'0:13.188',-77.496
'0:13.191',-67.55
'0:13.195',-75.617
'0:13.199',-64.3
'0:13.203',-64.848
'0:13.207',-59.992
'0:13.211',-66.727
'0:13.215',-75.617
'0:13.219',-79.924
'0:13.223',-79.415
'0:13.227',-75.068
'0:13.230',-67.55
'0:13.234',-61.598
'0:13.238',-64.574
'0:13.242',-61.598
'0:13.246',-41.391
'0:13.250',-51.886
'0:13.254',-46.247
'0:13.258',-48.401
'0:13.262',-59.992
'0:13.266',-54.862
'0:13.270',-66.727
'0:13.273',-63.477
'0:13.277',-65.905
'0:13.281',-59.992
'0:13.285',-53.766
'0:13.289',-50.281
'0:13.293',-48.401
'0:13.297',-50.555
'0:13.301',-58.387
'0:13.305',-66.727
'0:13.309',-49.184
'0:13.313',-51.103
'0:13.316',-37.358
'0:13.320',-26.824
'0:13.324',-32.502
'0:13.328',-45.973
'0:13.332',-49.184
'0:13.336',-23.574
'0:13.340',-29.8
'0:13.344',-0.666
'0:13.348',3.094
'0:13.352',14.685
'0:13.355',23.574
'0:13.359',18.718
'0:13.363',17.935
'0:13.367',21.694
'0:13.371',14.411
'0:13.375',-9.046
'0:13.379',-27.646
'0:13.383',-43.545
'0:13.387',-57.016
'0:13.391',-35.713
'0:13.395',-61.049
'0:13.398',-76.165
'0:13.402',-72.641
'0:13.406',-71.857
'0:13.410',-84.78
'0:13.414',-93.943
'0:13.418',-92.886
'0:13.422',-88.578
'0:13.426',-86.66
'0:13.430',-84.232
'0:13.434',-79.141
'0:13.438',-78.045
'0:13.441',-71.583
'0:13.445',-83.723
'0:13.449',-82.078
'0:13.453',-80.198
'0:13.457',-64.848
'0:13.461',-72.131
'0:13.465',-64.848
'0:13.469',-64.026
'0:13.473',-64.848
'0:13.477',-66.179
'0:13.480',-71.309
'0:13.484',-0.94
'0:13.488',136
'0:13.492',333.637
'0:13.496',477.313
'0:13.500',505.351
'0:13.504',328.782
'0:13.508',65.905
'0:13.512',-206.918
'0:13.516',-530.687
'0:13.520',-742.852
'0:13.523',-775.237
'0:13.527',-702.44
'0:13.531',-547.956
'0:13.535',-397.506
'0:13.539',-242.24
'0:13.543',-116.342
'0:13.547',-49.732
'0:13.551',-35.987
'0:13.555',-31.68
'0:13.559',-10.651
'0:13.563',14.137
'0:13.566',16.29
'0:13.570',14.959
'0:13.574',17.387
'0:13.578',35.439
'0:13.582',44.877
'0:13.586',34.382
'0:13.590',34.108
'0:13.594',33.285
'0:13.598',48.401
'0:13.602',58.622
'0:13.605',67.002
'0:13.609',67.785
'0:13.613',50.006
'0:13.617',63.751
'0:13.621',57.838
'0:13.625',67.276
'0:13.629',68.333
'0:13.633',80.747
'0:13.637',92.612
'0:13.641',89.087
'0:13.645',101.227
'0:13.648',102.049
'0:13.652',96.097
'0:13.656',122.255
'0:13.660',134.121
'0:13.664',163.764
'0:13.668',166.466
'0:13.672',161.336
'0:13.676',139.799
'0:13.680',151.116
'0:13.684',162.981
'0:13.688',164.587
'0:13.691',175.355
'0:13.695',216.355
'0:13.699',227.398
'0:13.703',242.788
'0:13.707',247.369
'0:13.711',256.259
'0:13.715',277.796
'0:13.719',288.33
'0:13.723',290.21
'0:13.727',296.945
'0:13.730',288.604
'0:13.734',276.739
'0:13.738',286.999
'0:13.742',303.681
'0:13.746',310.181
'0:13.750',318.796
'0:13.754',307.753
'0:13.758',302.623
'0:13.762',319.618
'0:13.766',309.085
'0:13.770',316.916
'0:13.773',290.21
'0:13.777',270.552
'0:13.781',225.793
'0:13.785',199.36
'0:13.789',156.755
'0:13.793',127.659
'0:13.797',106.905
'0:13.801',79.376
'0:13.805',70.487
'0:13.809',28.156
'0:13.813',14.411
'0:13.816',-6.892
'0:13.820',-18.209
'0:13.824',-26.276
'0:13.828',-21.146
'0:13.832',-35.987
'0:13.836',-40.021
'0:13.840',-33.834
'0:13.844',-41.391
'0:13.848',-36.81
'0:13.852',-36.81
'0:13.855',-26.002
'0:13.859',-34.108
'0:13.863',-38.964
'0:13.867',-50.006
'0:13.871',-37.358
'0:13.875',-44.602
'0:13.879',-35.165
'0:13.883',-37.867
'0:13.887',-32.502
'0:13.891',-37.358
'0:13.895',-29.526
'0:13.898',-20.089
'0:13.902',-21.146
'0:13.906',-30.583
'0:13.910',-35.439
'0:13.914',-30.074
'0:13.918',-37.358
'0:13.922',-52.16
'0:13.926',-44.368
'0:13.930',-51.612
'0:13.934',-47.853
'0:13.938',-54.314
'0:13.941',-51.377
'0:13.945',-58.896
'0:13.949',-66.453
'0:13.953',-48.949
'0:13.957',-56.194
'0:13.961',-66.727
'0:13.965',-71.857
'0:13.969',-65.122
'0:13.973',-66.727
'0:13.977',-58.112
'0:13.980',-66.727
'0:13.984',-69.429
'0:13.988',-63.477
'0:13.992',-67.276
'0:13.996',-90.732
'0:14.000',-81.295
'0:14.004',-99.895
'0:14.008',-79.141
'0:14.012',-84.78
'0:14.016',-91.789
'0:14.020',-81.021
'0:14.023',-82.626
'0:14.027',-78.319
'0:14.031',-68.607
'0:14.035',-61.324
'0:14.039',-65.396
'0:14.043',-64.3
'0:14.047',-59.718
'0:14.051',-68.059
'0:14.055',-62.42
'0:14.059',-66.179
'0:14.063',-63.477
'0:14.066',-58.112
'0:14.070',-67.55
'0:14.074',-62.968
'0:14.078',-66.727
'0:14.082',-62.968
'0:14.086',-56.742
'0:14.090',-66.727
'0:14.094',-63.203
'0:14.098',-67.276
'0:14.102',-62.42
'0:14.105',-55.685
'0:14.109',-35.165
'0:14.113',-33.285
'0:14.117',-51.103
'0:14.121',-58.622
'0:14.125',-52.434
'0:14.129',-35.987
'0:14.133',-5.796
'0:14.137',24.122
'0:14.141',36.262
'0:14.145',31.68
'0:14.148',17.661
'0:14.152',12.805
'0:14.156',6.892
'0:14.160',18.209
'0:14.164',-0.117
'0:14.168',-27.372
'0:14.172',-48.675
'0:14.176',-42.175
'0:14.180',-33.834
'0:14.184',-49.732
'0:14.188',-57.29
'0:14.191',-78.319
'0:14.195',-89.91
'0:14.199',-98.251
'0:14.203',-98.016
'0:14.207',-120.924
'0:14.211',-125.232
'0:14.215',-137.88
'0:14.219',-131.419
'0:14.223',-130.87
'0:14.227',-120.924
'0:14.230',-109.607
'0:14.234',-106.357
'0:14.238',-99.073
'0:14.242',-97.193
'0:14.246',-102.597
'0:14.250',-92.338
'0:14.254',-106.357
'0:14.258',-99.073
'0:14.262',-81.295
'0:14.266',-86.66
'0:14.270',-91.241
'0:14.273',-42.449
'0:14.277',85.328
'0:14.281',271.335
'0:14.285',442.265
'0:14.289',513.457
'0:14.293',375.146
'0:14.297',76.987
'0:14.301',-197.48
'0:14.305',-556.297
'0:14.309',-825.635
'0:14.313',-857.159
'0:14.316',-792.741
'0:14.320',-639.354
'0:14.324',-470.852
'0:14.328',-293.186
'0:14.332',-153.818
'0:14.336',-79.141
'0:14.340',-45.973
'0:14.344',-37.084
'0:14.348',-10.377
'0:14.352',8.772
'0:14.355',32.502
'0:14.359',35.165
'0:14.363',45.973
'0:14.367',39.747
'0:14.371',57.016
'0:14.375',47.579
'0:14.379',51.612
'0:14.383',47.304
'0:14.387',40.843
'0:14.391',55.959
'0:14.395',61.049
'0:14.398',66.179
'0:14.402',64.3
'0:14.406',74.011
'0:14.410',102.323
'0:14.414',90.732
'0:14.418',82.9
'0:14.422',83.449
'0:14.426',75.343
'0:14.430',85.054
'0:14.434',119.044
'0:14.438',126.563
'0:14.441',115.52
'0:14.445',142.227
'0:14.449',148.962
'0:14.453',164.313
'0:14.457',172.928
'0:14.461',179.702
'0:14.465',175.63
'0:14.469',182.365
'0:14.473',179.428
'0:14.477',217.687
'0:14.480',223.913
'0:14.484',238.715
'0:14.488',247.369
'0:14.492',259.47
'0:14.496',264.051
'0:14.500',286.45
'0:14.504',285.902
'0:14.508',295.614
'0:14.512',322.281
'0:14.516',324.983
'0:14.520',332.541
'0:14.523',349.81
'0:14.527',358.974
'0:14.531',384.036
'0:14.535',386.189
'0:14.539',379.454
'0:14.543',382.939
'0:14.547',375.42
'0:14.551',367.04
'0:14.555',367.863
'0:14.559',344.955
'0:14.563',334.147
'0:14.566',296.671
'0:14.570',256.259
'0:14.574',223.639
'0:14.578',182.913
'0:14.582',140.308
'0:14.586',119.828
'0:14.590',78.593
'0:14.594',45.425
'0:14.598',20.637
'0:14.602',-5.521
'0:14.605',-25.219
'0:14.609',-34.382
'0:14.613',-52.983
'0:14.617',-61.324
'0:14.621',-70.213
'0:14.625',-73.189
'0:14.629',-66.727
'0:14.633',-70.213
'0:14.637',-78.319
'0:14.641',-69.978
'0:14.645',-87.756
'0:14.648',-81.021
'0:14.652',-70.761
'0:14.656',-80.472
'0:14.660',-85.602
'0:14.664',-69.704
'0:14.668',-64.848
'0:14.672',-71.309
'0:14.676',-64.3
'0:14.680',-69.429
'0:14.684',-68.333
'0:14.688',-63.203
'0:14.691',-70.761
'0:14.695',-65.122
'0:14.699',-69.704
'0:14.703',-67.55
'0:14.707',-76.987
'0:14.711',-69.978
'0:14.715',-66.727
'0:14.719',-71.309
'0:14.723',-66.453
'0:14.727',-74.794
'0:14.730',-84.232
'0:14.734',-82.626
'0:14.738',-88.304
'0:14.742',-82.9
'0:14.746',-74.011
'0:14.750',-83.723
'0:14.754',-82.626
'0:14.758',-88.304
'0:14.762',-82.352
'0:14.766',-73.463
'0:14.770',-83.174
'0:14.773',-82.352
'0:14.777',-88.03
'0:14.781',-97.468
'0:14.785',-87.756
'0:14.789',-98.525
'0:14.793',-98.799
'0:14.797',-89.087
'0:14.801',-82.352
'0:14.805',-86.66
'0:14.809',-95.823
'0:14.813',-97.468
'0:14.816',-89.91
'0:14.820',-83.723
'0:14.824',-86.151
'0:14.828',-93.669
'0:14.832',-80.472
'0:14.836',-91.006
'0:14.840',-83.723
'0:14.844',-84.78
'0:14.848',-92.064
'0:14.852',-80.198
'0:14.855',-91.515
'0:14.859',-83.997
'0:14.863',-83.997
'0:14.867',-90.732
'0:14.871',-95.04
'0:14.875',-91.515
'0:14.879',-85.054
'0:14.883',-83.997
'0:14.887',-89.362
'0:14.891',-78.045
'0:14.895',-76.165
'0:14.898',-69.978
'0:14.902',-67.276
'0:14.906',-71.583
'0:14.910',-60.775
'0:14.914',-60.54
'0:14.918',-39.238
'0:14.922',-20.637
'0:14.926',7.675
'0:14.930',18.992
'0:14.934',4.973
'0:14.938',11.709
'0:14.941',-2.31
'0:14.945',-6.892
'0:14.949',-12.531
'0:14.953',-27.372
'0:14.957',-52.16
'0:14.961',-64.574
'0:14.965',-70.213
'0:14.969',-62.146
'0:14.973',-77.77
'0:14.977',-84.506
'0:14.980',-110.39
'0:14.984',-115.52
'0:14.988',-110.116
'0:14.992',-112.27
'0:14.996',-103.107
'0:15.000',-94.766
'0:15.004',-113.366
'0:15.008',-106.905
'0:15.012',-126.837
'0:15.016',-119.553
'0:15.020',-112.035
'0:15.023',-113.64
'0:15.027',-121.472
'0:15.031',-109.607
'0:15.035',-104.751
'0:15.039',-97.193
'0:15.043',-96.371
'0:15.047',-87.482
'0:15.051',-61.598
'0:15.055',-58.622
'0:15.059',-64.848
'0:15.063',-45.699
'0:15.066',54.588
'0:15.070',214.202
'0:15.074',357.329
'0:15.078',394.295
'0:15.082',244.393
'0:15.086',-50.006
'0:15.090',-290.758
'0:15.094',-615.898
'0:15.098',-884.413
'0:15.102',-936.182
'0:15.105',-879.832
'0:15.109',-697.858
'0:15.113',-534.486
'0:15.117',-370.565
'0:15.121',-199.634
'0:15.125',-101.501
'0:15.129',-57.29
'0:15.133',-37.084
'0:15.137',-23.574
'0:15.141',12.531
'0:15.145',13.353
'0:15.148',11.474
'0:15.152',29.8
'0:15.156',38.141
'0:15.160',57.564
'0:15.164',77.496
'0:15.168',62.42
'0:15.172',64.848
'0:15.176',54.314
'0:15.180',71.309
'0:15.184',91.515
'0:15.188',94.217
'0:15.191',82.078
'0:15.195',102.597
'0:15.199',116.342
'0:15.203',106.357
'0:15.207',97.468
'0:15.211',100.679
'0:15.215',116.068
'0:15.219',112.27
'0:15.223',121.433
'0:15.227',130.636
'0:15.230',133.024
'0:15.234',130.87
'0:15.238',142.736
'0:15.242',167.563
'0:15.246',177.509
'0:15.250',181.308
'0:15.254',195.053
'0:15.258',205.038
'0:15.262',229.552
'0:15.266',240.869
'0:15.270',245.999
'0:15.273',258.687
'0:15.277',267.027
'0:15.281',291.306
'0:15.285',303.955
'0:15.289',325.257
'0:15.293',337.123
'0:15.297',345.229
'0:15.301',370.016
'0:15.305',398.329
'0:15.309',419.083
'0:15.313',431.223
'0:15.316',439.838
'0:15.320',449.275
'0:15.324',446.573
'0:15.328',451.429
'0:15.332',476.491
'0:15.336',498.067
'0:15.340',493.212
'0:15.344',464.625
'0:15.348',424.487
'0:15.352',398.877
'0:15.355',382.704
'0:15.359',344.132
'0:15.363',302.897
'0:15.367',234.682
'0:15.371',192.625
'0:15.375',140.582
'0:15.379',115.246
'0:15.383',89.91
'0:15.387',56.194
'0:15.391',47.304
'0:15.395',10.925
'0:15.398',-14.411
'0:15.402',-38.415
'0:15.406',-40.569
'0:15.410',-66.179
'0:15.414',-70.213
'0:15.418',-80.198
'0:15.422',-72.131
'0:15.426',-57.838
'0:15.430',-66.179
'0:15.434',-69.155
'0:15.438',-78.867
'0:15.441',-87.208
'0:15.445',-73.189
'0:15.449',-67.002
'0:15.453',-70.487
'0:15.457',-78.593
'0:15.461',-69.978
'0:15.465',-57.016
'0:15.469',-66.727
'0:15.473',-69.429
'0:15.477',-77.77
'0:15.480',-69.978
'0:15.484',-72.641
'0:15.488',-50.555
'0:15.492',-54.588
'0:15.496',-61.872
'0:15.500',-68.059
'0:15.504',-54.588
'0:15.508',-50.829
'0:15.512',-55.41
'0:15.516',-61.872
'0:15.520',-67.002
'0:15.523',-68.881
'0:15.527',-50.281
'0:15.531',-57.016
'0:15.535',-62.968
'0:15.539',-65.631
'0:15.543',-82.352
'0:15.547',-79.924
'0:15.551',-89.087
'0:15.555',-81.569
'0:15.559',-83.449
'0:15.563',-96.919
'0:15.566',-92.886
'0:15.570',-103.929
'0:15.574',-99.073
'0:15.578',-100.953
'0:15.582',-96.371
'0:15.586',-106.905
'0:15.590',-117.674
'0:15.594',-114.972
'0:15.598',-103.107
'0:15.602',-97.742
'0:15.605',-105.025
'0:15.609',-114.698
'0:15.613',-98.525
'0:15.617',-105.025
'0:15.621',-113.366
'0:15.625',-117.948
'0:15.629',-112.818
'0:15.633',-100.17
'0:15.637',-107.179
'0:15.641',-97.193
'0:15.645',-99.621
'0:15.648',-95.04
'0:15.652',-99.895
'0:15.656',-91.789
'0:15.660',-97.468
'0:15.664',-98.016
'0:15.668',-92.886
'0:15.672',-99.621
'0:15.676',-92.886
'0:15.680',-82.078
'0:15.684',-81.569
'0:15.688',-90.732
'0:15.691',-81.804
'0:15.695',-62.42
'0:15.699',-68.333
'0:15.703',-79.65
'0:15.707',-70.761
'0:15.711',-80.472
'0:15.715',-64.026
'0:15.719',-54.588
'0:15.723',-17.387
'0:15.727',-7.401
'0:15.730',0.94
'0:15.734',-13.627
'0:15.738',-19.815
'0:15.742',-16.055
'0:15.746',-22.791
'0:15.750',-15.507
'0:15.754',-30.348
'0:15.758',-67.002
'0:15.762',-76.713
'0:15.766',-85.054
'0:15.770',-81.295
'0:15.773',-96.919
'0:15.777',-130.87
'0:15.781',-137.88
'0:15.785',-146.808
'0:15.789',-146.26
'0:15.793',-147.592
'0:15.797',-133.572
'0:15.801',-138.428
'0:15.805',-143.832
'0:15.809',-142.736
'0:15.813',-147.082
'0:15.816',-135.491
'0:15.820',-138.976
'0:15.824',-141.678
'0:15.828',-139.799
'0:15.832',-146.534
'0:15.836',-136.823
'0:15.840',-124.409
'0:15.844',-124.957
'0:15.848',-121.198
'0:15.852',-97.742
'0:15.855',-106.631
'0:15.859',-92.612
'0:15.863',2.036
'0:15.867',141.953
'0:15.871',288.604
'0:15.875',381.334
'0:15.879',315.82
'0:15.883',49.458
'0:15.887',-199.634
'0:15.891',-483.774
'0:15.895',-749.862
'0:15.898',-847.721
'0:15.902',-808.366
'0:15.906',-712.661
'0:15.910',-557.942
'0:15.914',-443.871
'0:15.918',-291.58
'0:15.922',-180.211
'0:15.926',-110.116
'0:15.930',-110.938
'0:15.934',-124.683
'0:15.938',-75.891
'0:15.941',-52.434
'0:15.945',-30.583
'0:15.949',-28.156
'0:15.953',4.699
'0:15.957',18.483
'0:15.961',27.921
'0:15.965',21.146
'0:15.969',23.574
'0:15.973',36.536
'0:15.977',31.954
'0:15.980',42.997
'0:15.984',38.964
'0:15.988',41.391
'0:15.992',36.262
'0:15.996',46.247
'0:16.000',57.29
'0:16.004',85.876
'0:16.008',89.087
'0:16.012',84.78
'0:16.016',94.491
'0:16.020',89.362
'0:16.023',102.597
'0:16.027',105.534
'0:16.031',115.52
'0:16.035',124.135
'0:16.039',135.726
'0:16.043',150.568
'0:16.047',154.327
'0:16.051',163.49
'0:16.055',170.5
'0:16.059',166.74
'0:16.063',167.837
'0:16.066',171.87
'0:16.070',178.332
'0:16.074',199.086
'0:16.078',211.225
'0:16.082',230.648
'0:16.086',236.561
'0:16.090',242.788
'0:16.094',261.389
'0:16.098',257.042
'0:16.102',278.07
'0:16.105',300.195
'0:16.109',305.051
'0:16.113',323.104
'0:16.117',335.243
'0:16.121',341.156
'0:16.125',348.988
'0:16.129',337.945
'0:16.133',338.219
'0:16.137',348.44
'0:16.141',338.728
'0:16.145',333.089
'0:16.148',322.555
'0:16.152',289.662
'0:16.156',267.576
'0:16.160',242.514
'0:16.164',205.312
'0:16.168',162.981
'0:16.172',128.991
'0:16.176',89.087
'0:16.180',79.65
'0:16.184',43.271
'0:16.188',18.209
'0:16.191',-0.117
'0:16.195',-25.219
'0:16.199',-18.757
'0:16.203',-22.517
'0:16.207',-15.507
'0:16.211',-33.011
'0:16.215',-25.219
'0:16.219',-34.656
'0:16.223',-37.593
'0:16.227',-46.247
'0:16.230',-48.949
'0:16.234',-42.723
'0:16.238',-51.612
'0:16.242',-52.708
'0:16.246',-44.877
'0:16.250',-49.458
'0:16.254',-44.093
'0:16.258',-36.262
'0:16.262',-51.612
'0:16.266',-42.997
'0:16.270',-33.285
'0:16.273',-30.348
'0:16.277',-21.42
'0:16.281',-34.108
'0:16.285',-24.396
'0:16.289',-32.502
'0:16.293',-30.858
'0:16.297',-38.141
'0:16.301',-33.56
'0:16.305',-39.512
'0:16.309',-31.954
'0:16.313',-31.954
'0:16.316',-23.574
'0:16.320',-33.285
'0:16.324',-37.084
'0:16.328',-45.973
'0:16.332',-32.502
'0:16.336',-41.666
'0:16.340',-33.834
'0:16.344',-35.987
'0:16.348',-44.368
'0:16.352',-47.853
'0:16.355',-42.449
'0:16.359',-50.829
'0:16.363',-66.453
'0:16.367',-58.112
'0:16.371',-64.3
'0:16.375',-60.266
'0:16.379',-67.55
'0:16.383',-65.396
'0:16.387',-57.29
'0:16.391',-48.949
'0:16.395',-61.324
'0:16.398',-66.453
'0:16.402',-63.477
'0:16.406',-56.468
'0:16.410',-65.122
'0:16.414',-61.598
'0:16.418',-66.727
'0:16.422',-62.694
'0:16.426',-71.035
'0:16.430',-64.3
'0:16.434',-78.319
'0:16.438',-67.55
'0:16.441',-78.319
'0:16.445',-85.054
'0:16.449',-78.867
'0:16.453',-79.415
'0:16.457',-69.704
'0:16.461',-62.968
'0:16.465',-51.886
'0:16.469',-61.324
'0:16.473',-62.146
'0:16.477',-69.155
'0:16.480',-62.694
'0:16.484',-51.886
'0:16.488',-61.049
'0:16.492',-61.598
'0:16.496',-53.257
'0:16.500',-47.304
'0:16.504',-51.103
'0:16.508',-43.545
'0:16.512',-61.049
'0:16.516',-53.257
'0:16.520',-47.579
'0:16.523',-35.713
'0:16.527',-12.531
'0:16.531',1.488
'0:16.535',24.944
'0:16.539',32.502
'0:16.543',30.858
'0:16.547',38.415
'0:16.551',34.382
'0:16.555',40.021
'0:16.559',32.228
'0:16.563',1.214
'0:16.566',-21.42
'0:16.570',-28.156
'0:16.574',-27.098
'0:16.578',-35.439
'0:16.582',-47.03
'0:16.586',-67.002
'0:16.590',-74.559
'0:16.594',-91.241
'0:16.598',-85.054
'0:16.602',-96.097
'0:16.605',-83.174
'0:16.609',-90.184
'0:16.613',-91.241
'0:16.617',-85.328
'0:16.621',-80.472
'0:16.625',-67.276
'0:16.629',-73.463
'0:16.633',-74.285
'0:16.637',-68.881
'0:16.641',-64.574
'0:16.645',-66.727
'0:16.648',-71.857
'0:16.652',-57.838
'0:16.656',-54.04
'0:16.660',-64.848
'0:16.664',-79.924
'0:16.668',-38.689
'0:16.672',94.217
'0:16.676',264.6
'0:16.680',415.598
'0:16.684',462.746
'0:16.688',317.7
'0:16.691',67.785
'0:16.695',-210.677
'0:16.699',-539.067
'0:16.703',-764.977
'0:16.707',-786.28
'0:16.711',-719.396
'0:16.715',-584.335
'0:16.719',-435.256
'0:16.723',-278.345
'0:16.727',-145.164
'0:16.730',-70.213
'0:16.734',-57.564
'0:16.738',-51.377
'0:16.742',-28.156
'0:16.746',1.488
'0:16.750',9.555
'0:16.754',23.3
'0:16.758',29.8
'0:16.762',21.146
'0:16.766',35.713
'0:16.770',42.449
'0:16.773',38.415
'0:16.777',44.877
'0:16.781',37.319
'0:16.785',36.81
'0:16.789',27.921
'0:16.793',38.141
'0:16.797',27.098
'0:16.801',51.612
'0:16.805',51.886
'0:16.809',44.877
'0:16.813',55.136
'0:16.816',42.723
'0:16.820',50.829
'0:16.824',51.886
'0:16.828',60.775
'0:16.832',54.862
'0:16.836',58.347
'0:16.840',65.905
'0:16.844',82.9
'0:16.848',92.064
'0:16.852',86.934
'0:16.855',106.083
'0:16.859',112.818
'0:16.863',114.424
'0:16.867',140.308
'0:16.871',150.019
'0:16.875',152.447
'0:16.879',176.178
'0:16.883',193.721
'0:16.887',203.668
'0:16.891',214.202
'0:16.895',231.706
'0:16.898',238.441
'0:16.902',241.691
'0:16.906',252.46
'0:16.910',277.013
'0:16.914',277.013
'0:16.918',285.08
'0:16.922',289.936
'0:16.926',300.744
'0:16.930',292.364
'0:16.934',307.479
'0:16.938',298.825
'0:16.941',304.503
'0:16.945',300.47
'0:16.949',292.364
'0:16.953',290.21
'0:16.957',249.797
'0:16.961',225.793
'0:16.965',190.471
'0:16.969',164.313
'0:16.973',128.208
'0:16.977',87.756
'0:16.980',64.3
'0:16.984',45.425
'0:16.988',18.718
'0:16.992',-1.488
'0:16.996',-10.377
'0:17.000',-18.209
'0:17.004',-35.165
'0:17.008',-44.368
'0:17.012',-49.732
'0:17.016',-60.266
'0:17.020',-51.612
'0:17.023',-67.276
'0:17.027',-59.17
'0:17.031',-65.631
'0:17.035',-76.987
'0:17.039',-67.785
'0:17.043',-97.742
'0:17.047',-89.087
'0:17.051',-81.569
'0:17.055',-64.3
'0:17.059',-70.213
'0:17.063',-64.3
'0:17.066',-70.213
'0:17.070',-64.026
'0:17.074',-64.848
'0:17.078',-55.685
'0:17.082',-48.675
'0:17.086',-52.708
'0:17.090',-61.598
'0:17.094',-63.477
'0:17.098',-56.468
'0:17.102',-65.631
'0:17.105',-67.276
'0:17.109',-60.266
'0:17.113',-64.3
'0:17.117',-57.838
'0:17.121',-65.396
'0:17.125',-65.631
'0:17.129',-58.896
'0:17.133',-79.924
'0:17.137',-74.011
'0:17.141',-65.905
'0:17.145',-66.179
'0:17.148',-73.737
'0:17.152',-78.045
'0:17.156',-74.011
'0:17.160',-82.626
'0:17.164',-66.179
'0:17.168',-73.189
'0:17.172',-77.496
'0:17.176',-89.087
'0:17.180',-82.078
'0:17.184',-82.352
'0:17.188',-88.578
'0:17.191',-92.612
'0:17.195',-89.087
'0:17.199',-83.174
'0:17.203',-82.352
'0:17.207',-87.208
'0:17.211',-75.617
'0:17.215',-89.087
'0:17.219',-98.251
'0:17.223',-96.645
'0:17.227',-102.323
'0:17.230',-92.064
'0:17.234',-90.458
'0:17.238',-98.799
'0:17.242',-95.04
'0:17.246',-84.78
'0:17.250',-92.064
'0:17.254',-90.458
'0:17.258',-82.626
'0:17.262',-94.491
'0:17.266',-83.449
'0:17.270',-91.006
'0:17.273',-75.343
'0:17.277',-83.723
'0:17.281',-77.77
'0:17.285',-81.569
'0:17.289',-89.087
'0:17.293',-90.732
'0:17.297',-84.506
'0:17.301',-94.217
'0:17.305',-80.472
'0:17.309',-88.304
'0:17.313',-74.794
'0:17.316',-85.054
'0:17.320',-93.16
'0:17.324',-78.867
'0:17.328',-72.131
'0:17.332',-76.165
'0:17.336',-69.155
'0:17.340',-61.049
'0:17.344',-62.146
'0:17.348',-54.588
'0:17.352',-43.819
'0:17.355',-38.415
'0:17.359',-44.877
'0:17.363',-28.156
'0:17.367',-6.344
'0:17.371',17.935
'0:17.375',38.964
'0:17.379',35.165
'0:17.383',39.238
'0:17.387',29.8
'0:17.391',19.815
'0:17.395',22.242
'0:17.398',1.762
'0:17.402',-7.949
'0:17.406',-31.68
'0:17.410',-42.723
'0:17.414',-43.545
'0:17.418',-49.458
'0:17.422',-57.29
'0:17.426',-77.222
'0:17.430',-88.304
'0:17.434',-91.789
'0:17.438',-84.232
'0:17.441',-91.241
'0:17.445',-76.713
'0:17.449',-86.66
'0:17.453',-106.357
'0:17.457',-99.347
'0:17.461',-92.064
'0:17.465',-78.319
'0:17.469',-71.035
'0:17.473',-73.737
'0:17.477',-82.352
'0:17.480',-74.559
'0:17.484',-61.872
'0:17.488',-70.761
'0:17.492',-57.564
'0:17.496',-50.829
'0:17.500',-43.271
'0:17.504',-59.992
'0:17.508',-20.911
'0:17.512',65.631
'0:17.516',239.263
'0:17.520',419.357
'0:17.523',508.327
'0:17.527',424.213
'0:17.531',134.121
'0:17.535',-118.496
'0:17.539',-419.083
'0:17.543',-748.805
'0:17.547',-862.288
'0:17.551',-835.895
'0:17.555',-703.497
'0:17.559',-549.288
'0:17.563',-366.531
'0:17.566',-179.702
'0:17.570',-63.751
'0:17.574',-17.387
'0:17.578',-1.762
'0:17.582',1.488
'0:17.586',20.089
'0:17.590',34.108
'0:17.594',46.521
'0:17.598',46.521
'0:17.602',50.555
'0:17.605',68.333
'0:17.609',65.905
'0:17.613',78.593
'0:17.617',93.943
'0:17.621',81.804
'0:17.625',85.328
'0:17.629',83.449
'0:17.633',78.593
'0:17.637',61.872
'0:17.641',65.905
'0:17.645',83.723
'0:17.648',96.645
'0:17.652',93.395
'0:17.656',79.376
'0:17.660',68.059
'0:17.664',83.997
'0:17.668',124.957
'0:17.672',136.549
'0:17.676',141.678
'0:17.680',134.395
'0:17.684',135.217
'0:17.688',141.953
'0:17.691',135.452
'0:17.695',155.423
'0:17.699',163.764
'0:17.703',196.932
'0:17.707',235.778
'0:17.711',245.451
'0:17.715',251.129
'0:17.719',261.389
'0:17.723',246.821
'0:17.727',268.907
'0:17.730',260.018
'0:17.734',295.34
'0:17.738',305.325
'0:17.742',309.633
'0:17.746',333.872
'0:17.750',339.551
'0:17.754',356.546
'0:17.758',351.416
'0:17.762',357.603
'0:17.766',366.257
'0:17.770',370.565
'0:17.773',385.367
'0:17.777',395.627
'0:17.781',388.069
'0:17.785',399.151
'0:17.789',417.752
'0:17.793',413.679
'0:17.797',408.823
'0:17.801',372.993
'0:17.805',338.728
'0:17.809',292.638
'0:17.813',237.932
'0:17.816',198.303
'0:17.820',146.26
'0:17.824',113.092
'0:17.828',83.174
'0:17.832',42.723
'0:17.836',34.382
'0:17.840',14.411
'0:17.844',14.959
'0:17.848',2.545
'0:17.852',-21.42
'0:17.855',-30.348
'0:17.859',-34.656
'0:17.863',-34.108
'0:17.867',-45.151
'0:17.871',-52.708
'0:17.875',-31.954
'0:17.879',-37.358
'0:17.883',-34.108
'0:17.887',-42.449
'0:17.891',-35.439
'0:17.895',-33.56
'0:17.898',-23.339
'0:17.902',-18.483
'0:17.906',-40.021
'0:17.910',-48.127
'0:17.914',-48.675
'0:17.918',-57.016
'0:17.922',-35.987
'0:17.926',-40.569
'0:17.930',-31.68
'0:17.934',-47.853
'0:17.938',-40.295
'0:17.941',-51.612
'0:17.945',-55.136
'0:17.949',-62.694
'0:17.953',-48.675
'0:17.957',-42.997
'0:17.961',-52.16
'0:17.965',-52.983
'0:17.969',-44.877
'0:17.973',-49.184
'0:17.977',-44.093
'0:17.980',-52.16
'0:17.984',-51.377
'0:17.988',-59.17
'0:17.992',-64.574
'0:17.996',-61.049
'0:18.000',-68.881
'0:18.004',-67.002
'0:18.008',-73.737
'0:18.012',-64.3
'0:18.016',-77.77
'0:18.020',-84.78
'0:18.023',-81.569
'0:18.027',-73.189
'0:18.031',-80.747
'0:18.035',-62.694
'0:18.039',-85.054
'0:18.043',-79.924
'0:18.047',-86.66
'0:18.051',-80.472
'0:18.055',-80.198
'0:18.059',-70.487
'0:18.063',-64.026
'0:18.066',-69.155
'0:18.070',-77.77
'0:18.074',-63.477
'0:18.078',-71.857
'0:18.082',-64.574
'0:18.086',-52.16
'0:18.090',-61.049
'0:18.094',-78.319
'0:18.098',-86.151
'0:18.102',-64.848
'0:18.105',-54.04
'0:18.109',-61.598
'0:18.113',-61.049
'0:18.117',-68.881
'0:18.121',-64.026
'0:18.125',-84.506
'0:18.129',-91.789
'0:18.133',-77.222
'0:18.137',-71.857
'0:18.141',-81.295
'0:18.145',-82.078
'0:18.148',-73.737
'0:18.152',-77.77
'0:18.156',-88.304
'0:18.160',-95.823
'0:18.164',-96.371
'0:18.168',-104.751
'0:18.172',-94.217
'0:18.176',-74.559
'0:18.180',-66.453
'0:18.184',-79.141
'0:18.188',-69.155
'0:18.191',-76.439
'0:18.195',-90.458
'0:18.199',-82.352
'0:18.203',-94.766
'0:18.207',-99.895
'0:18.211',-107.179
'0:18.215',-106.905
'0:18.219',-84.506
'0:18.223',-80.472
'0:18.227',-83.174
'0:18.230',-88.304
'0:18.234',-89.087
'0:18.238',-84.78
'0:18.242',-96.645
'0:18.246',-97.468
'0:18.250',-87.208
'0:18.254',-89.91
'0:18.258',-85.602
'0:18.262',-80.198
'0:18.266',-80.747
'0:18.270',-70.213
'0:18.273',-58.112
'0:18.277',-54.588
'0:18.281',-32.737
'0:18.285',-1.214
'0:18.289',-6.344
'0:18.293',-7.949
'0:18.297',-19.541
'0:18.301',-15.233
'0:18.305',-17.113
'0:18.309',8.498
'0:18.313',-9.32
'0:18.316',-34.108
'0:18.320',-59.17
'0:18.324',-62.42
'0:18.328',-72.406
'0:18.332',-75.617
'0:18.336',-83.997
'0:18.340',-91.241
'0:18.344',-93.434
'0:18.348',-87.756
'0:18.352',-92.612
'0:18.355',-85.328
'0:18.359',-91.515
'0:18.363',-91.515
'0:18.367',-101.501
'0:18.371',-107.453
'0:18.375',-102.049
'0:18.379',-93.16
'0:18.383',-92.064
'0:18.387',-83.997
'0:18.391',-74.794
'0:18.395',-71.035
'0:18.398',-76.987
'0:18.402',-89.087
'0:18.406',-81.295
'0:18.410',-59.444
'0:18.414',-73.737
'0:18.418',-61.324
'0:18.422',-24.944
'0:18.426',105.534
'0:18.430',294.008
'0:18.434',438.232
'0:18.438',449.001
'0:18.441',255.71
'0:18.445',-42.449
'0:18.449',-307.479
'0:18.453',-634.224
'0:18.457',-850.971
'0:18.461',-852.068
'0:18.465',-765.252
'0:18.469',-630.7
'0:18.473',-479.741
'0:18.477',-316.094
'0:18.480',-149.51
'0:18.484',-54.04
'0:18.488',-38.415
'0:18.492',-28.978
'0:18.496',-1.214
'0:18.500',13.079
'0:18.504',12.257
'0:18.508',13.902
'0:18.512',20.911
'0:18.516',44.093
'0:18.520',57.838
'0:18.523',45.151
'0:18.527',34.656
'0:18.531',39.512
'0:18.535',41.94
'0:18.539',54.314
'0:18.543',59.992
'0:18.547',67.785
'0:18.551',57.016
'0:18.555',42.723
'0:18.559',53.766
'0:18.563',58.622
'0:18.566',66.727
'0:18.570',57.29
'0:18.574',58.896
'0:18.578',53.257
'0:18.582',74.011
'0:18.586',81.804
'0:18.590',88.578
'0:18.594',90.184
'0:18.598',85.328
'0:18.602',90.732
'0:18.605',83.174
'0:18.609',104.203
'0:18.613',134.669
'0:18.617',144.655
'0:18.621',138.702
'0:18.625',151.116
'0:18.629',184.793
'0:18.633',225.793
'0:18.637',235.778
'0:18.641',235.23
'0:18.645',220.389
'0:18.648',236.561
'0:18.652',255.162
'0:18.656',262.172
'0:18.660',295.34
'0:18.664',284.297
'0:18.668',287.508
'0:18.672',288.878
'0:18.676',306.931
'0:18.680',306.657
'0:18.684',299.647
'0:18.688',305.599
'0:18.691',320.402
'0:18.695',334.147
'0:18.699',334.147
'0:18.703',331.21
'0:18.707',324.2
'0:18.711',306.383
'0:18.715',285.354
'0:18.719',252.186
'0:18.723',219.057
'0:18.727',181.856
'0:18.730',131.967
'0:18.734',92.612
'0:18.738',72.131
'0:18.742',69.429
'0:18.746',35.165
'0:18.750',20.911
'0:18.754',-3.368
'0:18.758',-26.002
'0:18.762',-28.704
'0:18.766',-29.8
'0:18.770',-43.545
'0:18.773',-51.377
'0:18.777',-43.545
'0:18.781',-46.756
'0:18.785',-45.699
'0:18.789',-41.666
'0:18.793',-35.439
'0:18.797',-45.151
'0:18.801',-46.756
'0:18.805',-44.093
'0:18.809',-55.959
'0:18.813',-66.179
'0:18.816',-61.598
'0:18.820',-49.458
'0:18.824',-29.8
'0:18.828',-23.574
'0:18.832',-32.502
'0:18.836',-43.819
'0:18.840',-32.737
'0:18.844',-45.699
'0:18.848',-38.689
'0:18.852',-47.853
'0:18.855',-44.602
'0:18.859',-65.122
'0:18.863',-60.266
'0:18.867',-53.766
'0:18.871',-64.3
'0:18.875',-61.598
'0:18.879',-65.631
'0:18.883',-59.992
'0:18.887',-68.059
'0:18.891',-78.319
'0:18.895',-77.496
'0:18.898',-82.9
'0:18.902',-76.713
'0:18.906',-82.9
'0:18.910',-77.222
'0:18.914',-78.045
'0:18.918',-68.059
'0:18.922',-76.439
'0:18.926',-80.472
'0:18.930',-75.343
'0:18.934',-78.593
'0:18.938',-69.978
'0:18.941',-76.713
'0:18.945',-62.968
'0:18.949',-58.387
'0:18.953',-78.319
'0:18.957',-69.429
'0:18.961',-76.165
'0:18.965',-62.968
'0:18.969',-73.737
'0:18.973',-61.872
'0:18.977',-54.862
'0:18.980',-60.775
'0:18.984',-60.775
'0:18.988',-70.761
'0:18.992',-61.598
'0:18.996',-72.406
'0:19.000',-77.222
'0:19.004',-75.343
'0:19.008',-85.054
'0:19.012',-77.496
'0:19.016',-74.011
'0:19.020',-78.593
'0:19.023',-74.285
'0:19.027',-67.276
'0:19.031',-76.713
'0:19.035',-74.011
'0:19.039',-63.203
'0:19.043',-74.285
'0:19.047',-65.396
'0:19.051',-59.718
'0:19.055',-59.17
'0:19.059',-64.026
'0:19.063',-72.406
'0:19.066',-78.593
'0:19.070',-74.559
'0:19.074',-76.713
'0:19.078',-81.569
'0:19.082',-72.406
'0:19.086',-77.222
'0:19.090',-88.578
'0:19.094',-76.165
'0:19.098',-83.174
'0:19.102',-73.463
'0:19.105',-75.891
'0:19.109',-71.035
'0:19.113',-75.891
'0:19.117',-68.059
'0:19.121',-58.387
'0:19.125',-59.17
'0:19.129',-53.257
'0:19.133',-58.896
'0:19.137',-83.449
'0:19.141',-88.578
'0:19.145',-89.636
'0:19.148',-54.588
'0:19.152',-31.132
'0:19.156',-22.791
'0:19.160',-7.949
'0:19.164',-6.344
'0:19.168',-3.094
'0:19.172',-13.353
'0:19.176',-7.127
'0:19.180',-24.67
'0:19.184',-36.262
'0:19.188',-48.127
'0:19.191',-44.877
'0:19.195',-57.838
'0:19.199',-74.011
'0:19.203',-82.626
'0:19.207',-78.319
'0:19.211',-93.16
'0:19.215',-106.905
'0:19.219',-91.241
'0:19.223',-83.997
'0:19.227',-78.045
'0:19.230',-91.241
'0:19.234',-89.636
'0:19.238',-76.439
'0:19.242',-69.155
'0:19.246',-76.713
'0:19.250',-72.641
'0:19.254',-73.463
'0:19.258',-62.146
'0:19.262',-69.429
'0:19.266',-58.622
'0:19.270',-55.136
'0:19.273',-42.449
'0:19.277',-32.228
'0:19.281',-37.358
'0:19.285',-8.772
'0:19.289',70.761
'0:19.293',203.119
'0:19.297',337.945
'0:19.301',389.165
'0:19.305',308.027
'0:19.309',54.314
'0:19.313',-162.159
'0:19.316',-395.901
'0:19.320',-634.224
'0:19.324',-709.175
'0:19.328',-701.892
'0:19.332',-621.811
'0:19.336',-499.712
'0:19.340',-376.204
'0:19.344',-234.134
'0:19.348',-138.428
'0:19.352',-83.997
'0:19.355',-55.41
'0:19.359',-30.348
'0:19.363',-4.464
'0:19.367',-6.07
'0:19.371',0.392
'0:19.375',10.651
'0:19.379',1.214
'0:19.383',11.474
'0:19.387',26.55
'0:19.391',16.839
'0:19.395',11.709
'0:19.398',17.661
'0:19.402',10.377
'0:19.406',26.276
'0:19.410',32.737
'0:19.414',42.723
'0:19.418',32.737
'0:19.422',27.646
'0:19.426',43.819
'0:19.430',48.401
'0:19.434',57.016
'0:19.438',47.853
'0:19.441',59.718
'0:19.445',60.266
'0:19.449',65.122
'0:19.453',72.641
'0:19.457',78.045
'0:19.461',89.91
'0:19.465',107.962
'0:19.469',113.64
'0:19.473',120.924
'0:19.477',125.232
'0:19.480',136.823
'0:19.484',155.149
'0:19.488',161.611
'0:19.492',168.894
'0:19.496',157.303
'0:19.500',184.01
'0:19.504',201.514
'0:19.508',208.249
'0:19.512',232.254
'0:19.516',235.778
'0:19.520',246.547
'0:19.523',265.422
'0:19.527',272.431
'0:19.531',279.715
'0:19.535',282.652
'0:19.539',292.912
'0:19.543',296.436
'0:19.547',304.229
'0:19.551',310.964
'0:19.555',327.959
'0:19.559',322.046
'0:19.563',312.609
'0:19.566',306.383
'0:19.570',295.34
'0:19.574',278.07
'0:19.578',256.259
'0:19.582',232.254
'0:19.586',210.951
'0:19.590',167.837
'0:19.594',148.962
'0:19.598',109.842
'0:19.602',86.385
'0:19.605',50.829
'0:19.609',23.848
'0:19.613',18.718
'0:19.617',-6.344
'0:19.621',-11.983
'0:19.625',-13.353
'0:19.629',-24.396
'0:19.633',-45.425
'0:19.637',-54.314
'0:19.641',-60.775
'0:19.645',-61.872
'0:19.648',-56.468
'0:19.652',-62.42
'0:19.656',-71.035
'0:19.660',-76.165
'0:19.664',-76.439
'0:19.668',-71.857
'0:19.672',-78.867
'0:19.676',-56.742
'0:19.680',-61.598
'0:19.684',-43.819
'0:19.688',-53.531
'0:19.691',-45.425
'0:19.695',-41.391
'0:19.699',-46.247
'0:19.703',-42.723
'0:19.707',-51.377
'0:19.711',-44.602
'0:19.715',-42.723
'0:19.719',-47.579
'0:19.723',-42.175
'0:19.727',-33.834
'0:19.730',-44.093
'0:19.734',-42.723
'0:19.738',-47.853
'0:19.742',-57.29
'0:19.746',-48.401
'0:19.750',-44.093
'0:19.754',-44.368
'0:19.758',-48.675
'0:19.762',-55.959
'0:19.766',-46.247
'0:19.770',-43.819
'0:19.773',-45.973
'0:19.777',-64.848
'0:19.781',-69.978
'0:19.785',-75.891
'0:19.789',-75.068
'0:19.793',-79.415
'0:19.797',-67.276
'0:19.801',-71.035
'0:19.805',-74.011
'0:19.809',-72.406
'0:19.813',-79.141
'0:19.816',-69.155
'0:19.820',-72.131
'0:19.824',-57.016
'0:19.828',-70.487
'0:19.832',-61.872
'0:19.836',-69.978
'0:19.840',-57.016
'0:19.844',-72.131
'0:19.848',-67.785
'0:19.852',-61.598
'0:19.855',-56.194
'0:19.859',-58.387
'0:19.863',-54.314
'0:19.867',-49.458
'0:19.871',-45.151
'0:19.875',-57.016
'0:19.879',-42.997
'0:19.883',-53.531
'0:19.887',-47.579
'0:19.891',-44.368
'0:19.895',-42.449
'0:19.898',-44.368
'0:19.902',-52.16
'0:19.906',-45.151
'0:19.910',-58.896
'0:19.914',-59.17
'0:19.918',-61.598
'0:19.922',-68.333
'0:19.926',-59.718
'0:19.930',-58.387
'0:19.934',-60.266
'0:19.938',-62.694
'0:19.941',-51.886
'0:19.945',-58.112
'0:19.949',-56.468
'0:19.953',-60.266
'0:19.957',-63.751
'0:19.961',-67.785
'0:19.965',-56.742
'0:19.969',-71.309
'0:19.973',-75.617
'0:19.977',-64.848
'0:19.980',-53.766
'0:19.984',-56.468
'0:19.988',-52.983
'0:19.992',-58.622
'0:19.996',-50.006
'0:20.000',-39.238
'0:20.004',-40.021
'0:20.008',-35.165
'0:20.012',-41.391
'0:20.016',-50.006
'0:20.020',-39.238
'0:20.023',-39.747
'0:20.027',-19.266
'0:20.031',20.363
'0:20.035',26.276
'0:20.039',40.295
'0:20.043',28.156
'0:20.047',33.285
'0:20.051',37.319
'0:20.055',40.295
'0:20.059',22.791
'0:20.063',-0.94
'0:20.066',-10.651
'0:20.070',-25.728
'0:20.074',-11.2
'0:20.078',-13.627
'0:20.082',-33.834
'0:20.086',-54.314
'0:20.090',-69.704
'0:20.094',-75.891
'0:20.098',-81.021
'0:20.102',-83.723
'0:20.105',-70.213
'0:20.109',-69.155
'0:20.113',-91.515
'0:20.117',-80.747
'0:20.121',-84.232
'0:20.125',-70.213
'0:20.129',-83.723
'0:20.133',-74.559
'0:20.137',-81.569
'0:20.141',-68.881
'0:20.145',-54.04
'0:20.148',-51.103
'0:20.152',-57.564
'0:20.156',-49.184
'0:20.160',-37.593
'0:20.164',-53.257
'0:20.168',-48.127
'0:20.172',36.262
'0:20.176',209.072
'0:20.180',390.771
'0:20.184',512.087
'0:20.188',457.89
'0:20.191',182.365
'0:20.195',-83.174
'0:20.199',-395.353
'0:20.203',-725.622
'0:20.207',-874.976
'0:20.211',-850.697
'0:20.215',-732.358
'0:20.219',-560.096
'0:20.223',-393.199
'0:20.227',-223.639
'0:20.230',-108.785
'0:20.234',-47.304
'0:20.238',-31.406
'0:20.242',-10.925
'0:20.246',8.223
'0:20.250',37.593
'0:20.254',49.184
'0:20.258',34.382
'0:20.262',40.021
'0:20.266',41.94
'0:20.270',52.983
'0:20.273',63.751
'0:20.277',65.122
'0:20.281',56.194
'0:20.285',74.794
'0:20.289',84.78
'0:20.293',78.867
'0:20.297',81.295
'0:20.301',88.304
'0:20.305',90.458
'0:20.309',85.054
'0:20.313',95.314
'0:20.316',80.472
'0:20.320',72.131
'0:20.324',90.458
'0:20.328',114.972
'0:20.332',108.51
'0:20.336',112.27
'0:20.340',120.65
'0:20.344',137.88
'0:20.348',130.636
'0:20.352',156.246
'0:20.355',158.674
'0:20.359',167.015
'0:20.363',170.265
'0:20.367',179.702
'0:20.371',203.119
'0:20.375',203.942
'0:20.379',213.653
'0:20.383',218.783
'0:20.387',243.845
'0:20.391',249.797
'0:20.395',265.97
'0:20.398',275.643
'0:20.402',282.143
'0:20.406',307.753
'0:20.410',312.609
'0:20.414',327.685
'0:20.418',337.671
'0:20.422',345.229
'0:20.426',355.997
'0:20.430',360.579
'0:20.434',373.541
'0:20.438',367.04
'0:20.441',360.579
'0:20.445',357.094
'0:20.449',360.305
'0:20.453',354.666
'0:20.457',332.267
'0:20.461',312.335
'0:20.465',294.243
'0:20.469',249.249
'0:20.473',210.677
'0:20.477',170.774
'0:20.480',134.121
'0:20.484',100.953
'0:20.488',72.366
'0:20.492',48.401
'0:20.496',23.3
'0:20.500',3.642
'0:20.504',-11.474
'0:20.508',-23.574
'0:20.512',-48.401
'0:20.516',-58.387
'0:20.520',-62.146
'0:20.523',-60.54
'0:20.527',-55.959
'0:20.531',-64.574
'0:20.535',-43.545
'0:20.539',-47.853
'0:20.543',-59.444
'0:20.547',-52.434
'0:20.551',-47.853
'0:20.555',-45.973
'0:20.559',-48.949
'0:20.563',-42.175
'0:20.566',-50.555
'0:20.570',-46.521
'0:20.574',-46.756
'0:20.578',-34.93
'0:20.582',-42.723
'0:20.586',-32.502
'0:20.590',-29.252
'0:20.594',-31.406
'0:20.598',-35.713
'0:20.602',-26.276
'0:20.605',-46.756
'0:20.609',-27.646
'0:20.613',-32.502
'0:20.617',-37.867
'0:20.621',-41.666
'0:20.625',-44.368
'0:20.629',-42.449
'0:20.633',-48.949
'0:20.637',-55.136
'0:20.641',-42.449
'0:20.645',-44.093
'0:20.648',-41.117
'0:20.652',-48.127
'0:20.656',-55.41
'0:20.660',-58.387
'0:20.664',-58.896
'0:20.668',-56.194
'0:20.672',-64.574
'0:20.676',-72.131
'0:20.680',-74.285
'0:20.684',-73.737
'0:20.688',-86.66
'0:20.691',-79.924
'0:20.695',-89.636
'0:20.699',-91.241
'0:20.703',-88.578
'0:20.707',-85.054
'0:20.711',-95.588
'0:20.715',-105.534
'0:20.719',-107.179
'0:20.723',-103.929
'0:20.727',-84.78
'0:20.730',-96.097
'0:20.734',-89.91
'0:20.738',-106.357
'0:20.742',-101.775
'0:20.746',-83.449
'0:20.750',-81.021
'0:20.754',-75.891
'0:20.758',-74.559
'0:20.762',-83.449
'0:20.766',-95.314
'0:20.770',-94.766
'0:20.773',-78.319
'0:20.777',-78.593
'0:20.781',-83.174
'0:20.785',-91.241
'0:20.789',-76.165
'0:20.793',-80.198
'0:20.797',-80.747
'0:20.801',-82.626
'0:20.805',-72.641
'0:20.809',-74.794
'0:20.813',-80.198
'0:20.816',-81.569
'0:20.820',-67.002
'0:20.824',-71.583
'0:20.828',-57.29
'0:20.832',-64.3
'0:20.836',-66.727
'0:20.840',-51.377
'0:20.844',-69.704
'0:20.848',-70.213
'0:20.852',-78.867
'0:20.855',-68.881
'0:20.859',-69.429
'0:20.863',-68.881
'0:20.867',-67.55
'0:20.871',-62.42
'0:20.875',-55.136
'0:20.879',-39.512
'0:20.883',-36.262
'0:20.887',-48.401
'0:20.891',-43.819
'0:20.895',-39.747
'0:20.898',-41.666
'0:20.902',-35.987
'0:20.906',-14.959
'0:20.910',18.718
'0:20.914',36.262
'0:20.918',37.084
'0:20.922',31.68
'0:20.926',22.517
'0:20.930',36.81
'0:20.934',18.483
'0:20.938',18.992
'0:20.941',-14.959
'0:20.945',-21.694
'0:20.949',-41.117
'0:20.953',-31.954
'0:20.957',-49.184
'0:20.961',-79.141
'0:20.965',-81.804
'0:20.969',-86.934
'0:20.973',-98.016
'0:20.977',-85.054
'0:20.980',-96.919
'0:20.984',-95.823
'0:20.988',-99.621
'0:20.992',-113.092
'0:20.996',-87.482
'0:21.000',-84.232
'0:21.004',-79.65
'0:21.008',-79.65
'0:21.012',-78.593
'0:21.016',-88.304
'0:21.020',-85.054
'0:21.023',-63.477
'0:21.027',-78.319
'0:21.031',-76.987
'0:21.035',-72.406
'0:21.039',-86.425
'0:21.043',-93.943
'0:21.047',-13.627
'0:21.051',121.433
'0:21.055',308.81
'0:21.059',473.554
'0:21.063',483.265
'0:21.066',239.538
'0:21.070',-54.04
'0:21.074',-357.094
'0:21.078',-697.036
'0:21.082',-912.451
'0:21.086',-916.211
'0:21.090',-826.967
'0:21.094',-652.551
'0:21.098',-498.616
'0:21.102',-313.392
'0:21.105',-160.827
'0:21.109',-79.415
'0:21.113',-59.718
'0:21.117',-50.006
'0:21.121',-31.132
'0:21.125',-12.257
'0:21.129',3.094
'0:21.133',5.521
'0:21.137',-1.762
'0:21.141',1.488
'0:21.145',20.911
'0:21.148',19.815
'0:21.152',21.968
'0:21.156',29.252
'0:21.160',31.954
'0:21.164',37.319
'0:21.168',53.766
'0:21.172',38.415
'0:21.176',44.328
'0:21.180',62.146
'0:21.184',68.059
'0:21.188',71.035
'0:21.191',72.366
'0:21.195',59.992
'0:21.199',61.049
'0:21.203',68.059
'0:21.207',86.934
'0:21.211',71.583
'0:21.215',75.343
'0:21.219',76.165
'0:21.223',68.333
'0:21.227',41.94
'0:21.230',57.838
'0:21.234',86.934
'0:21.238',116.616
'0:21.242',128.991
'0:21.246',156.246
'0:21.250',171.87
'0:21.254',182.639
'0:21.258',195.053
'0:21.262',208.523
'0:21.266',220.937
'0:21.270',236.561
'0:21.273',245.177
'0:21.277',256.533
'0:21.281',271.061
'0:21.285',285.08
'0:21.289',301.018
'0:21.293',292.638
'0:21.297',302.897
'0:21.301',301.527
'0:21.305',316.642
'0:21.309',316.642
'0:21.313',323.104
'0:21.316',316.094
'0:21.320',315.82
'0:21.324',331.993
'0:21.328',316.642
'0:21.332',306.657
'0:21.336',298.825
'0:21.340',266.479
'0:21.344',237.384
'0:21.348',207.192
'0:21.352',162.707
'0:21.355',136
'0:21.359',103.381
'0:21.363',75.891
'0:21.367',47.304
'0:21.371',33.56
'0:21.375',20.089
'0:21.379',3.642
'0:21.383',10.651
'0:21.387',-15.781
'0:21.391',-29.252
'0:21.395',-28.704
'0:21.398',-31.68
'0:21.402',-38.964
'0:21.406',-30.583
'0:21.410',-28.704
'0:21.414',-30.348
'0:21.418',-32.737
'0:21.422',-38.141
'0:21.426',-28.704
'0:21.430',-28.156
'0:21.434',-46.756
'0:21.438',-33.56
'0:21.441',-38.415
'0:21.445',-28.156
'0:21.449',-27.098
'0:21.453',-30.858
'0:21.457',-34.382
'0:21.461',-37.867
'0:21.465',-26.824
'0:21.469',-41.94
'0:21.473',-46.521
'0:21.477',-35.713
'0:21.480',-39.512
'0:21.484',-41.94
'0:21.488',-55.136
'0:21.492',-61.324
'0:21.496',-68.607
'0:21.500',-72.641
'0:21.504',-73.189
'0:21.508',-69.978
'0:21.512',-62.146
'0:21.516',-55.136
'0:21.520',-57.564
'0:21.523',-70.487
'0:21.527',-81.804
'0:21.531',-92.338
'0:21.535',-88.578
'0:21.539',-107.453
'0:21.543',-102.049
'0:21.547',-112.035
'0:21.551',-107.688
'0:21.555',-106.083
'0:21.559',-108.785
'0:21.563',-101.501
'0:21.566',-94.217
'0:21.570',-91.006
'0:21.574',-90.732
'0:21.578',-108.51
'0:21.582',-99.621
'0:21.586',-92.612
'0:21.590',-91.241
'0:21.594',-91.515
'0:21.598',-77.496
'0:21.602',-83.449
'0:21.605',-89.636
'0:21.609',-88.03
'0:21.613',-91.789
'0:21.617',-95.314
'0:21.621',-83.723
'0:21.625',-88.304
'0:21.629',-86.425
'0:21.633',-91.241
'0:21.637',-80.472
'0:21.641',-84.506
'0:21.645',-86.425
'0:21.648',-83.997
'0:21.652',-75.343
'0:21.656',-67.002
'0:21.660',-69.429
'0:21.664',-68.333
'0:21.668',-65.122
'0:21.672',-74.559
'0:21.676',-68.059
'0:21.680',-70.487
'0:21.684',-67.55
'0:21.688',-63.203
'0:21.691',-58.112
'0:21.695',-53.531
'0:21.699',-55.41
'0:21.703',-50.281
'0:21.707',-60.54
'0:21.711',-56.468
'0:21.715',-54.588
'0:21.719',-41.666
'0:21.723',-34.93
'0:21.727',-27.098
'0:21.730',-23.065
'0:21.734',-38.141
'0:21.738',-25.728
'0:21.742',-3.642
'0:21.746',19.541
'0:21.750',24.396
'0:21.754',41.94
'0:21.758',38.415
'0:21.762',30.309
'0:21.766',23.065
'0:21.770',26.002
'0:21.773',39.512
'0:21.777',19.541
'0:21.781',15.233
'0:21.785',-5.247
'0:21.789',-19.541
'0:21.793',-9.829
'0:21.797',-16.329
'0:21.801',-34.382
'0:21.805',-50.281
'0:21.809',-48.675
'0:21.813',-58.896
'0:21.816',-67.002
'0:21.820',-67.55
'0:21.824',-65.631
'0:21.828',-48.401
'0:21.832',-59.444
'0:21.836',-67.276
'0:21.840',-67.002
'0:21.844',-64.3
'0:21.848',-63.203
'0:21.852',-59.444
'0:21.855',-53.257
'0:21.859',-52.434
'0:21.863',-47.304
'0:21.867',-44.602
'0:21.871',-42.449
'0:21.875',-38.415
'0:21.879',-22.242
'0:21.883',-46.521
'0:21.887',-40.569
'0:21.891',36.81
'0:21.895',188.591
'0:21.898',358.425
'0:21.902',486.202
'0:21.906',478.135
'0:21.910',241.691
'0:21.914',4.699
'0:21.918',-299.373
'0:21.922',-635.556
'0:21.926',-770.656
'0:21.930',-772.809
'0:21.934',-690.301
'0:21.938',-542.004
'0:21.941',-398.877
'0:21.945',-232.254
'0:21.949',-113.092
'0:21.953',-56.194
'0:21.957',-31.954
'0:21.961',-17.113
'0:21.965',0.94
'0:21.969',19.266
'0:21.973',24.67
'0:21.977',31.68
'0:21.980',31.132
'0:21.984',50.281
'0:21.988',52.708
'0:21.992',57.016
'0:21.996',62.694
'0:22.000',62.146
'0:22.004',67.002
'0:22.008',85.876
'0:22.012',88.304
'0:22.016',77.222
'0:22.020',93.669
'0:22.023',98.799
'0:22.027',102.323
'0:22.031',104.751
'0:22.035',107.962
'0:22.039',107.688
'0:22.043',114.698
'0:22.047',119.553
'0:22.051',120.924
'0:22.055',137.645
'0:22.059',136.823
'0:22.063',146.26
'0:22.066',153.27
'0:22.070',153.818
'0:22.074',167.837
'0:22.078',181.582
'0:22.082',192.351
'0:22.086',202.062
'0:22.090',203.119
'0:22.094',214.985
'0:22.098',226.576
'0:22.102',238.167
'0:22.105',265.696
'0:22.109',282.417
'0:22.113',277.796
'0:22.117',289.662
'0:22.121',301.527
'0:22.125',313.118
'0:22.129',314.489
'0:22.133',324.709
'0:22.137',334.695
'0:22.141',331.484
'0:22.145',345.229
'0:22.148',346.56
'0:22.152',339.276
'0:22.156',348.166
'0:22.160',344.955
'0:22.164',360.031
'0:22.168',346.286
'0:22.172',338.728
'0:22.176',315.037
'0:22.180',296.162
'0:22.184',264.6
'0:22.188',235.778
'0:22.191',194.504
'0:22.195',168.62
'0:22.199',133.298
'0:22.203',103.655
'0:22.207',75.617
'0:22.211',49.184
'0:22.215',37.084
'0:22.219',2.271
'0:22.223',-8.498
'0:22.227',-19.815
'0:22.230',-32.228
'0:22.234',-30.074
'0:22.238',-47.853
'0:22.242',-40.569
'0:22.246',-50.281
'0:22.250',-47.579
'0:22.254',-47.304
'0:22.258',-49.732
'0:22.262',-56.194
'0:22.266',-48.127
'0:22.270',-47.03
'0:22.273',-48.675
'0:22.277',-50.829
'0:22.281',-55.41
'0:22.285',-61.598
'0:22.289',-61.049
'0:22.293',-65.631
'0:22.297',-53.257
'0:22.301',-56.742
'0:22.305',-59.718
'0:22.309',-58.387
'0:22.313',-65.122
'0:22.316',-55.136
'0:22.320',-57.838
'0:22.324',-58.387
'0:22.328',-55.959
'0:22.332',-64.574
'0:22.336',-72.131
'0:22.340',-74.011
'0:22.344',-73.189
'0:22.348',-55.685
'0:22.352',-65.396
'0:22.355',-57.29
'0:22.359',-58.112
'0:22.363',-55.959
'0:22.367',-53.531
'0:22.371',-48.949
'0:22.375',-42.997
'0:22.379',-58.896
'0:22.383',-69.155
'0:22.387',-65.905
'0:22.391',-64.848
'0:22.395',-61.872
'0:22.398',-60.775
'0:22.402',-67.785
'0:22.406',-62.968
'0:22.410',-63.477
'0:22.414',-78.867
'0:22.418',-62.42
'0:22.422',-68.333
'0:22.426',-61.324
'0:22.430',-61.872
'0:22.434',-63.203
'0:22.438',-79.141
'0:22.441',-98.016
'0:22.445',-105.534
'0:22.449',-93.16
'0:22.453',-83.174
'0:22.457',-52.434
'0:22.461',-36.536
'0:22.465',-38.964
'0:22.469',-39.747
'0:22.473',-33.011
'0:22.477',-38.141
'0:22.480',-37.358
'0:22.484',-37.084
'0:22.488',-37.593
'0:22.492',-33.011
'0:22.496',-24.67
'0:22.500',-38.689
'0:22.504',-34.656
'0:22.508',-34.656
'0:22.512',-33.011
'0:22.516',-42.449
'0:22.520',-39.512
'0:22.523',-34.108
'0:22.527',-48.401
'0:22.531',-47.579
'0:22.535',-59.17
'0:22.539',-41.94
'0:22.543',-35.165
'0:22.547',-31.406
'0:22.551',-30.074
'0:22.555',-27.646
'0:22.559',-27.372
'0:22.563',-34.382
'0:22.566',-28.704
'0:22.570',-28.978
'0:22.574',-13.902
'0:22.578',16.839
'0:22.582',42.997
'0:22.586',36.81
'0:22.590',24.122
'0:22.594',21.42
'0:22.598',31.406
'0:22.602',24.944
'0:22.605',21.694
'0:22.609',-4.973
'0:22.613',-24.67
'0:22.617',-48.401
'0:22.621',-55.685
'0:22.625',-43.545
'0:22.629',-39.238
'0:22.633',-58.112
'0:22.637',-63.751
'0:22.641',-70.487
'0:22.645',-74.559
'0:22.648',-86.425
'0:22.652',-74.559
'0:22.656',-81.804
'0:22.660',-86.934
'0:22.664',-88.304
'0:22.668',-84.506
'0:22.672',-75.617
'0:22.676',-83.723
'0:22.680',-71.035
'0:22.684',-71.035
'0:22.688',-67.002
'0:22.691',-74.794
'0:22.695',-68.059
'0:22.699',-56.468
'0:22.703',-54.862
'0:22.707',-49.184
'0:22.711',-26.276
'0:22.715',-21.968
'0:22.719',21.146
'0:22.723',132.515
'0:22.727',277.013
'0:22.730',394.804
'0:22.734',393.473
'0:22.738',201.514
'0:22.742',-85.054
'0:22.746',-312.335
'0:22.750',-600.234
'0:22.754',-795.718
'0:22.758',-840.203
'0:22.762',-769.559
'0:22.766',-630.974
'0:22.770',-493.486
'0:22.773',-342.253
'0:22.777',-186.438
'0:22.781',-91.789
'0:22.785',-40.569
'0:22.789',-28.43
'0:22.793',-10.925
'0:22.797',24.944
'0:22.801',21.694
'0:22.805',12.257
'0:22.809',24.67
'0:22.813',35.713
'0:22.816',36.536
'0:22.820',37.319
'0:22.824',47.304
'0:22.828',42.723
'0:22.832',50.829
'0:22.836',65.357
'0:22.840',67.276
'0:22.844',80.747
'0:22.848',77.222
'0:22.852',83.174
'0:22.855',94.766
'0:22.859',96.919
'0:22.863',97.742
'0:22.867',96.371
'0:22.871',99.347
'0:22.875',123.078
'0:22.879',125.232
'0:22.883',130.087
'0:22.887',131.419
'0:22.891',132.515
'0:22.895',152.447
'0:22.898',153.544
'0:22.902',177.274
'0:22.906',180.759
'0:22.910',181.582
'0:22.914',198.812
'0:22.918',214.476
'0:22.922',223.365
'0:22.926',230.1
'0:22.930',230.923
'0:22.934',260.84
'0:22.938',273.763
'0:22.941',300.47
'0:22.945',310.69
'0:22.949',327.959
'0:22.953',339.551
'0:22.957',366.531
'0:22.961',362.459
'0:22.965',391.319
'0:22.969',392.376
'0:22.973',401.814
'0:22.977',411.525
'0:22.980',423.939
'0:22.984',437.958
'0:22.988',440.112
'0:22.992',433.102
'0:22.996',441.443
'0:23.000',422.059
'0:23.004',406.396
'0:23.008',393.199
'0:23.012',352.512
'0:23.016',327.411
'0:23.020',276.739
'0:23.023',246.547
'0:23.027',201.514
'0:23.031',158.909
'0:23.035',131.967
'0:23.039',96.919
'0:23.043',68.607
'0:23.047',41.391
'0:23.051',29.526
'0:23.055',0.392
'0:23.059',-17.661
'0:23.063',-12.257
'0:23.066',-23.339
'0:23.070',-35.165
'0:23.074',-32.737
'0:23.078',-35.439
'0:23.082',-29.252
'0:23.086',-37.867
'0:23.090',-33.834
'0:23.094',-33.56
'0:23.098',-37.084
'0:23.102',-29.252
'0:23.105',-36.262
'0:23.109',-32.737
'0:23.113',-18.757
'0:23.117',-23.339
'0:23.121',-13.353
'0:23.125',-17.935
'0:23.129',-30.348
'0:23.133',-18.483
'0:23.137',-25.219
'0:23.141',-30.348
'0:23.145',-32.228
'0:23.148',-28.704
'0:23.152',-19.815
'0:23.156',-27.372
'0:23.160',-30.348
'0:23.164',-30.074
'0:23.168',-27.098
'0:23.172',-35.987
'0:23.176',-28.704
'0:23.180',-31.406
'0:23.184',-44.602
'0:23.188',-40.569
'0:23.191',-51.103
'0:23.195',-46.521
'0:23.199',-49.184
'0:23.203',-44.368
'0:23.207',-39.238
'0:23.211',-50.281
'0:23.215',-46.756
'0:23.219',-49.732
'0:23.223',-59.718
'0:23.227',-68.607
'0:23.230',-64.848
'0:23.234',-64.848
'0:23.238',-52.708
'0:23.242',-60.266
'0:23.246',-50.281
'0:23.250',-47.304
'0:23.254',-64.848
'0:23.258',-52.983
'0:23.262',-59.992
'0:23.266',-49.458
'0:23.270',-46.756
'0:23.273',-64.848
'0:23.277',-53.257
'0:23.281',-59.992
'0:23.285',-64.3
'0:23.289',-61.049
'0:23.293',-65.122
'0:23.297',-70.761
'0:23.301',-75.617
'0:23.305',-62.968
'0:23.309',-60.775
'0:23.313',-65.631
'0:23.316',-71.035
'0:23.320',-59.17
'0:23.324',-62.146
'0:23.328',-74.794
'0:23.332',-64.848
'0:23.336',-72.406
'0:23.340',-75.891
'0:23.344',-91.789
'0:23.348',-103.655
'0:23.352',-112.035
'0:23.355',-106.357
'0:23.359',-95.04
'0:23.363',-92.612
'0:23.367',-85.876
'0:23.371',-109.607
'0:23.375',-105.025
'0:23.379',-110.938
'0:23.383',-93.16
'0:23.387',-86.425
'0:23.391',-93.16
'0:23.395',-88.304
'0:23.398',-47.853
'0:23.402',-47.03
'0:23.406',-21.694
'0:23.410',3.642
'0:23.414',7.127
'0:23.418',-14.137
'0:23.422',-41.117
'0:23.426',-48.949
'0:23.430',-44.602
'0:23.434',-29.526
'0:23.438',-49.458
'0:23.441',-71.035
'0:23.445',-76.439
'0:23.449',-75.617
'0:23.453',-80.198
'0:23.457',-68.607
'0:23.461',-72.131
'0:23.465',-74.559
'0:23.469',-72.915
'0:23.473',-79.65
'0:23.477',-85.602
'0:23.480',-72.641
'0:23.484',-74.011
'0:23.488',-71.583
'0:23.492',-78.867
'0:23.496',-70.487
'0:23.500',-58.112
'0:23.504',-57.838
'0:23.508',-53.531
'0:23.512',-45.699
'0:23.516',-24.396
'0:23.520',-27.921
'0:23.523',-24.122
'0:23.527',43.271
'0:23.531',170.265
'0:23.535',327.959
'0:23.539',424.761
'0:23.543',397.78
'0:23.547',182.913
'0:23.551',-78.867
'0:23.555',-316.094
'0:23.559',-591.893
'0:23.563',-744.497
'0:23.566',-746.925
'0:23.570',-668.724
'0:23.574',-523.129
'0:23.578',-403.733
'0:23.582',-254.888
'0:23.586',-120.102
'0:23.590',-36.81
'0:23.594',-14.959
'0:23.598',9.555
'0:23.602',26.002
'0:23.605',44.602
'0:23.609',46.756
'0:23.613',51.103
'0:23.617',57.29
'0:23.621',72.131
'0:23.625',76.439
'0:23.629',96.097
'0:23.633',99.347
'0:23.637',103.929
'0:23.641',103.381
'0:23.645',109.333
'0:23.648',113.366
'0:23.652',115.52
'0:23.656',102.597
'0:23.660',117.948
'0:23.664',124.409
'0:23.668',129.539
'0:23.672',131.693
'0:23.676',133.298
'0:23.680',147.592
'0:23.684',155.149
'0:23.688',162.159
'0:23.691',164.587
'0:23.695',164.587
'0:23.699',177.509
'0:23.703',185.615
'0:23.707',194.23
'0:23.711',196.932
'0:23.715',195.875
'0:23.719',192.077
'0:23.723',216.355
'0:23.727',224.97
'0:23.730',228.221
'0:23.734',242.514
'0:23.738',253.831
'0:23.742',278.07
'0:23.746',288.33
'0:23.750',308.027
'0:23.754',320.95
'0:23.758',331.484
'0:23.762',341.156
'0:23.766',352.747
'0:23.770',371.622
'0:23.773',382.43
'0:23.777',376.752
'0:23.781',388.343
'0:23.785',400.757
'0:23.789',402.362
'0:23.793',412.074
'0:23.797',405.886
'0:23.801',402.91
'0:23.805',401.031
'0:23.809',402.088
'0:23.813',378.357
'0:23.816',340.882
'0:23.820',323.104
'0:23.824',289.427
'0:23.828',257.864
'0:23.832',232.528
'0:23.836',193.447
'0:23.840',160.553
'0:23.844',129.265
'0:23.848',113.64
'0:23.852',85.602
'0:23.855',76.987
'0:23.859',61.049
'0:23.863',48.675
'0:23.867',50.006
'0:23.871',36.81
'0:23.875',26.55
'0:23.879',27.372
'0:23.883',16.564
'0:23.887',19.266
'0:23.891',20.637
'0:23.895',23.848
'0:23.898',24.944
'0:23.902',17.387
'0:23.906',21.968
'0:23.910',21.42
'0:23.914',21.968
'0:23.918',22.517
'0:23.922',17.661
'0:23.926',24.122
'0:23.930',22.517
'0:23.934',20.363
'0:23.938',20.637
'0:23.941',17.661
'0:23.945',25.728
'0:23.949',8.223
'0:23.953',19.815
'0:23.957',17.935
'0:23.961',16.29
'0:23.965',11.709
'0:23.969',10.651
'0:23.973',18.718
'0:23.977',14.959
'0:23.980',15.233
'0:23.984',13.902
'0:23.988',12.805
'0:23.992',2.819
'0:23.996',12.805
'0:24.000',13.079
'0:24.004',14.411
'0:24.008',-0.392
'0:24.012',-11.2
'0:24.016',-20.089
'0:24.020',-20.911
'0:24.023',-2.819
'0:24.027',-0.94
'0:24.031',-10.925
'0:24.035',-4.19
'0:24.039',-5.521
'0:24.043',-17.935
'0:24.047',-14.137
'0:24.051',-10.651
'0:24.055',-6.892
'0:24.059',-7.675
'0:24.063',-1.214
'0:24.066',3.642
'0:24.070',-9.555
'0:24.074',-7.127
'0:24.078',-8.772
'0:24.082',-17.113
'0:24.086',-10.651
'0:24.090',-9.046
'0:24.094',-9.046
'0:24.098',-10.377
'0:24.102',-16.329
'0:24.105',-8.498
'0:24.109',-23.848
'0:24.113',-25.493
'0:24.117',-27.921
'0:24.121',-17.387
'0:24.125',-23.848
'0:24.129',-22.242
'0:24.133',-25.493
'0:24.137',-13.627
'0:24.141',-18.483
'0:24.145',-21.968
'0:24.148',-4.464
'0:24.152',-10.651
'0:24.156',0.117
'0:24.160',12.805
'0:24.164',10.925
'0:24.168',-1.762
'0:24.172',7.127
'0:24.176',29.526
'0:24.180',40.843
'0:24.184',58.347
'0:24.188',79.65
'0:24.191',71.857
'0:24.195',77.77
'0:24.199',73.463
'0:24.203',75.343
'0:24.207',80.472
'0:24.211',71.583
'0:24.215',45.699
'0:24.219',26.824
'0:24.223',13.079
'0:24.227',16.564
'0:24.230',20.911
'0:24.234',-5.247
'0:24.238',-20.637
'0:24.242',-16.839
'0:24.246',-30.858
'0:24.250',-27.921
'0:24.254',-23.574
'0:24.258',-23.339
'0:24.262',-47.579
'0:24.266',-58.112
'0:24.270',-42.449
'0:24.273',-43.545
'0:24.277',-27.646
'0:24.281',-16.329
'0:24.285',-23.848
'0:24.289',-23.339
'0:24.293',-26.824
'0:24.297',-13.902
'0:24.301',-17.661
'0:24.305',-21.694
'0:24.309',-5.247
'0:24.313',-11.748
'0:24.316',-15.507
'0:24.320',-1.762
'0:24.324',87.756
'0:24.328',255.71
'0:24.332',419.083
'0:24.336',548.505
'0:24.340',500.769
'0:24.344',263.542
'0:24.348',-4.464
'0:24.352',-301.801
'0:24.355',-626.118
'0:24.359',-739.093
'0:24.363',-722.646
'0:24.367',-648.244
'0:24.371',-507.231
'0:24.375',-371.622
'0:24.379',-218.783
'0:24.383',-96.097
'0:24.387',-29.526
'0:24.391',-12.531
'0:24.395',9.046
'0:24.398',27.646
'0:24.402',50.829
'0:24.406',38.141
'0:24.410',54.862
'0:24.414',56.468
'0:24.418',57.564
'0:24.422',67.002
'0:24.426',56.468
'0:24.430',71.857
'0:24.434',70.761
'0:24.438',71.035
'0:24.441',82.626
'0:24.445',74.559
'0:24.449',73.737
'0:24.453',70.213
'0:24.457',83.997
'0:24.461',96.097
'0:24.465',91.006
'0:24.469',92.064
'0:24.473',102.049
'0:24.477',112.818
'0:24.480',110.116
'0:24.484',124.409
'0:24.488',125.506
'0:24.492',133.298
'0:24.496',126.837
'0:24.500',141.13
'0:24.504',155.972
'0:24.508',157.303
'0:24.512',164.861
'0:24.516',173.202
'0:24.520',171.596
'0:24.523',188.317
'0:24.527',205.547
'0:24.531',210.951
'0:24.535',234.408
'0:24.539',249.249
'0:24.543',252.46
'0:24.547',255.985
'0:24.551',275.408
'0:24.555',294.517
'0:24.559',308.81
'0:24.563',315.82
'0:24.566',337.397
'0:24.570',339.276
'0:24.574',340.647
'0:24.578',354.666
'0:24.582',346.834
'0:24.586',353.844
'0:24.590',355.175
'0:24.594',353.844
'0:24.598',351.416
'0:24.602',345.738
'0:24.605',338.493
'0:24.609',323.378
'0:24.613',304.503
'0:24.617',285.08
'0:24.621',248.975
'0:24.625',212.322
'0:24.629',165.409
'0:24.633',143.01
'0:24.637',120.102
'0:24.641',100.405
'0:24.645',83.174
'0:24.648',54.04
'0:24.652',30.583
'0:24.656',21.694
'0:24.660',17.113
'0:24.664',1.762
'0:24.668',6.618
'0:24.672',-17.387
'0:24.676',-11.474
'0:24.680',-16.564
'0:24.684',-14.685
'0:24.688',-9.046
'0:24.691',-17.387
'0:24.695',-27.921
'0:24.699',-32.228
'0:24.703',-30.074
'0:24.707',-24.944
'0:24.711',-33.834
'0:24.715',-44.368
'0:24.719',-32.502
'0:24.723',-30.583
'0:24.727',-40.021
'0:24.730',-32.502
'0:24.734',-29.252
'0:24.738',-34.108
'0:24.742',-45.151
'0:24.746',-37.358
'0:24.750',-32.737
'0:24.754',-31.406
'0:24.758',-35.165
'0:24.762',-43.545
'0:24.766',-35.165
'0:24.770',-47.853
'0:24.773',-48.127
'0:24.777',-52.16
'0:24.781',-59.444
'0:24.785',-65.396
'0:24.789',-62.42
'0:24.793',-65.396
'0:24.797',-69.978
'0:24.801',-59.718
'0:24.805',-64.026
'0:24.809',-61.049
'0:24.813',-65.122
'0:24.816',-55.136
'0:24.820',-75.617
'0:24.824',-77.222
'0:24.828',-74.794
'0:24.832',-66.453
'0:24.836',-74.011
'0:24.840',-60.266
'0:24.844',-59.992
'0:24.848',-72.406
'0:24.852',-80.472
'0:24.855',-74.285
'0:24.859',-93.434
'0:24.863',-90.732
'0:24.867',-102.049
'0:24.871',-96.371
'0:24.875',-76.987
'0:24.879',-80.198
'0:24.883',-74.011
'0:24.887',-82.626
'0:24.891',-78.045
'0:24.895',-77.77
'0:24.898',-66.179
'0:24.902',-74.285
'0:24.906',-64.3
'0:24.910',-29.8
'0:24.914',-16.839
'0:24.918',-35.165
'0:24.922',-53.531
'0:24.926',-58.622
'0:24.930',-75.617
'0:24.934',-97.468
'0:24.938',-100.679
