'0:00.000',-0.79
'0:00.004',-1.26
'0:00.008',-1.31
'0:00.012',-1.12
'0:00.016',-0.9
'0:00.020',-0.96
'0:00.023',-1.37
'0:00.027',-1.83
'0:00.031',-2.46
'0:00.035',-3
'0:00.039',-3.26
'0:00.043',-3.15
'0:00.047',-2.87
'0:00.051',-2.48
'0:00.055',-2.2
'0:00.059',-2.2
'0:00.063',-2.34
'0:00.066',-2.59
'0:00.070',-3.17
'0:00.074',-3.69
'0:00.078',-4.17
'0:00.082',-4.43
'0:00.086',-3.92
'0:00.090',-2.5
'0:00.094',-0.02
'0:00.098',3.4
'0:00.102',6.69
'0:00.105',8.24
'0:00.109',6.68
'0:00.113',1.77
'0:00.117',-4.01
'0:00.121',-8.05
'0:00.125',-10.03
'0:00.129',-10.69
'0:00.133',-10.55
'0:00.137',-9.74
'0:00.141',-8.35
'0:00.145',-6.51
'0:00.148',-4.53
'0:00.152',-2.85
'0:00.156',-1.27
'0:00.160',-0.03
'0:00.164',0.8
'0:00.168',1.45
'0:00.172',1.93
'0:00.176',2.32
'0:00.180',2.76
'0:00.184',3.12
'0:00.188',3.36
'0:00.191',3.6
'0:00.195',3.7
'0:00.199',3.71
'0:00.203',3.65
'0:00.207',3.7
'0:00.211',3.91
'0:00.215',4.21
'0:00.219',4.53
'0:00.223',4.78
'0:00.227',4.97
'0:00.230',5.15
'0:00.234',5.31
'0:00.238',5.43
'0:00.242',5.46
'0:00.246',5.29
'0:00.250',5.06
'0:00.254',4.79
'0:00.258',4.43
'0:00.262',4.01
'0:00.266',3.47
'0:00.270',2.89
'0:00.273',2.43
'0:00.277',2.14
'0:00.281',1.82
'0:00.285',1.37
'0:00.289',0.92
'0:00.293',0.56
'0:00.297',0.17
'0:00.301',-0.09
'0:00.305',-0.22
'0:00.309',-0.33
'0:00.313',-0.34
'0:00.316',-0.21
'0:00.320',-0.16
'0:00.324',-0.32
'0:00.328',-0.57
'0:00.332',-0.73
'0:00.336',-0.7
'0:00.340',-0.86
'0:00.344',-1.15
'0:00.348',-1.46
'0:00.352',-1.71
'0:00.355',-2.03
'0:00.359',-2.4
'0:00.363',-2.78
'0:00.367',-3.14
'0:00.371',-3.27
'0:00.375',-3.38
'0:00.379',-3.63
'0:00.383',-3.97
'0:00.387',-4.51
'0:00.391',-4.9
'0:00.395',-4.99
'0:00.398',-5.09
'0:00.402',-5.18
'0:00.406',-5.22
'0:00.410',-4.95
'0:00.414',-4.88
'0:00.418',-4.8
'0:00.422',-4.55
'0:00.426',-4.46
'0:00.430',-4.49
'0:00.434',-4.58
'0:00.438',-4.48
'0:00.441',-4.2
'0:00.445',-3.59
'0:00.449',-2.38
'0:00.453',-0.26
'0:00.457',2.6
'0:00.461',5.47
'0:00.465',7.06
'0:00.469',5.5
'0:00.473',0.53
'0:00.477',-4.84
'0:00.480',-8.62
'0:00.484',-10.69
'0:00.488',-11.55
'0:00.492',-11.54
'0:00.496',-10.94
'0:00.500',-10.01
'0:00.504',-8.47
'0:00.508',-6.47
'0:00.512',-4.4
'0:00.516',-2.65
'0:00.520',-1.31
'0:00.523',-0.19
'0:00.527',0.72
'0:00.531',1.47
'0:00.535',1.93
'0:00.539',2.32
'0:00.543',2.67
'0:00.547',3.01
'0:00.551',3.24
'0:00.555',3.59
'0:00.559',3.93
'0:00.563',4.02
'0:00.566',4.05
'0:00.570',4.07
'0:00.574',4.28
'0:00.578',4.58
'0:00.582',4.54
'0:00.586',4.8
'0:00.590',5.27
'0:00.594',5.45
'0:00.598',5.53
'0:00.602',5.53
'0:00.605',5.6
'0:00.609',5.66
'0:00.613',5.75
'0:00.617',5.43
'0:00.621',4.67
'0:00.625',4.11
'0:00.629',3.7
'0:00.633',3.25
'0:00.637',2.76
'0:00.641',2.24
'0:00.645',1.74
'0:00.648',1.36
'0:00.652',1.13
'0:00.656',0.79
'0:00.660',0.55
'0:00.664',0.44
'0:00.668',0.31
'0:00.672',0.48
'0:00.676',0.41
'0:00.680',0.17
'0:00.684',0.13
'0:00.688',0.25
'0:00.691',0.47
'0:00.695',0.53
'0:00.699',0.27
'0:00.703',0.05
'0:00.707',0
'0:00.711',-0.22
'0:00.715',-0.49
'0:00.719',-0.86
'0:00.723',-1.08
'0:00.727',-0.89
'0:00.730',-0.74
'0:00.734',-1.11
'0:00.738',-1.69
'0:00.742',-2.22
'0:00.746',-2.39
'0:00.750',-2.77
'0:00.754',-3.13
'0:00.758',-3.02
'0:00.762',-2.92
'0:00.766',-2.97
'0:00.770',-2.93
'0:00.773',-2.56
'0:00.777',-2.15
'0:00.781',-2.01
'0:00.785',-2.17
'0:00.789',-2.41
'0:00.793',-2.68
'0:00.797',-2.44
'0:00.801',-1.71
'0:00.805',-0.35
'0:00.809',1.86
'0:00.813',4.83
'0:00.816',8
'0:00.820',10.72
'0:00.824',11.33
'0:00.828',7.6
'0:00.832',1.06
'0:00.836',-4.38
'0:00.840',-7.78
'0:00.844',-9.56
'0:00.848',-10.55
'0:00.852',-10.91
'0:00.855',-10.7
'0:00.859',-9.7
'0:00.863',-7.84
'0:00.867',-5.69
'0:00.871',-3.84
'0:00.875',-2.27
'0:00.879',-0.95
'0:00.883',0.12
'0:00.887',0.99
'0:00.891',1.52
'0:00.895',1.73
'0:00.898',1.98
'0:00.902',2.29
'0:00.906',2.55
'0:00.910',2.68
'0:00.914',2.7
'0:00.918',2.7
'0:00.922',2.92
'0:00.926',3.27
'0:00.930',3.66
'0:00.934',4
'0:00.938',4.34
'0:00.941',4.44
'0:00.945',4.48
'0:00.949',4.5
'0:00.953',4.69
'0:00.957',5.03
'0:00.961',5.27
'0:00.965',5.34
'0:00.969',5.3
'0:00.973',5.15
'0:00.977',4.89
'0:00.980',4.5
'0:00.984',4
'0:00.988',3.25
'0:00.992',2.57
'0:00.996',2.14
'0:01.000',1.79
'0:01.004',1.45
'0:01.008',1.22
'0:01.012',1
'0:01.016',0.81
'0:01.020',0.78
'0:01.023',0.73
'0:01.027',0.59
'0:01.031',0.52
'0:01.035',0.49
'0:01.039',0.36
'0:01.043',0.27
'0:01.047',0.35
'0:01.051',0.41
'0:01.055',0.32
'0:01.059',0.04
'0:01.063',-0.4
'0:01.066',-0.83
'0:01.070',-1.19
'0:01.074',-1.51
'0:01.078',-1.81
'0:01.082',-1.94
'0:01.086',-1.64
'0:01.090',-1.48
'0:01.094',-1.67
'0:01.098',-1.9
'0:01.102',-1.9
'0:01.105',-1.63
'0:01.109',-1.43
'0:01.113',-1.46
'0:01.117',-1.46
'0:01.121',-1.39
'0:01.125',-1.37
'0:01.129',-1.44
'0:01.133',-1.66
'0:01.137',-1.9
'0:01.141',-2.26
'0:01.145',-2.68
'0:01.148',-2.75
'0:01.152',-2.44
'0:01.156',-1.56
'0:01.160',0.05
'0:01.164',2.64
'0:01.168',5.69
'0:01.172',8.29
'0:01.176',8.68
'0:01.180',5.07
'0:01.184',-2.04
'0:01.188',-7.38
'0:01.191',-10.43
'0:01.195',-11.69
'0:01.199',-11.98
'0:01.203',-11.65
'0:01.207',-10.5
'0:01.211',-8.62
'0:01.215',-6.6
'0:01.219',-4.72
'0:01.223',-2.97
'0:01.227',-1.34
'0:01.230',-0.15
'0:01.234',0.68
'0:01.238',1.18
'0:01.242',1.54
'0:01.246',1.91
'0:01.250',2.17
'0:01.254',2.47
'0:01.258',2.75
'0:01.262',2.92
'0:01.266',2.95
'0:01.270',2.89
'0:01.273',2.85
'0:01.277',3
'0:01.281',3.29
'0:01.285',3.64
'0:01.289',4
'0:01.293',4.29
'0:01.297',4.49
'0:01.301',4.56
'0:01.305',4.59
'0:01.309',4.75
'0:01.313',4.93
'0:01.316',4.87
'0:01.320',4.63
'0:01.324',4.37
'0:01.328',4.13
'0:01.332',3.77
'0:01.336',3.34
'0:01.340',2.77
'0:01.344',2.21
'0:01.348',1.59
'0:01.352',0.83
'0:01.355',0.3
'0:01.359',0.18
'0:01.363',0.17
'0:01.367',0.16
'0:01.371',0.15
'0:01.375',0.3
'0:01.379',0.32
'0:01.383',0.17
'0:01.387',0.09
'0:01.391',0.02
'0:01.395',-0.09
'0:01.398',-0.05
'0:01.402',0.02
'0:01.406',0.17
'0:01.410',0.04
'0:01.414',-0.27
'0:01.418',-0.64
'0:01.422',-1.08
'0:01.426',-1.47
'0:01.430',-1.75
'0:01.434',-1.85
'0:01.438',-2.02
'0:01.441',-2.29
'0:01.445',-2.56
'0:01.449',-2.87
'0:01.453',-3.17
'0:01.457',-3.29
'0:01.461',-3.31
'0:01.465',-3.26
'0:01.469',-3.24
'0:01.473',-3.22
'0:01.477',-3.16
'0:01.480',-3.04
'0:01.484',-2.93
'0:01.488',-2.97
'0:01.492',-3.09
'0:01.496',-3.26
'0:01.500',-3.07
'0:01.504',-2.51
'0:01.508',-1.58
'0:01.512',0.29
'0:01.516',3.39
'0:01.520',6.61
'0:01.523',8.5
'0:01.527',7.52
'0:01.531',2.9
'0:01.535',-3.42
'0:01.539',-8.39
'0:01.543',-11.04
'0:01.547',-11.98
'0:01.551',-11.82
'0:01.555',-11.14
'0:01.559',-9.91
'0:01.563',-8.07
'0:01.566',-6
'0:01.570',-4.11
'0:01.574',-2.34
'0:01.578',-0.78
'0:01.582',0.56
'0:01.586',1.49
'0:01.590',2.04
'0:01.594',2.49
'0:01.598',2.71
'0:01.602',2.81
'0:01.605',3.03
'0:01.609',3.27
'0:01.613',3.45
'0:01.617',3.49
'0:01.621',3.56
'0:01.625',3.75
'0:01.629',3.87
'0:01.633',4.05
'0:01.637',4.26
'0:01.641',4.46
'0:01.645',4.69
'0:01.648',4.98
'0:01.652',5.19
'0:01.656',5.31
'0:01.660',5.32
'0:01.664',5.19
'0:01.668',5.04
'0:01.672',4.74
'0:01.676',4.26
'0:01.680',3.92
'0:01.684',3.78
'0:01.688',3.52
'0:01.691',2.97
'0:01.695',2.27
'0:01.699',1.63
'0:01.703',1.11
'0:01.707',0.58
'0:01.711',0.41
'0:01.715',0.46
'0:01.719',0.42
'0:01.723',0.36
'0:01.727',0.15
'0:01.730',0.1
'0:01.734',0.08
'0:01.738',0.05
'0:01.742',0.03
'0:01.746',0.04
'0:01.750',0.1
'0:01.754',-0.05
'0:01.758',-0.13
'0:01.762',-0.14
'0:01.766',-0.22
'0:01.770',-0.67
'0:01.773',-1.37
'0:01.777',-1.73
'0:01.781',-1.92
'0:01.785',-2.09
'0:01.789',-2.02
'0:01.793',-2.15
'0:01.797',-2.37
'0:01.801',-2.61
'0:01.805',-2.92
'0:01.809',-3.49
'0:01.813',-3.98
'0:01.816',-4.12
'0:01.820',-4.19
'0:01.824',-4.23
'0:01.828',-4.12
'0:01.832',-3.81
'0:01.836',-3.62
'0:01.840',-3.43
'0:01.844',-3.36
'0:01.848',-3.41
'0:01.852',-3.51
'0:01.855',-3.58
'0:01.859',-3.58
'0:01.863',-3.28
'0:01.867',-2.23
'0:01.871',-0.2
'0:01.875',2.65
'0:01.879',5.68
'0:01.883',7.74
'0:01.887',6.72
'0:01.891',1.93
'0:01.895',-3.72
'0:01.898',-7.85
'0:01.902',-10.11
'0:01.906',-10.92
'0:01.910',-11.06
'0:01.914',-10.73
'0:01.918',-9.96
'0:01.922',-8.54
'0:01.926',-6.86
'0:01.930',-5.13
'0:01.934',-3.44
'0:01.938',-1.87
'0:01.941',-0.47
'0:01.945',0.6
'0:01.949',1.17
'0:01.953',1.44
'0:01.957',1.76
'0:01.961',2.15
'0:01.965',2.25
'0:01.969',2.1
'0:01.973',2.15
'0:01.977',2.4
'0:01.980',2.58
'0:01.984',2.88
'0:01.988',3.11
'0:01.992',3.15
'0:01.996',3.27
'0:02.000',3.52
'0:02.004',4.08
'0:02.008',4.64
'0:02.012',4.87
'0:02.016',4.88
'0:02.020',4.94
'0:02.023',4.96
'0:02.027',4.7
'0:02.031',4.43
'0:02.035',4.16
'0:02.039',4.08
'0:02.043',3.88
'0:02.047',3.54
'0:02.051',3.23
'0:02.055',2.85
'0:02.059',2.7
'0:02.063',2.66
'0:02.066',2.44
'0:02.070',2.16
'0:02.074',1.83
'0:02.078',1.56
'0:02.082',1.23
'0:02.086',0.92
'0:02.090',0.89
'0:02.094',0.97
'0:02.098',0.9
'0:02.102',0.81
'0:02.105',0.64
'0:02.109',0.48
'0:02.113',0.29
'0:02.117',0.2
'0:02.121',0.2
'0:02.125',0.13
'0:02.129',-0.25
'0:02.133',-0.61
'0:02.137',-0.8
'0:02.141',-0.92
'0:02.145',-1.04
'0:02.148',-1.07
'0:02.152',-1.28
'0:02.156',-1.63
'0:02.160',-1.94
'0:02.164',-2.27
'0:02.168',-2.69
'0:02.172',-3.02
'0:02.176',-3.17
'0:02.180',-3.06
'0:02.184',-3
'0:02.188',-3.09
'0:02.191',-2.96
'0:02.195',-2.79
'0:02.199',-2.67
'0:02.203',-2.68
'0:02.207',-2.75
'0:02.211',-2.88
'0:02.215',-2.89
'0:02.219',-2.55
'0:02.223',-1.76
'0:02.227',-0.19
'0:02.230',2.39
'0:02.234',5.71
'0:02.238',8.85
'0:02.242',10.97
'0:02.246',10.35
'0:02.250',5.52
'0:02.254',-0.78
'0:02.258',-5.68
'0:02.262',-8.73
'0:02.266',-10.32
'0:02.270',-11.06
'0:02.273',-11.12
'0:02.277',-10.5
'0:02.281',-9.21
'0:02.285',-7.35
'0:02.289',-5.54
'0:02.293',-3.89
'0:02.297',-2.44
'0:02.301',-1.27
'0:02.305',-0.35
'0:02.309',0.39
'0:02.313',0.93
'0:02.316',1.29
'0:02.320',1.57
'0:02.324',1.81
'0:02.328',2.06
'0:02.332',2.25
'0:02.336',2.35
'0:02.340',2.51
'0:02.344',2.8
'0:02.348',3.06
'0:02.352',3.34
'0:02.355',3.56
'0:02.359',3.79
'0:02.363',4.1
'0:02.367',4.41
'0:02.371',4.57
'0:02.375',4.58
'0:02.379',4.53
'0:02.383',4.51
'0:02.387',4.4
'0:02.391',4.21
'0:02.395',3.92
'0:02.398',3.6
'0:02.402',3.28
'0:02.406',2.92
'0:02.410',2.53
'0:02.414',2.07
'0:02.418',1.67
'0:02.422',1.25
'0:02.426',0.77
'0:02.430',0.39
'0:02.434',0.31
'0:02.438',0.25
'0:02.441',0.37
'0:02.445',0.48
'0:02.449',0.6
'0:02.453',0.58
'0:02.457',0.51
'0:02.461',0.49
'0:02.465',0.54
'0:02.469',0.63
'0:02.473',0.56
'0:02.477',0.28
'0:02.480',0
'0:02.484',-0.29
'0:02.488',-0.48
'0:02.492',-0.66
'0:02.496',-0.98
'0:02.500',-1.16
'0:02.504',-1.22
'0:02.508',-1.74
'0:02.512',-2.48
'0:02.516',-3.11
'0:02.520',-3.44
'0:02.523',-3.56
'0:02.527',-3.61
'0:02.531',-3.62
'0:02.535',-3.38
'0:02.539',-2.89
'0:02.543',-2.4
'0:02.547',-2.16
'0:02.551',-2.17
'0:02.555',-2.32
'0:02.559',-2.51
'0:02.563',-2.57
'0:02.566',-2.5
'0:02.570',-2.23
'0:02.574',-1.62
'0:02.578',-0.43
'0:02.582',1.68
'0:02.586',4.57
'0:02.590',7.78
'0:02.594',9.94
'0:02.598',8.61
'0:02.602',3.26
'0:02.605',-3.57
'0:02.609',-8.47
'0:02.613',-11.02
'0:02.617',-12.18
'0:02.621',-12.36
'0:02.625',-11.64
'0:02.629',-10.26
'0:02.633',-8.38
'0:02.637',-6.31
'0:02.641',-4.3
'0:02.645',-2.51
'0:02.648',-1.22
'0:02.652',-0.42
'0:02.656',0.21
'0:02.660',0.79
'0:02.664',1.45
'0:02.668',1.95
'0:02.672',2.13
'0:02.676',2.29
'0:02.680',2.52
'0:02.684',2.94
'0:02.688',3.5
'0:02.691',3.86
'0:02.695',4.05
'0:02.699',4.14
'0:02.703',4.12
'0:02.707',4.27
'0:02.711',4.57
'0:02.715',4.83
'0:02.719',4.97
'0:02.723',5.12
'0:02.727',5.36
'0:02.730',5.4
'0:02.734',5.26
'0:02.738',4.87
'0:02.742',4.42
'0:02.746',4.01
'0:02.750',3.76
'0:02.754',3.53
'0:02.758',3.43
'0:02.762',3.31
'0:02.766',3.04
'0:02.770',2.57
'0:02.773',2.11
'0:02.777',1.82
'0:02.781',1.55
'0:02.785',1.26
'0:02.789',1.21
'0:02.793',1.12
'0:02.797',0.9
'0:02.801',0.69
'0:02.805',0.82
'0:02.809',0.97
'0:02.813',0.98
'0:02.816',0.85
'0:02.820',0.56
'0:02.824',0.4
'0:02.828',0.74
'0:02.832',0.92
'0:02.836',0.74
'0:02.840',0.4
'0:02.844',0.02
'0:02.848',-0.41
'0:02.852',-0.76
'0:02.855',-0.88
'0:02.859',-0.98
'0:02.863',-1.05
'0:02.867',-1.21
'0:02.871',-1.51
'0:02.875',-1.77
'0:02.879',-2.2
'0:02.883',-2.64
'0:02.887',-2.98
'0:02.891',-2.94
'0:02.895',-2.78
'0:02.898',-2.6
'0:02.902',-2.28
'0:02.906',-1.98
'0:02.910',-1.74
'0:02.914',-1.93
'0:02.918',-2.22
'0:02.922',-2.19
'0:02.926',-1.84
'0:02.930',-1.09
'0:02.934',0.14
'0:02.938',2.19
'0:02.941',4.86
'0:02.945',7.64
'0:02.949',9.23
'0:02.953',7.57
'0:02.957',2.47
'0:02.961',-3.46
'0:02.965',-7.72
'0:02.969',-9.86
'0:02.973',-10.6
'0:02.977',-10.76
'0:02.980',-10.33
'0:02.984',-9.28
'0:02.988',-7.78
'0:02.992',-5.92
'0:02.996',-4.11
'0:03.000',-2.45
'0:03.004',-1
'0:03.008',0.03
'0:03.012',0.82
'0:03.016',1.52
'0:03.020',2.01
'0:03.023',2.25
'0:03.027',2.44
'0:03.031',2.68
'0:03.035',2.78
'0:03.039',2.8
'0:03.043',2.81
'0:03.047',2.89
'0:03.051',2.98
'0:03.055',3.15
'0:03.059',3.34
'0:03.063',3.62
'0:03.066',3.91
'0:03.070',4.24
'0:03.074',4.46
'0:03.078',4.61
'0:03.082',4.76
'0:03.086',4.82
'0:03.090',4.72
'0:03.094',4.47
'0:03.098',4.24
'0:03.102',4.16
'0:03.105',3.89
'0:03.109',3.44
'0:03.113',3.02
'0:03.117',2.51
'0:03.121',1.81
'0:03.125',1.21
'0:03.129',0.74
'0:03.133',0.53
'0:03.137',0.39
'0:03.141',0.1
'0:03.145',-0.08
'0:03.148',-0.08
'0:03.152',-0.05
'0:03.156',-0.01
'0:03.160',0.03
'0:03.164',0
'0:03.168',-0.08
'0:03.172',-0.15
'0:03.176',-0.22
'0:03.180',-0.37
'0:03.184',-0.46
'0:03.188',-0.44
'0:03.191',-0.62
'0:03.195',-0.9
'0:03.199',-1.15
'0:03.203',-1.34
'0:03.207',-1.59
'0:03.211',-1.81
'0:03.215',-2.02
'0:03.219',-2.29
'0:03.223',-2.57
'0:03.227',-2.85
'0:03.230',-3.19
'0:03.234',-3.56
'0:03.238',-3.72
'0:03.242',-3.75
'0:03.246',-3.65
'0:03.250',-3.48
'0:03.254',-3.32
'0:03.258',-3.24
'0:03.262',-3.12
'0:03.266',-2.87
'0:03.270',-2.77
'0:03.273',-2.77
'0:03.277',-2.75
'0:03.281',-2.5
'0:03.285',-2.11
'0:03.289',-1.52
'0:03.293',-0.46
'0:03.297',1.41
'0:03.301',4.01
'0:03.305',6.77
'0:03.309',8.58
'0:03.313',7.23
'0:03.316',2.19
'0:03.320',-3.63
'0:03.324',-8.03
'0:03.328',-10.8
'0:03.332',-11.87
'0:03.336',-12.15
'0:03.340',-11.93
'0:03.344',-11.21
'0:03.348',-9.73
'0:03.352',-7.43
'0:03.355',-5.16
'0:03.359',-3.6
'0:03.363',-2.31
'0:03.367',-1.15
'0:03.371',-0.04
'0:03.375',0.96
'0:03.379',1.5
'0:03.383',1.94
'0:03.387',2.34
'0:03.391',2.51
'0:03.395',2.49
'0:03.398',2.47
'0:03.402',2.68
'0:03.406',2.91
'0:03.410',3.02
'0:03.414',3.25
'0:03.418',3.6
'0:03.422',3.88
'0:03.426',3.96
'0:03.430',4.08
'0:03.434',4.34
'0:03.438',4.47
'0:03.441',4.65
'0:03.445',4.73
'0:03.449',4.6
'0:03.453',4.38
'0:03.457',4.16
'0:03.461',3.97
'0:03.465',3.85
'0:03.469',3.51
'0:03.473',3.06
'0:03.477',2.69
'0:03.480',2.18
'0:03.484',1.66
'0:03.488',1.36
'0:03.492',1.01
'0:03.496',0.65
'0:03.500',0.43
'0:03.504',0.25
'0:03.508',0.05
'0:03.512',0.08
'0:03.516',0.07
'0:03.520',0.06
'0:03.523',0.15
'0:03.527',0.22
'0:03.531',0.4
'0:03.535',0.56
'0:03.539',0.68
'0:03.543',0.56
'0:03.547',0.39
'0:03.551',0.28
'0:03.555',0.07
'0:03.559',-0.4
'0:03.563',-0.73
'0:03.566',-0.85
'0:03.570',-0.88
'0:03.574',-0.81
'0:03.578',-0.93
'0:03.582',-1.24
'0:03.586',-1.76
'0:03.590',-2.28
'0:03.594',-2.68
'0:03.598',-2.88
'0:03.602',-2.85
'0:03.605',-2.82
'0:03.609',-2.67
'0:03.613',-2.6
'0:03.617',-2.5
'0:03.621',-2.26
'0:03.625',-2.17
'0:03.629',-2.1
'0:03.633',-2.27
'0:03.637',-2.5
'0:03.641',-2.38
'0:03.645',-1.96
'0:03.648',-0.93
'0:03.652',1.08
'0:03.656',4.03
'0:03.660',7.21
'0:03.664',10.01
'0:03.668',11.46
'0:03.672',9.28
'0:03.676',3.53
'0:03.680',-2.1
'0:03.684',-6.18
'0:03.688',-8.43
'0:03.691',-9.27
'0:03.695',-9.6
'0:03.699',-9.56
'0:03.703',-8.87
'0:03.707',-7.64
'0:03.711',-6.06
'0:03.715',-4.52
'0:03.719',-3.04
'0:03.723',-1.8
'0:03.727',-0.83
'0:03.730',-0.11
'0:03.734',0.46
'0:03.738',0.89
'0:03.742',1.17
'0:03.746',1.24
'0:03.750',1.29
'0:03.754',1.33
'0:03.758',1.51
'0:03.762',1.78
'0:03.766',2.04
'0:03.770',2.37
'0:03.773',2.71
'0:03.777',2.95
'0:03.781',3.28
'0:03.785',3.59
'0:03.789',3.78
'0:03.793',4
'0:03.797',4.13
'0:03.801',4.14
'0:03.805',4.22
'0:03.809',4.32
'0:03.813',4.29
'0:03.816',4.13
'0:03.820',3.88
'0:03.824',3.6
'0:03.828',3.31
'0:03.832',2.87
'0:03.836',2.33
'0:03.840',1.8
'0:03.844',1.42
'0:03.848',1.08
'0:03.852',0.76
'0:03.855',0.58
'0:03.859',0.42
'0:03.863',0.4
'0:03.867',0.47
'0:03.871',0.58
'0:03.875',0.65
'0:03.879',0.53
'0:03.883',0.39
'0:03.887',0.29
'0:03.891',0.27
'0:03.895',0.32
'0:03.898',0.37
'0:03.902',0.35
'0:03.906',0.24
'0:03.910',-0.05
'0:03.914',-0.35
'0:03.918',-0.71
'0:03.922',-0.95
'0:03.926',-1.13
'0:03.930',-1.41
'0:03.934',-1.67
'0:03.938',-1.92
'0:03.941',-2.27
'0:03.945',-2.76
'0:03.949',-3.02
'0:03.953',-3.09
'0:03.957',-3.07
'0:03.961',-3.05
'0:03.965',-3.02
'0:03.969',-3.02
'0:03.973',-2.8
'0:03.977',-2.55
'0:03.980',-2.43
'0:03.984',-2.33
'0:03.988',-2.2
'0:03.992',-2.02
'0:03.996',-1.64
'0:04.000',-0.8
'0:04.004',0.82
'0:04.008',3.34
'0:04.012',6.66
'0:04.016',9.88
'0:04.020',11.73
'0:04.023',9.66
'0:04.027',3.8
'0:04.031',-3.05
'0:04.035',-8.19
'0:04.039',-10.97
'0:04.043',-11.94
'0:04.047',-11.83
'0:04.051',-11.13
'0:04.055',-9.75
'0:04.059',-7.82
'0:04.063',-5.7
'0:04.066',-3.81
'0:04.070',-2.32
'0:04.074',-1.16
'0:04.078',-0.22
'0:04.082',0.52
'0:04.086',1.13
'0:04.090',1.61
'0:04.094',1.96
'0:04.098',2.31
'0:04.102',2.48
'0:04.105',2.48
'0:04.109',2.36
'0:04.113',2.29
'0:04.117',2.42
'0:04.121',2.74
'0:04.125',2.98
'0:04.129',3.13
'0:04.133',3.23
'0:04.137',3.38
'0:04.141',3.71
'0:04.145',4.16
'0:04.148',4.62
'0:04.152',4.8
'0:04.156',4.74
'0:04.160',4.58
'0:04.164',4.58
'0:04.168',4.48
'0:04.172',4.21
'0:04.176',3.77
'0:04.180',3.36
'0:04.184',3.14
'0:04.188',2.75
'0:04.191',2.19
'0:04.195',1.61
'0:04.199',1.3
'0:04.203',1.19
'0:04.207',0.96
'0:04.211',0.68
'0:04.215',0.56
'0:04.219',0.5
'0:04.223',0.43
'0:04.227',0.37
'0:04.230',0.27
'0:04.234',0.15
'0:04.238',0.23
'0:04.242',0.47
'0:04.246',0.55
'0:04.250',0.39
'0:04.254',0.21
'0:04.258',0.04
'0:04.262',-0.17
'0:04.266',-0.31
'0:04.270',-0.37
'0:04.273',-0.77
'0:04.277',-1.18
'0:04.281',-1.29
'0:04.285',-1.5
'0:04.289',-1.73
'0:04.293',-1.86
'0:04.297',-2.5
'0:04.301',-3.04
'0:04.305',-3.09
'0:04.309',-3.22
'0:04.313',-3.13
'0:04.316',-2.65
'0:04.320',-2.61
'0:04.324',-2.92
'0:04.328',-3.12
'0:04.332',-2.94
'0:04.336',-2.67
'0:04.340',-2.51
'0:04.344',-2.17
'0:04.348',-1.69
'0:04.352',-1.03
'0:04.355',-0.07
'0:04.359',1.61
'0:04.363',4.43
'0:04.367',7.59
'0:04.371',9.58
'0:04.375',8.27
'0:04.379',3.34
'0:04.383',-3.09
'0:04.387',-7.91
'0:04.391',-10.56
'0:04.395',-11.82
'0:04.398',-11.75
'0:04.402',-10.69
'0:04.406',-9.17
'0:04.410',-7.26
'0:04.414',-5.33
'0:04.418',-3.75
'0:04.422',-2.48
'0:04.426',-1.35
'0:04.430',-0.37
'0:04.434',0.55
'0:04.438',1.21
'0:04.441',1.67
'0:04.445',1.89
'0:04.449',2.03
'0:04.453',2.28
'0:04.457',2.66
'0:04.461',2.99
'0:04.465',3.28
'0:04.469',3.59
'0:04.473',3.81
'0:04.477',4.04
'0:04.480',4.36
'0:04.484',4.67
'0:04.488',4.93
'0:04.492',5.22
'0:04.496',5.54
'0:04.500',5.73
'0:04.504',5.72
'0:04.508',5.61
'0:04.512',5.43
'0:04.516',5.13
'0:04.520',4.82
'0:04.523',4.39
'0:04.527',4.02
'0:04.531',3.94
'0:04.535',3.72
'0:04.539',3.21
'0:04.543',2.57
'0:04.547',2.01
'0:04.551',1.46
'0:04.555',0.95
'0:04.559',0.5
'0:04.563',0.12
'0:04.566',-0.25
'0:04.570',-0.49
'0:04.574',-0.58
'0:04.578',-0.58
'0:04.582',-0.58
'0:04.586',-0.64
'0:04.590',-0.73
'0:04.594',-0.82
'0:04.598',-0.9
'0:04.602',-0.97
'0:04.605',-1.1
'0:04.609',-1.24
'0:04.613',-1.24
'0:04.617',-1.2
'0:04.621',-1.3
'0:04.625',-1.5
'0:04.629',-1.64
'0:04.633',-1.71
'0:04.637',-1.9
'0:04.641',-2.2
'0:04.645',-2.72
'0:04.648',-3.16
'0:04.652',-3.49
'0:04.656',-3.95
'0:04.660',-4.22
'0:04.664',-4.19
'0:04.668',-3.95
'0:04.672',-3.76
'0:04.676',-3.66
'0:04.680',-3.74
'0:04.684',-3.75
'0:04.688',-3.65
'0:04.691',-3.5
'0:04.695',-3.34
'0:04.699',-3.33
'0:04.703',-3.41
'0:04.707',-3.2
'0:04.711',-2.87
'0:04.715',-2.08
'0:04.719',-0.38
'0:04.723',2.33
'0:04.727',5.42
'0:04.730',7.53
'0:04.734',6.61
'0:04.738',1.8
'0:04.742',-4.11
'0:04.746',-8.54
'0:04.750',-10.96
'0:04.754',-11.64
'0:04.758',-11.5
'0:04.762',-10.92
'0:04.766',-9.81
'0:04.770',-8.22
'0:04.773',-6.33
'0:04.777',-4.35
'0:04.781',-2.74
'0:04.785',-1.36
'0:04.789',-0.29
'0:04.793',0.73
'0:04.797',1.36
'0:04.801',1.79
'0:04.805',2.07
'0:04.809',2.23
'0:04.813',2.46
'0:04.816',2.61
'0:04.820',2.92
'0:04.824',3.41
'0:04.828',3.53
'0:04.832',3.61
'0:04.836',3.88
'0:04.840',4.17
'0:04.844',4.15
'0:04.848',4.35
'0:04.852',4.67
'0:04.855',4.88
'0:04.859',4.97
'0:04.863',5.02
'0:04.867',5.02
'0:04.871',5.06
'0:04.875',4.89
'0:04.879',4.67
'0:04.883',4.33
'0:04.887',3.99
'0:04.891',3.53
'0:04.895',3.12
'0:04.898',2.79
'0:04.902',2.11
'0:04.906',1.57
'0:04.910',1.08
'0:04.914',0.56
'0:04.918',0.01
'0:04.922',-0.24
'0:04.926',-0.26
'0:04.930',-0.23
'0:04.934',-0.29
'0:04.938',-0.49
'0:04.941',-0.47
'0:04.945',-0.32
'0:04.949',-0.28
'0:04.953',-0.32
'0:04.957',-0.31
'0:04.961',-0.31
'0:04.965',-0.54
'0:04.969',-0.2
'0:04.973',-0.14
'0:04.977',-0.23
'0:04.980',-0.62
'0:04.984',-0.94
'0:04.988',-1.23
'0:04.992',-1.63
'0:04.996',-1.64
'0:05.000',-1.47
'0:05.004',-1.67
'0:05.008',-1.98
'0:05.012',-2.33
'0:05.016',-2.81
'0:05.020',-3.01
'0:05.023',-2.85
'0:05.027',-2.73
'0:05.031',-2.8
'0:05.035',-3.02
'0:05.039',-3.07
'0:05.043',-2.99
'0:05.047',-2.68
'0:05.051',-2.61
'0:05.055',-2.8
'0:05.059',-2.84
'0:05.063',-2.85
'0:05.066',-2.5
'0:05.070',-2.13
'0:05.074',-1.35
'0:05.078',0.05
'0:05.082',2.59
'0:05.086',5.73
'0:05.090',8.85
'0:05.094',10.6
'0:05.098',8.57
'0:05.102',2.91
'0:05.105',-2.82
'0:05.109',-6.85
'0:05.113',-9.03
'0:05.117',-10.3
'0:05.121',-10.96
'0:05.125',-10.75
'0:05.129',-9.66
'0:05.133',-8.03
'0:05.137',-6.24
'0:05.141',-4.29
'0:05.145',-2.57
'0:05.148',-1.34
'0:05.152',-0.36
'0:05.156',0.36
'0:05.160',0.94
'0:05.164',1.55
'0:05.168',2.16
'0:05.172',2.54
'0:05.176',2.76
'0:05.180',2.87
'0:05.184',2.83
'0:05.188',2.83
'0:05.191',2.98
'0:05.195',3.09
'0:05.199',3.22
'0:05.203',3.47
'0:05.207',3.86
'0:05.211',4.27
'0:05.215',4.53
'0:05.219',4.75
'0:05.223',4.89
'0:05.227',4.92
'0:05.230',4.99
'0:05.234',5.21
'0:05.238',5.33
'0:05.242',5.05
'0:05.246',4.7
'0:05.250',4.23
'0:05.254',3.67
'0:05.258',3.15
'0:05.262',2.59
'0:05.266',2.13
'0:05.270',1.65
'0:05.273',1.18
'0:05.277',0.75
'0:05.281',0.48
'0:05.285',0.41
'0:05.289',0.37
'0:05.293',0.4
'0:05.297',0.51
'0:05.301',0.52
'0:05.305',0.44
'0:05.309',0.26
'0:05.313',-0.02
'0:05.316',-0.2
'0:05.320',-0.19
'0:05.324',-0.14
'0:05.328',-0.14
'0:05.332',-0.24
'0:05.336',-0.42
'0:05.340',-0.69
'0:05.344',-0.99
'0:05.348',-1.22
'0:05.352',-1.38
'0:05.355',-1.44
'0:05.359',-1.5
'0:05.363',-1.7
'0:05.367',-2.04
'0:05.371',-2.45
'0:05.375',-2.93
'0:05.379',-3.22
'0:05.383',-3.29
'0:05.387',-3.29
'0:05.391',-3.24
'0:05.395',-3.24
'0:05.398',-3.17
'0:05.402',-3.01
'0:05.406',-2.94
'0:05.410',-2.93
'0:05.414',-3.11
'0:05.418',-3.34
'0:05.422',-3.37
'0:05.426',-2.98
'0:05.430',-2.25
'0:05.434',-1.08
'0:05.438',1.09
'0:05.441',4.34
'0:05.445',7.87
'0:05.449',10.37
'0:05.453',9.49
'0:05.457',4.45
'0:05.461',-2.13
'0:05.465',-7.09
'0:05.469',-9.83
'0:05.473',-11.02
'0:05.477',-11.18
'0:05.480',-10.6
'0:05.484',-9.51
'0:05.488',-7.89
'0:05.492',-5.95
'0:05.496',-4.05
'0:05.500',-2.37
'0:05.504',-0.92
'0:05.508',0.22
'0:05.512',1.17
'0:05.516',1.91
'0:05.520',2.21
'0:05.523',2.32
'0:05.527',2.57
'0:05.531',2.89
'0:05.535',3.18
'0:05.539',3.39
'0:05.543',3.47
'0:05.547',3.69
'0:05.551',4.08
'0:05.555',4.43
'0:05.559',4.64
'0:05.563',4.71
'0:05.566',4.83
'0:05.570',5.02
'0:05.574',5.19
'0:05.578',5.44
'0:05.582',5.49
'0:05.586',5.41
'0:05.590',5.41
'0:05.594',5.34
'0:05.598',5.2
'0:05.602',5.11
'0:05.605',4.92
'0:05.609',4.53
'0:05.613',4.08
'0:05.617',3.59
'0:05.621',3.16
'0:05.625',2.65
'0:05.629',2.12
'0:05.633',1.7
'0:05.637',1.33
'0:05.641',0.99
'0:05.645',0.78
'0:05.648',0.61
'0:05.652',0.54
'0:05.656',0.34
'0:05.660',0.18
'0:05.664',0.15
'0:05.668',0.17
'0:05.672',0.12
'0:05.676',-0.1
'0:05.680',-0.27
'0:05.684',-0.53
'0:05.688',-0.76
'0:05.691',-0.99
'0:05.695',-1.42
'0:05.699',-1.76
'0:05.703',-1.74
'0:05.707',-1.58
'0:05.711',-1.36
'0:05.715',-1.4
'0:05.719',-1.59
'0:05.723',-1.88
'0:05.727',-2.34
'0:05.730',-2.83
'0:05.734',-3.27
'0:05.738',-3.58
'0:05.742',-3.56
'0:05.746',-3.37
'0:05.750',-3.18
'0:05.754',-3.04
'0:05.758',-2.85
'0:05.762',-2.66
'0:05.766',-2.67
'0:05.770',-2.77
'0:05.773',-2.9
'0:05.777',-3.05
'0:05.781',-2.72
'0:05.785',-1.58
'0:05.789',0.7
'0:05.793',3.74
'0:05.797',6.72
'0:05.801',8.16
'0:05.805',5.81
'0:05.809',0.09
'0:05.813',-6.24
'0:05.816',-10.63
'0:05.820',-12.11
'0:05.824',-12
'0:05.828',-11.28
'0:05.832',-10.12
'0:05.836',-8.55
'0:05.840',-6.57
'0:05.844',-4.49
'0:05.848',-2.72
'0:05.852',-1.38
'0:05.855',-0.27
'0:05.859',0.6
'0:05.863',1.6
'0:05.867',2.29
'0:05.871',2.09
'0:05.875',2.21
'0:05.879',2.69
'0:05.883',3.01
'0:05.887',3.32
'0:05.891',3.59
'0:05.895',3.63
'0:05.898',3.79
'0:05.902',4.24
'0:05.906',4.56
'0:05.910',4.68
'0:05.914',4.62
'0:05.918',4.6
'0:05.922',4.85
'0:05.926',5.1
'0:05.930',5.17
'0:05.934',5.09
'0:05.938',4.92
'0:05.941',4.92
'0:05.945',4.97
'0:05.949',4.94
'0:05.953',4.93
'0:05.957',4.71
'0:05.961',4.32
'0:05.965',3.79
'0:05.969',3.16
'0:05.973',2.45
'0:05.977',1.89
'0:05.980',1.5
'0:05.984',1.2
'0:05.988',0.97
'0:05.992',0.79
'0:05.996',0.68
'0:06.000',0.54
'0:06.004',0.44
'0:06.008',0.37
'0:06.012',0.41
'0:06.016',0.54
'0:06.020',0.54
'0:06.023',0.43
'0:06.027',0.24
'0:06.031',0.07
'0:06.035',-0.18
'0:06.039',-0.29
'0:06.043',-0.09
'0:06.047',-0.05
'0:06.051',-0.55
'0:06.055',-1.25
'0:06.059',-1.43
'0:06.063',-1.23
'0:06.066',-1.25
'0:06.070',-1.52
'0:06.074',-1.95
'0:06.078',-2.43
'0:06.082',-2.88
'0:06.086',-3.28
'0:06.090',-3.48
'0:06.094',-3.53
'0:06.098',-3.5
'0:06.102',-3.48
'0:06.105',-3.46
'0:06.109',-3.48
'0:06.113',-3.48
'0:06.117',-3.45
'0:06.121',-3.34
'0:06.125',-3.36
'0:06.129',-3.36
'0:06.133',-3.25
'0:06.137',-3.07
'0:06.141',-2.57
'0:06.145',-1.42
'0:06.148',0.7
'0:06.152',3.59
'0:06.156',6.45
'0:06.160',7.63
'0:06.164',5.13
'0:06.168',-0.47
'0:06.172',-6.12
'0:06.176',-9.9
'0:06.180',-11.83
'0:06.184',-12.22
'0:06.188',-11.8
'0:06.191',-11.08
'0:06.195',-9.85
'0:06.199',-8.09
'0:06.203',-6.07
'0:06.207',-4.2
'0:06.211',-2.47
'0:06.215',-1.09
'0:06.219',-0.07
'0:06.223',0.7
'0:06.227',1.2
'0:06.230',1.62
'0:06.234',1.91
'0:06.238',2.22
'0:06.242',2.29
'0:06.246',2.32
'0:06.250',2.66
'0:06.254',3.2
'0:06.258',3.57
'0:06.262',3.71
'0:06.266',3.88
'0:06.270',3.97
'0:06.273',4.09
'0:06.277',4.25
'0:06.281',4.43
'0:06.285',4.57
'0:06.289',4.61
'0:06.293',4.88
'0:06.297',5.12
'0:06.301',5.22
'0:06.305',5.11
'0:06.309',5
'0:06.313',4.93
'0:06.316',4.61
'0:06.320',4.08
'0:06.324',3.39
'0:06.328',2.61
'0:06.332',2.04
'0:06.336',1.75
'0:06.340',1.25
'0:06.344',0.73
'0:06.348',0.38
'0:06.352',0
'0:06.355',-0.25
'0:06.359',-0.51
'0:06.363',-0.66
'0:06.367',-0.77
'0:06.371',-0.72
'0:06.375',-0.51
'0:06.379',-0.41
'0:06.383',-0.41
'0:06.387',-0.53
'0:06.391',-0.58
'0:06.395',-0.56
'0:06.398',-0.5
'0:06.402',-0.49
'0:06.406',-0.59
'0:06.410',-0.86
'0:06.414',-1.29
'0:06.418',-1.81
'0:06.422',-2.1
'0:06.426',-2.07
'0:06.430',-1.67
'0:06.434',-1.52
'0:06.438',-1.76
'0:06.441',-2.33
'0:06.445',-3.05
'0:06.449',-3.51
'0:06.453',-3.53
'0:06.457',-3.39
'0:06.461',-3.43
'0:06.465',-3.24
'0:06.469',-3.14
'0:06.473',-3.12
'0:06.477',-3.12
'0:06.480',-3.13
'0:06.484',-3.41
'0:06.488',-3.64
'0:06.492',-3.83
'0:06.496',-3.76
'0:06.500',-3.11
'0:06.504',-1.94
'0:06.508',-0.26
'0:06.512',2.33
'0:06.516',5.22
'0:06.520',8.04
'0:06.523',9.45
'0:06.527',7.19
'0:06.531',1.7
'0:06.535',-3.61
'0:06.539',-7.35
'0:06.543',-9.23
'0:06.547',-9.94
'0:06.551',-10.38
'0:06.555',-10.19
'0:06.559',-9.4
'0:06.563',-7.99
'0:06.566',-6.14
'0:06.570',-4.14
'0:06.574',-2.37
'0:06.578',-1.02
'0:06.582',-0.02
'0:06.586',0.77
'0:06.590',1.4
'0:06.594',1.93
'0:06.598',2.27
'0:06.602',2.41
'0:06.605',2.56
'0:06.609',2.66
'0:06.613',2.76
'0:06.617',3
'0:06.621',3.15
'0:06.625',3.36
'0:06.629',3.32
'0:06.633',3.35
'0:06.637',3.78
'0:06.641',4.23
'0:06.645',4.52
'0:06.648',4.84
'0:06.652',5
'0:06.656',5.02
'0:06.660',5.1
'0:06.664',5.24
'0:06.668',5.1
'0:06.672',4.87
'0:06.676',4.57
'0:06.680',4.09
'0:06.684',3.6
'0:06.688',3.28
'0:06.691',2.74
'0:06.695',2.2
'0:06.699',1.82
'0:06.703',1.48
'0:06.707',1.23
'0:06.711',0.74
'0:06.715',0.3
'0:06.719',0.17
'0:06.723',0.23
'0:06.727',0.4
'0:06.730',0.41
'0:06.734',0.2
'0:06.738',0.07
'0:06.742',0.01
'0:06.746',0.05
'0:06.750',0.12
'0:06.754',0.03
'0:06.758',0.05
'0:06.762',0.1
'0:06.766',0.02
'0:06.770',-0.34
'0:06.773',-0.73
'0:06.777',-0.94
'0:06.781',-1.09
'0:06.785',-1.2
'0:06.789',-1.26
'0:06.793',-1.31
'0:06.797',-1.57
'0:06.801',-2.13
'0:06.805',-2.66
'0:06.809',-2.98
'0:06.813',-3.03
'0:06.816',-2.91
'0:06.820',-2.85
'0:06.824',-2.82
'0:06.828',-2.67
'0:06.832',-2.56
'0:06.836',-2.58
'0:06.840',-2.63
'0:06.844',-2.76
'0:06.848',-3.03
'0:06.852',-3.15
'0:06.855',-2.86
'0:06.859',-2.22
'0:06.863',-1.11
'0:06.867',0.65
'0:06.871',3.4
'0:06.875',6.65
'0:06.879',9.45
'0:06.883',10.06
'0:06.887',6.4
'0:06.891',-0.05
'0:06.895',-5.74
'0:06.898',-9.34
'0:06.902',-11.1
'0:06.906',-11.66
'0:06.910',-11.45
'0:06.914',-10.52
'0:06.918',-8.95
'0:06.922',-6.92
'0:06.926',-4.92
'0:06.930',-3.23
'0:06.934',-1.77
'0:06.938',-0.58
'0:06.941',0.32
'0:06.945',0.99
'0:06.949',1.49
'0:06.953',1.9
'0:06.957',2.2
'0:06.961',2.37
'0:06.965',2.51
'0:06.969',2.6
'0:06.973',2.7
'0:06.977',2.86
'0:06.980',3.02
'0:06.984',3.13
'0:06.988',3.12
'0:06.992',3.2
'0:06.996',3.6
'0:07.000',4.15
'0:07.004',4.57
'0:07.008',4.83
'0:07.012',4.97
'0:07.016',4.87
'0:07.020',4.61
'0:07.023',4.63
'0:07.027',4.81
'0:07.031',4.92
'0:07.035',4.82
'0:07.039',4.45
'0:07.043',3.91
'0:07.047',3.3
'0:07.051',2.82
'0:07.055',2.37
'0:07.059',1.87
'0:07.063',1.43
'0:07.066',1.06
'0:07.070',0.88
'0:07.074',0.83
'0:07.078',0.83
'0:07.082',0.83
'0:07.086',0.78
'0:07.090',0.56
'0:07.094',0.49
'0:07.098',0.66
'0:07.102',0.8
'0:07.105',0.75
'0:07.109',0.62
'0:07.113',0.59
'0:07.117',0.45
'0:07.121',0.2
'0:07.125',-0.18
'0:07.129',-0.53
'0:07.133',-0.73
'0:07.137',-0.93
'0:07.141',-1.12
'0:07.145',-1.3
'0:07.148',-1.46
'0:07.152',-1.69
'0:07.156',-2.1
'0:07.160',-2.44
'0:07.164',-2.73
'0:07.168',-2.89
'0:07.172',-2.86
'0:07.176',-2.68
'0:07.180',-2.58
'0:07.184',-2.51
'0:07.188',-2.37
'0:07.191',-2.51
'0:07.195',-2.78
'0:07.199',-2.94
'0:07.203',-3.03
'0:07.207',-3.12
'0:07.211',-2.94
'0:07.215',-2.02
'0:07.219',-0.28
'0:07.223',2.46
'0:07.227',5.51
'0:07.230',7.72
'0:07.234',7.55
'0:07.238',3.79
'0:07.242',-2.29
'0:07.246',-7.54
'0:07.250',-10.52
'0:07.254',-11.7
'0:07.258',-11.7
'0:07.262',-11.12
'0:07.266',-9.87
'0:07.270',-7.96
'0:07.273',-5.79
'0:07.277',-3.83
'0:07.281',-2.13
'0:07.285',-0.74
'0:07.289',0.39
'0:07.293',1.26
'0:07.297',1.87
'0:07.301',2.45
'0:07.305',2.85
'0:07.309',2.98
'0:07.313',2.82
'0:07.316',2.69
'0:07.320',2.84
'0:07.324',3.25
'0:07.328',3.62
'0:07.332',3.85
'0:07.336',3.97
'0:07.340',4.03
'0:07.344',4.1
'0:07.348',4.32
'0:07.352',4.71
'0:07.355',5.1
'0:07.359',5.37
'0:07.363',5.33
'0:07.367',5.16
'0:07.371',5.03
'0:07.375',4.84
'0:07.379',4.82
'0:07.383',4.9
'0:07.387',4.79
'0:07.391',4.47
'0:07.395',4.03
'0:07.398',3.42
'0:07.402',2.81
'0:07.406',2.26
'0:07.410',1.67
'0:07.414',1.34
'0:07.418',1.24
'0:07.422',1
'0:07.426',0.66
'0:07.430',0.11
'0:07.434',-0.27
'0:07.438',-0.1
'0:07.441',0.18
'0:07.445',0.14
'0:07.449',0.13
'0:07.453',0.11
'0:07.457',-0.03
'0:07.461',-0.26
'0:07.465',-0.5
'0:07.469',-0.51
'0:07.473',-0.51
'0:07.477',-0.51
'0:07.480',-0.61
'0:07.484',-0.86
'0:07.488',-1.23
'0:07.492',-1.51
'0:07.496',-1.69
'0:07.500',-1.95
'0:07.504',-2.15
'0:07.508',-2.32
'0:07.512',-2.64
'0:07.516',-3.13
'0:07.520',-3.58
'0:07.523',-3.71
'0:07.527',-3.73
'0:07.531',-3.65
'0:07.535',-3.48
'0:07.539',-3.26
'0:07.543',-3.04
'0:07.547',-2.82
'0:07.551',-2.75
'0:07.555',-2.81
'0:07.559',-2.91
'0:07.563',-2.92
'0:07.566',-2.84
'0:07.570',-2.47
'0:07.574',-1.55
'0:07.578',0.24
'0:07.582',3.07
'0:07.586',6.18
'0:07.590',8.26
'0:07.594',7.93
'0:07.598',3.89
'0:07.602',-2.21
'0:07.605',-7.28
'0:07.609',-10.31
'0:07.613',-11.43
'0:07.617',-11.44
'0:07.621',-10.81
'0:07.625',-9.67
'0:07.629',-8.02
'0:07.633',-6.26
'0:07.637',-4.51
'0:07.641',-2.86
'0:07.645',-1.46
'0:07.648',-0.36
'0:07.652',0.43
'0:07.656',1.04
'0:07.660',1.48
'0:07.664',1.79
'0:07.668',2.03
'0:07.672',2.27
'0:07.676',2.5
'0:07.680',2.79
'0:07.684',3.08
'0:07.688',3.35
'0:07.691',3.47
'0:07.695',3.51
'0:07.699',3.52
'0:07.703',3.7
'0:07.707',3.86
'0:07.711',4.03
'0:07.715',4.28
'0:07.719',4.63
'0:07.723',4.79
'0:07.727',4.83
'0:07.730',4.8
'0:07.734',4.72
'0:07.738',4.44
'0:07.742',4.08
'0:07.746',3.72
'0:07.750',3.46
'0:07.754',3.11
'0:07.758',2.47
'0:07.762',1.98
'0:07.766',1.48
'0:07.770',1
'0:07.773',0.47
'0:07.777',-0.03
'0:07.781',-0.47
'0:07.785',-0.98
'0:07.789',-1.42
'0:07.793',-1.58
'0:07.797',-1.43
'0:07.801',-1.17
'0:07.805',-1.02
'0:07.809',-1.04
'0:07.813',-1.04
'0:07.816',-0.92
'0:07.820',-1
'0:07.824',-1.04
'0:07.828',-0.93
'0:07.832',-0.88
'0:07.836',-0.84
'0:07.840',-0.91
'0:07.844',-1.16
'0:07.848',-1.42
'0:07.852',-1.6
'0:07.855',-1.63
'0:07.859',-1.7
'0:07.863',-1.84
'0:07.867',-2.15
'0:07.871',-2.44
'0:07.875',-2.72
'0:07.879',-2.97
'0:07.883',-3.13
'0:07.887',-3.41
'0:07.891',-3.46
'0:07.895',-3.41
'0:07.898',-3.28
'0:07.902',-2.99
'0:07.906',-2.87
'0:07.910',-3.02
'0:07.914',-3.11
'0:07.918',-3.11
'0:07.922',-3.19
'0:07.926',-3.41
'0:07.930',-3.33
'0:07.934',-2.68
'0:07.938',-1.65
'0:07.941',-0.31
'0:07.945',1.95
'0:07.949',5.07
'0:07.953',8.01
'0:07.957',9.83
'0:07.961',8.07
'0:07.965',2.39
'0:07.969',-3.54
'0:07.973',-7.7
'0:07.977',-10
'0:07.980',-10.92
'0:07.984',-11.06
'0:07.988',-10.67
'0:07.992',-9.63
'0:07.996',-8.14
'0:08.000',-6.29
'0:08.004',-4.63
'0:08.008',-2.93
'0:08.012',-1.54
'0:08.016',-0.37
'0:08.020',0.3
'0:08.023',0.77
'0:08.027',1.31
'0:08.031',1.72
'0:08.035',1.9
'0:08.039',1.89
'0:08.043',2.13
'0:08.047',2.47
'0:08.051',2.76
'0:08.055',2.91
'0:08.059',3.08
'0:08.063',3.3
'0:08.066',3.54
'0:08.070',3.88
'0:08.074',4
'0:08.078',4.13
'0:08.082',4.39
'0:08.086',4.61
'0:08.090',4.76
'0:08.094',4.74
'0:08.098',4.59
'0:08.102',4.58
'0:08.105',4.61
'0:08.109',4.55
'0:08.113',4.2
'0:08.117',3.74
'0:08.121',3.18
'0:08.125',2.62
'0:08.129',2.23
'0:08.133',1.89
'0:08.137',1.46
'0:08.141',0.99
'0:08.145',0.65
'0:08.148',0.49
'0:08.152',0.53
'0:08.156',0.54
'0:08.160',0.55
'0:08.164',0.71
'0:08.168',0.69
'0:08.172',0.6
'0:08.176',0.51
'0:08.180',0.4
'0:08.184',0.34
'0:08.188',0.34
'0:08.191',0.27
'0:08.195',0.16
'0:08.199',-0.05
'0:08.203',-0.22
'0:08.207',-0.29
'0:08.211',-0.57
'0:08.215',-1.1
'0:08.219',-1.39
'0:08.223',-1.08
'0:08.227',-0.72
'0:08.230',-0.8
'0:08.234',-1.18
'0:08.238',-1.55
'0:08.242',-1.9
'0:08.246',-2.15
'0:08.250',-2.47
'0:08.254',-2.65
'0:08.258',-2.49
'0:08.262',-2.21
'0:08.266',-1.97
'0:08.270',-1.96
'0:08.273',-2.04
'0:08.277',-2.08
'0:08.281',-2.24
'0:08.285',-2.39
'0:08.289',-2.46
'0:08.293',-2.26
'0:08.297',-1.49
'0:08.301',-0.15
'0:08.305',1.99
'0:08.309',5.03
'0:08.313',8.15
'0:08.316',10.25
'0:08.320',9.11
'0:08.324',3.83
'0:08.328',-2.68
'0:08.332',-7.37
'0:08.336',-9.88
'0:08.340',-10.93
'0:08.344',-11.12
'0:08.348',-10.64
'0:08.352',-9.68
'0:08.355',-8.04
'0:08.359',-6.07
'0:08.363',-4.25
'0:08.367',-2.74
'0:08.371',-1.49
'0:08.375',-0.36
'0:08.379',0.56
'0:08.383',1.29
'0:08.387',1.97
'0:08.391',2.43
'0:08.395',2.84
'0:08.398',3.12
'0:08.402',3.43
'0:08.406',3.66
'0:08.410',3.85
'0:08.414',4.12
'0:08.418',4.32
'0:08.422',4.44
'0:08.426',4.52
'0:08.430',4.58
'0:08.434',4.71
'0:08.438',4.96
'0:08.441',5.27
'0:08.445',5.4
'0:08.449',5.41
'0:08.453',5.35
'0:08.457',5.27
'0:08.461',5.16
'0:08.465',4.97
'0:08.469',4.7
'0:08.473',4.34
'0:08.477',3.79
'0:08.480',3.27
'0:08.484',2.81
'0:08.488',2.26
'0:08.492',1.82
'0:08.496',1.35
'0:08.500',0.96
'0:08.504',0.67
'0:08.508',0.51
'0:08.512',0.51
'0:08.516',0.51
'0:08.520',0.51
'0:08.523',0.47
'0:08.527',0.36
'0:08.531',0.24
'0:08.535',0.11
'0:08.539',0
'0:08.543',-0.02
'0:08.547',-0.02
'0:08.551',0
'0:08.555',-0.08
'0:08.559',-0.33
'0:08.563',-0.67
'0:08.566',-1.08
'0:08.570',-1.45
'0:08.574',-1.71
'0:08.578',-1.83
'0:08.582',-1.93
'0:08.586',-2.19
'0:08.590',-2.59
'0:08.594',-2.87
'0:08.598',-3.04
'0:08.602',-3.19
'0:08.605',-3.38
'0:08.609',-3.48
'0:08.613',-3.53
'0:08.617',-3.55
'0:08.621',-3.36
'0:08.625',-3.01
'0:08.629',-2.68
'0:08.633',-2.56
'0:08.637',-2.66
'0:08.641',-2.89
'0:08.645',-2.87
'0:08.648',-2.65
'0:08.652',-2.04
'0:08.656',-0.68
'0:08.660',1.82
'0:08.664',5.09
'0:08.668',8.14
'0:08.672',9.12
'0:08.676',6.2
'0:08.680',0.13
'0:08.684',-5.95
'0:08.688',-9.68
'0:08.691',-11.36
'0:08.695',-11.79
'0:08.699',-11.42
'0:08.703',-10.38
'0:08.707',-8.51
'0:08.711',-6.17
'0:08.715',-3.95
'0:08.719',-2.06
'0:08.723',-0.6
'0:08.727',0.39
'0:08.730',1.18
'0:08.734',1.76
'0:08.738',2.1
'0:08.742',2.32
'0:08.746',2.44
'0:08.750',2.56
'0:08.754',2.72
'0:08.758',2.82
'0:08.762',3.06
'0:08.766',3.42
'0:08.770',3.76
'0:08.773',3.88
'0:08.777',3.92
'0:08.781',3.92
'0:08.785',4.15
'0:08.789',4.59
'0:08.793',4.95
'0:08.797',5.19
'0:08.801',5.41
'0:08.805',5.34
'0:08.809',5.33
'0:08.813',5.53
'0:08.816',5.56
'0:08.820',5.38
'0:08.824',5
'0:08.828',4.44
'0:08.832',3.96
'0:08.836',3.52
'0:08.840',3
'0:08.844',2.49
'0:08.848',1.89
'0:08.852',1.47
'0:08.855',1.04
'0:08.859',0.56
'0:08.863',-0.01
'0:08.867',-0.44
'0:08.871',-0.49
'0:08.875',-0.44
'0:08.879',-0.39
'0:08.883',-0.31
'0:08.887',-0.2
'0:08.891',-0.09
'0:08.895',-0.02
'0:08.898',-0.06
'0:08.902',-0.22
'0:08.906',-0.34
'0:08.910',-0.29
'0:08.914',-0.28
'0:08.918',-0.43
'0:08.922',-0.73
'0:08.926',-1.03
'0:08.930',-1.29
'0:08.934',-1.48
'0:08.938',-1.68
'0:08.941',-1.9
'0:08.945',-2.05
'0:08.949',-2.28
'0:08.953',-2.64
'0:08.957',-3.12
'0:08.961',-3.5
'0:08.965',-3.65
'0:08.969',-3.7
'0:08.973',-3.65
'0:08.977',-3.55
'0:08.980',-3.46
'0:08.984',-3.43
'0:08.988',-3.36
'0:08.992',-3.36
'0:08.996',-3.39
'0:09.000',-3.46
'0:09.004',-3.25
'0:09.008',-2.94
'0:09.012',-2.36
'0:09.016',-1.2
'0:09.020',1.03
'0:09.023',4.04
'0:09.027',6.95
'0:09.031',8.09
'0:09.035',5.6
'0:09.039',-0.14
'0:09.043',-5.95
'0:09.047',-9.85
'0:09.051',-11.67
'0:09.055',-12.27
'0:09.059',-11.9
'0:09.063',-10.87
'0:09.066',-9.32
'0:09.070',-7.32
'0:09.074',-5.23
'0:09.078',-3.34
'0:09.082',-1.74
'0:09.086',-0.67
'0:09.090',0.21
'0:09.094',0.98
'0:09.098',1.54
'0:09.102',1.85
'0:09.105',2.05
'0:09.109',2.05
'0:09.113',2.12
'0:09.117',2.31
'0:09.121',2.73
'0:09.125',3.2
'0:09.129',3.56
'0:09.133',3.68
'0:09.137',3.68
'0:09.141',3.71
'0:09.145',3.85
'0:09.148',4.02
'0:09.152',4.19
'0:09.156',4.42
'0:09.160',4.8
'0:09.164',5.21
'0:09.168',5.31
'0:09.172',5.27
'0:09.176',5.22
'0:09.180',5.14
'0:09.184',4.73
'0:09.188',4.2
'0:09.191',3.78
'0:09.195',3.35
'0:09.199',2.75
'0:09.203',2.25
'0:09.207',1.84
'0:09.211',1.5
'0:09.215',1.24
'0:09.219',0.94
'0:09.223',0.44
'0:09.227',-0.11
'0:09.230',-0.55
'0:09.234',-0.73
'0:09.238',-0.67
'0:09.242',-0.53
'0:09.246',-0.35
'0:09.250',-0.32
'0:09.254',-0.33
'0:09.258',-0.23
'0:09.262',-0.08
'0:09.266',-0.15
'0:09.270',-0.25
'0:09.273',-0.39
'0:09.277',-0.32
'0:09.281',-0.32
'0:09.285',-0.52
'0:09.289',-0.92
'0:09.293',-1.35
'0:09.297',-1.79
'0:09.301',-2.12
'0:09.305',-2.26
'0:09.309',-2.46
'0:09.313',-2.64
'0:09.316',-2.98
'0:09.320',-3.36
'0:09.324',-3.62
'0:09.328',-3.72
'0:09.332',-3.78
'0:09.336',-3.94
'0:09.340',-3.78
'0:09.344',-3.35
'0:09.348',-3.09
'0:09.352',-3.05
'0:09.355',-3.07
'0:09.359',-3.09
'0:09.363',-3.39
'0:09.367',-3.76
'0:09.371',-3.81
'0:09.375',-3.39
'0:09.379',-2.55
'0:09.383',-0.74
'0:09.387',1.93
'0:09.391',5.11
'0:09.395',8.07
'0:09.398',9.5
'0:09.402',6.97
'0:09.406',1.01
'0:09.410',-4.38
'0:09.414',-8.05
'0:09.418',-9.95
'0:09.422',-10.93
'0:09.426',-11.33
'0:09.430',-11.08
'0:09.434',-9.89
'0:09.438',-7.89
'0:09.441',-5.63
'0:09.445',-3.92
'0:09.449',-2.7
'0:09.453',-1.66
'0:09.457',-0.75
'0:09.461',0.37
'0:09.465',1.25
'0:09.469',1.74
'0:09.473',1.79
'0:09.477',1.95
'0:09.480',2.21
'0:09.484',2.6
'0:09.488',2.74
'0:09.492',2.86
'0:09.496',2.95
'0:09.500',3.11
'0:09.504',3.52
'0:09.508',3.92
'0:09.512',4.15
'0:09.516',4.32
'0:09.520',4.36
'0:09.523',4.32
'0:09.527',4.51
'0:09.531',4.78
'0:09.535',4.96
'0:09.539',5.21
'0:09.543',5.19
'0:09.547',5.04
'0:09.551',4.78
'0:09.555',4.3
'0:09.559',3.63
'0:09.563',3.02
'0:09.566',2.54
'0:09.570',2.27
'0:09.574',2.24
'0:09.578',1.79
'0:09.582',1.12
'0:09.586',0.74
'0:09.590',0.44
'0:09.594',0.32
'0:09.598',0.34
'0:09.602',0.35
'0:09.605',0.5
'0:09.609',0.63
'0:09.613',0.68
'0:09.617',0.74
'0:09.621',0.76
'0:09.625',0.69
'0:09.629',0.58
'0:09.633',0.52
'0:09.637',0.47
'0:09.641',0.34
'0:09.645',0.11
'0:09.648',-0.17
'0:09.652',-0.46
'0:09.656',-0.58
'0:09.660',-0.67
'0:09.664',-0.83
'0:09.668',-1.15
'0:09.672',-1.49
'0:09.676',-1.84
'0:09.680',-2.29
'0:09.684',-2.66
'0:09.688',-2.83
'0:09.691',-3.05
'0:09.695',-3.16
'0:09.699',-3.21
'0:09.703',-3.16
'0:09.707',-2.99
'0:09.711',-2.74
'0:09.715',-2.54
'0:09.719',-2.62
'0:09.723',-3.05
'0:09.727',-3.37
'0:09.730',-3.34
'0:09.734',-3.16
'0:09.738',-2.68
'0:09.742',-1.42
'0:09.746',0.97
'0:09.750',4.31
'0:09.754',7.68
'0:09.758',10.14
'0:09.762',9.44
'0:09.766',4.24
'0:09.770',-2.13
'0:09.773',-6.61
'0:09.777',-9.18
'0:09.781',-10.54
'0:09.785',-11.03
'0:09.789',-10.73
'0:09.793',-9.75
'0:09.797',-8.21
'0:09.801',-6.38
'0:09.805',-4.69
'0:09.809',-3.04
'0:09.813',-1.29
'0:09.816',0.34
'0:09.820',1.52
'0:09.824',1.84
'0:09.828',1.93
'0:09.832',2.13
'0:09.836',2.25
'0:09.840',2.29
'0:09.844',2.37
'0:09.848',2.75
'0:09.852',3.21
'0:09.855',3.32
'0:09.859',3.37
'0:09.863',3.61
'0:09.867',3.85
'0:09.871',3.92
'0:09.875',4.11
'0:09.879',4.57
'0:09.883',5.07
'0:09.887',5.54
'0:09.891',5.75
'0:09.895',5.73
'0:09.898',5.76
'0:09.902',5.74
'0:09.906',5.49
'0:09.910',5.17
'0:09.914',4.69
'0:09.918',4.18
'0:09.922',3.87
'0:09.926',3.73
'0:09.930',3.53
'0:09.934',3.02
'0:09.938',2.29
'0:09.941',1.64
'0:09.945',1.16
'0:09.949',1.01
'0:09.953',1.04
'0:09.957',0.95
'0:09.961',1.07
'0:09.965',1.37
'0:09.969',1.43
'0:09.973',1.17
'0:09.977',0.85
'0:09.980',0.77
'0:09.984',0.91
'0:09.988',1.05
'0:09.992',0.99
'0:09.996',0.67
'0:10.000',0.2
'0:10.004',-0.26
'0:10.008',-0.72
'0:10.012',-0.97
'0:10.016',-1.04
'0:10.020',-1.05
'0:10.023',-1.14
'0:10.027',-1.39
'0:10.031',-1.8
'0:10.035',-2.28
'0:10.039',-2.74
'0:10.043',-3.05
'0:10.047',-3.24
'0:10.051',-3.16
'0:10.055',-2.99
'0:10.059',-2.72
'0:10.063',-2.36
'0:10.066',-2.19
'0:10.070',-2.15
'0:10.074',-2.23
'0:10.078',-2.29
'0:10.082',-2.23
'0:10.086',-2.05
'0:10.090',-1.64
'0:10.094',-0.82
'0:10.098',0.79
'0:10.102',3.45
'0:10.105',6.3
'0:10.109',7.97
'0:10.113',6.69
'0:10.117',2
'0:10.121',-4.07
'0:10.125',-8.74
'0:10.129',-11.07
'0:10.133',-11.77
'0:10.137',-11.55
'0:10.141',-10.68
'0:10.145',-9.18
'0:10.148',-7.18
'0:10.152',-5.08
'0:10.156',-3.29
'0:10.160',-1.86
'0:10.164',-0.62
'0:10.168',0.42
'0:10.172',1.27
'0:10.176',1.86
'0:10.180',2.2
'0:10.184',2.37
'0:10.188',2.52
'0:10.191',2.73
'0:10.195',3.08
'0:10.199',3.43
'0:10.203',3.7
'0:10.207',3.87
'0:10.211',3.84
'0:10.215',3.8
'0:10.219',3.93
'0:10.223',4.15
'0:10.227',4.43
'0:10.230',4.77
'0:10.234',5.06
'0:10.238',5.25
'0:10.242',5.29
'0:10.246',5.23
'0:10.250',5.11
'0:10.254',4.97
'0:10.258',4.67
'0:10.262',4.46
'0:10.266',4.33
'0:10.270',3.97
'0:10.273',3.21
'0:10.277',2.42
'0:10.281',1.94
'0:10.285',1.65
'0:10.289',1.33
'0:10.293',0.79
'0:10.297',0.24
'0:10.301',0
'0:10.305',-0.24
'0:10.309',-0.63
'0:10.313',-1.1
'0:10.316',-1.26
'0:10.320',-1.14
'0:10.324',-0.89
'0:10.328',-0.78
'0:10.332',-0.8
'0:10.336',-0.78
'0:10.340',-0.68
'0:10.344',-0.56
'0:10.348',-0.53
'0:10.352',-0.54
'0:10.355',-0.56
'0:10.359',-0.72
'0:10.363',-1.01
'0:10.367',-1.34
'0:10.371',-1.61
'0:10.375',-1.63
'0:10.379',-1.66
'0:10.383',-1.85
'0:10.387',-2.03
'0:10.391',-2.14
'0:10.395',-2.35
'0:10.398',-2.69
'0:10.402',-2.95
'0:10.406',-3.17
'0:10.410',-3.3
'0:10.414',-3.36
'0:10.418',-3.32
'0:10.422',-3.18
'0:10.426',-3.03
'0:10.430',-2.96
'0:10.434',-2.97
'0:10.438',-3.04
'0:10.441',-3.15
'0:10.445',-3.26
'0:10.449',-3.14
'0:10.453',-2.63
'0:10.457',-1.59
'0:10.461',0.51
'0:10.465',3.63
'0:10.469',6.84
'0:10.473',8.62
'0:10.477',6.88
'0:10.480',1.57
'0:10.484',-4.53
'0:10.488',-8.94
'0:10.492',-11.06
'0:10.496',-11.67
'0:10.500',-11.61
'0:10.504',-10.9
'0:10.508',-9.55
'0:10.512',-7.73
'0:10.516',-5.6
'0:10.520',-3.73
'0:10.523',-2.02
'0:10.527',-0.55
'0:10.531',0.4
'0:10.535',1.04
'0:10.539',1.5
'0:10.543',1.76
'0:10.547',1.91
'0:10.551',1.97
'0:10.555',2.06
'0:10.559',2.31
'0:10.563',2.67
'0:10.566',2.89
'0:10.570',3.13
'0:10.574',3.42
'0:10.578',3.63
'0:10.582',3.74
'0:10.586',3.91
'0:10.590',3.97
'0:10.594',3.87
'0:10.598',3.95
'0:10.602',4.2
'0:10.605',4.6
'0:10.609',4.9
'0:10.613',5.02
'0:10.617',4.94
'0:10.621',4.82
'0:10.625',4.62
'0:10.629',4.38
'0:10.633',3.87
'0:10.637',3.19
'0:10.641',2.53
'0:10.645',1.91
'0:10.648',1.39
'0:10.652',0.99
'0:10.656',0.56
'0:10.660',-0.04
'0:10.664',-0.54
'0:10.668',-0.85
'0:10.672',-1.11
'0:10.676',-1.37
'0:10.680',-1.4
'0:10.684',-1.22
'0:10.688',-0.79
'0:10.691',-0.66
'0:10.695',-0.69
'0:10.699',-0.82
'0:10.703',-0.85
'0:10.707',-0.9
'0:10.711',-1.07
'0:10.715',-1.18
'0:10.719',-1.19
'0:10.723',-1.16
'0:10.727',-1.32
'0:10.730',-1.57
'0:10.734',-2
'0:10.738',-2.12
'0:10.742',-1.99
'0:10.746',-1.89
'0:10.750',-1.97
'0:10.754',-2.13
'0:10.758',-2.67
'0:10.762',-3.05
'0:10.766',-3.21
'0:10.770',-2.88
'0:10.773',-2.51
'0:10.777',-2.68
'0:10.781',-2.87
'0:10.785',-2.83
'0:10.789',-2.65
'0:10.793',-2.46
'0:10.797',-2.47
'0:10.801',-2.7
'0:10.805',-2.81
'0:10.809',-3.1
'0:10.813',-3.25
'0:10.816',-2.75
'0:10.820',-1.84
'0:10.824',-0.35
'0:10.828',2.25
'0:10.832',5.6
'0:10.836',8.49
'0:10.840',9.64
'0:10.844',6.66
'0:10.848',0.87
'0:10.852',-4.16
'0:10.855',-7.56
'0:10.859',-9.18
'0:10.863',-10
'0:10.867',-10.19
'0:10.871',-9.66
'0:10.875',-8.27
'0:10.879',-6.43
'0:10.883',-4.67
'0:10.887',-2.8
'0:10.891',-1.26
'0:10.895',0.09
'0:10.898',0.96
'0:10.902',1.7
'0:10.906',2.43
'0:10.910',2.88
'0:10.914',3
'0:10.918',3.08
'0:10.922',3.17
'0:10.926',3.17
'0:10.930',3.79
'0:10.934',4.47
'0:10.938',4.88
'0:10.941',5
'0:10.945',4.93
'0:10.949',4.69
'0:10.953',4.45
'0:10.957',4.54
'0:10.961',5.24
'0:10.965',5.58
'0:10.969',5.76
'0:10.973',6.02
'0:10.977',6.19
'0:10.980',6.19
'0:10.984',5.88
'0:10.988',5.38
'0:10.992',4.86
'0:10.996',4.3
'0:11.000',3.94
'0:11.004',3.65
'0:11.008',3.02
'0:11.012',2.09
'0:11.016',1.64
'0:11.020',1.35
'0:11.023',0.63
'0:11.027',0.26
'0:11.031',-0.45
'0:11.035',-0.79
'0:11.039',-0.73
'0:11.043',-0.65
'0:11.047',-0.33
'0:11.051',-0.46
'0:11.055',-0.53
'0:11.059',0
'0:11.063',-0.07
'0:11.066',-0.11
'0:11.070',0.05
'0:11.074',0.03
'0:11.078',0.17
'0:11.082',0.21
'0:11.086',-0.09
'0:11.090',-0.36
'0:11.094',-0.71
'0:11.098',-0.89
'0:11.102',-0.98
'0:11.105',-1.1
'0:11.109',-1.37
'0:11.113',-1.37
'0:11.117',-1.49
'0:11.121',-1.81
'0:11.125',-2.01
'0:11.129',-2.44
'0:11.133',-2.74
'0:11.137',-2.97
'0:11.141',-2.82
'0:11.145',-2.68
'0:11.148',-2.46
'0:11.152',-2.08
'0:11.156',-1.86
'0:11.160',-2.32
'0:11.164',-2.29
'0:11.168',-2.54
'0:11.172',-2.38
'0:11.176',-1.62
'0:11.180',-0.75
'0:11.184',-2.89
'0:11.188',-7.43
'0:11.191',-3.05
'0:11.195',3.48
'0:11.199',9.76
'0:11.203',13.96
'0:11.207',11.99
'0:11.211',6.72
'0:11.215',1.37
'0:11.219',-2.92
'0:11.223',-5.63
'0:11.227',-7.24
'0:11.230',-8.37
'0:11.234',-8.58
'0:11.238',-7.54
'0:11.242',-5.89
'0:11.246',-4.41
'0:11.250',-3.14
'0:11.254',-1.65
'0:11.258',-0.41
'0:11.262',0.6
'0:11.266',1.07
'0:11.270',1.55
'0:11.273',2.16
'0:11.277',2.89
'0:11.281',3
'0:11.285',2.92
'0:11.289',3
'0:11.293',2.93
'0:11.297',2.68
'0:11.301',2.89
'0:11.305',3.45
'0:11.309',3.59
'0:11.313',4.06
'0:11.316',4.15
'0:11.320',4.13
'0:11.324',4.29
'0:11.328',4.73
'0:11.332',4.84
'0:11.336',4.67
'0:11.340',4.29
'0:11.344',4.03
'0:11.348',4.2
'0:11.352',4.23
'0:11.355',3.9
'0:11.359',3.62
'0:11.363',3.15
'0:11.367',2.46
'0:11.371',1.7
'0:11.375',0.96
'0:11.379',0.69
'0:11.383',0.3
'0:11.387',-0.07
'0:11.391',0.11
'0:11.395',-0.07
'0:11.398',-0.07
'0:11.402',-0.37
'0:11.406',-0.41
'0:11.410',-0.33
'0:11.414',-0.03
'0:11.418',0.05
'0:11.422',0.15
'0:11.426',0.14
'0:11.430',0.03
'0:11.434',0.04
'0:11.438',0.24
'0:11.441',0.09
'0:11.445',-0.14
'0:11.449',0.03
'0:11.453',-0.31
'0:11.457',-1.08
'0:11.461',-1.44
'0:11.465',-1.52
'0:11.469',-1.18
'0:11.473',-1.1
'0:11.477',-1.26
'0:11.480',-2.03
'0:11.484',-2.86
'0:11.488',-3.2
'0:11.492',-3.32
'0:11.496',-3.3
'0:11.500',-3.22
'0:11.504',-3.23
'0:11.508',-3.28
'0:11.512',-3.22
'0:11.516',-3.43
'0:11.520',-3.31
'0:11.523',-3.06
'0:11.527',-3.19
'0:11.531',-3.34
'0:11.535',-3.22
'0:11.539',-2.68
'0:11.543',-1.53
'0:11.547',0.26
'0:11.551',2.77
'0:11.555',5.84
'0:11.559',9.13
'0:11.563',11.92
'0:11.566',13.09
'0:11.570',11.02
'0:11.574',5.06
'0:11.578',-1.35
'0:11.582',-6.07
'0:11.586',-8.9
'0:11.590',-10.38
'0:11.594',-11.07
'0:11.598',-11.26
'0:11.602',-10.74
'0:11.605',-9.59
'0:11.609',-8.09
'0:11.613',-6.56
'0:11.617',-5.05
'0:11.621',-3.49
'0:11.625',-2.29
'0:11.629',-1.3
'0:11.633',-0.61
'0:11.637',-0.13
'0:11.641',0.26
'0:11.645',0.61
'0:11.648',1.06
'0:11.652',1.64
'0:11.656',1.88
'0:11.660',2.08
'0:11.664',2.25
'0:11.668',2.42
'0:11.672',2.49
'0:11.676',2.44
'0:11.680',2.62
'0:11.684',2.95
'0:11.688',3.02
'0:11.691',3.13
'0:11.695',3.32
'0:11.699',3.62
'0:11.703',3.95
'0:11.707',4.15
'0:11.711',4.51
'0:11.715',4.63
'0:11.719',4.35
'0:11.723',4.01
'0:11.727',3.58
'0:11.730',2.99
'0:11.734',2.37
'0:11.738',1.77
'0:11.742',1.02
'0:11.746',0.09
'0:11.750',-0.64
'0:11.754',-0.76
'0:11.758',-0.3
'0:11.762',0.21
'0:11.766',0.49
'0:11.770',0.69
'0:11.773',0.69
'0:11.777',0.44
'0:11.781',0.33
'0:11.785',0.47
'0:11.789',0.44
'0:11.793',0.29
'0:11.797',0
'0:11.801',-0.21
'0:11.805',-0.39
'0:11.809',-0.72
'0:11.813',-1.07
'0:11.816',-1.01
'0:11.820',-0.9
'0:11.824',-0.81
'0:11.828',-0.81
'0:11.832',-1.06
'0:11.836',-1.47
'0:11.840',-2.05
'0:11.844',-2.73
'0:11.848',-3.27
'0:11.852',-3.56
'0:11.855',-3.78
'0:11.859',-3.83
'0:11.863',-3.62
'0:11.867',-3.41
'0:11.871',-3.34
'0:11.875',-3.16
'0:11.879',-2.94
'0:11.883',-2.87
'0:11.887',-3.09
'0:11.891',-3.34
'0:11.895',-3.47
'0:11.898',-3.4
'0:11.902',-2.8
'0:11.906',-1.4
'0:11.910',1.04
'0:11.914',4.19
'0:11.918',7.4
'0:11.922',9.32
'0:11.926',7.7
'0:11.930',2.29
'0:11.934',-3.98
'0:11.938',-8.38
'0:11.941',-10.71
'0:11.945',-11.71
'0:11.949',-11.84
'0:11.953',-11.27
'0:11.957',-10
'0:11.961',-8.22
'0:11.965',-6.41
'0:11.969',-5
'0:11.973',-3.71
'0:11.977',-2.5
'0:11.980',-1.49
'0:11.984',-0.63
'0:11.988',0.07
'0:11.992',0.62
'0:11.996',0.87
'0:12.000',0.94
'0:12.004',0.95
'0:12.008',0.95
'0:12.012',1.09
'0:12.016',1.29
'0:12.020',1.44
'0:12.023',1.54
'0:12.027',1.71
'0:12.031',1.91
'0:12.035',2.01
'0:12.039',2.28
'0:12.043',2.67
'0:12.047',3.14
'0:12.051',3.62
'0:12.055',3.85
'0:12.059',3.96
'0:12.063',3.9
'0:12.066',3.67
'0:12.070',3.55
'0:12.074',3.53
'0:12.078',3.53
'0:12.082',3.29
'0:12.086',2.56
'0:12.090',1.86
'0:12.094',1.7
'0:12.098',1.67
'0:12.102',1.23
'0:12.105',0.59
'0:12.109',0.11
'0:12.113',-0.18
'0:12.117',-0.39
'0:12.121',-0.3
'0:12.125',-0.04
'0:12.129',0.2
'0:12.133',0.22
'0:12.137',0.02
'0:12.141',-0.3
'0:12.145',-0.39
'0:12.148',-0.24
'0:12.152',-0.22
'0:12.156',-0.39
'0:12.160',-0.46
'0:12.164',-0.46
'0:12.168',-0.44
'0:12.172',-0.47
'0:12.176',-0.69
'0:12.180',-0.94
'0:12.184',-1.29
'0:12.188',-1.78
'0:12.191',-1.87
'0:12.195',-1.63
'0:12.199',-1.54
'0:12.203',-1.73
'0:12.207',-2.16
'0:12.211',-2.64
'0:12.215',-3.29
'0:12.219',-3.94
'0:12.223',-4.38
'0:12.227',-4.71
'0:12.230',-4.65
'0:12.234',-4.47
'0:12.238',-4.34
'0:12.242',-4.18
'0:12.246',-4.22
'0:12.250',-4.46
'0:12.254',-4.53
'0:12.258',-4.46
'0:12.262',-4.29
'0:12.266',-3.08
'0:12.270',-0.56
'0:12.273',2.7
'0:12.277',6.14
'0:12.281',8.48
'0:12.285',7.57
'0:12.289',2.83
'0:12.293',-3.7
'0:12.297',-8.81
'0:12.301',-11.66
'0:12.305',-12.38
'0:12.309',-12.12
'0:12.313',-11.64
'0:12.316',-10.49
'0:12.320',-8.43
'0:12.324',-6.19
'0:12.328',-4.39
'0:12.332',-3.08
'0:12.336',-1.81
'0:12.340',-0.38
'0:12.344',0.68
'0:12.348',1.15
'0:12.352',1.23
'0:12.355',1.4
'0:12.359',1.88
'0:12.363',2.11
'0:12.367',2.34
'0:12.371',3.04
'0:12.375',3.26
'0:12.379',2.95
'0:12.383',2.93
'0:12.387',3.85
'0:12.391',4.55
'0:12.395',4.35
'0:12.398',4.44
'0:12.402',5.45
'0:12.406',6.32
'0:12.410',6.2
'0:12.414',5.84
'0:12.418',5.7
'0:12.422',5.81
'0:12.426',5.77
'0:12.430',5.76
'0:12.434',5.41
'0:12.438',4.37
'0:12.441',3.94
'0:12.445',4.33
'0:12.449',4.77
'0:12.453',4.74
'0:12.457',4.19
'0:12.461',3.18
'0:12.465',2.05
'0:12.469',1
'0:12.473',0.16
'0:12.477',-0.21
'0:12.480',0.07
'0:12.484',0.76
'0:12.488',1.41
'0:12.492',1.81
'0:12.496',1.74
'0:12.500',1.2
'0:12.504',0.69
'0:12.508',0.28
'0:12.512',-0.18
'0:12.516',-0.7
'0:12.520',-0.94
'0:12.523',-0.74
'0:12.527',-0.18
'0:12.531',0.2
'0:12.535',0.33
'0:12.539',-0.31
'0:12.543',-0.48
'0:12.547',-0.15
'0:12.551',-0.51
'0:12.555',-1.41
'0:12.559',-1.71
'0:12.563',-1.29
'0:12.566',-1.32
'0:12.570',-1.69
'0:12.574',-1.8
'0:12.578',-1.51
'0:12.582',-1.37
'0:12.586',-1.57
'0:12.590',-1.97
'0:12.594',-2.33
'0:12.598',-2.83
'0:12.602',-2.51
'0:12.605',-1.84
'0:12.609',-1.46
'0:12.613',-1.16
'0:12.617',-0.82
'0:12.621',-0.76
'0:12.625',-0.83
'0:12.629',-0.54
'0:12.633',1.15
'0:12.637',3.9
'0:12.641',6.44
'0:12.645',7.72
'0:12.648',6.22
'0:12.652',1.54
'0:12.656',-3.75
'0:12.660',-7.59
'0:12.664',-9.9
'0:12.668',-10.71
'0:12.672',-10.13
'0:12.676',-9.19
'0:12.680',-7.94
'0:12.684',-6.27
'0:12.688',-4.37
'0:12.691',-2.71
'0:12.695',-1.4
'0:12.699',-0.26
'0:12.703',0.94
'0:12.707',1.92
'0:12.711',2.68
'0:12.715',2.93
'0:12.719',2.98
'0:12.723',3.4
'0:12.727',3.93
'0:12.730',4.33
'0:12.734',4.52
'0:12.738',4.56
'0:12.742',4.53
'0:12.746',4.39
'0:12.750',4.12
'0:12.754',4.08
'0:12.758',4.78
'0:12.762',5.37
'0:12.766',5.6
'0:12.770',5.9
'0:12.773',6.07
'0:12.777',6.28
'0:12.781',6.64
'0:12.785',6.59
'0:12.789',6.17
'0:12.793',5.74
'0:12.797',5.35
'0:12.801',4.99
'0:12.805',4.73
'0:12.809',4.59
'0:12.813',4.17
'0:12.816',3.61
'0:12.820',3.15
'0:12.824',2.73
'0:12.828',2.24
'0:12.832',1.72
'0:12.836',1.2
'0:12.840',0.68
'0:12.844',0.14
'0:12.848',-0.31
'0:12.852',-0.86
'0:12.855',-0.6
'0:12.859',0.14
'0:12.863',0.52
'0:12.867',0.48
'0:12.871',0.28
'0:12.875',0
'0:12.879',-0.02
'0:12.883',-0.06
'0:12.887',-0.47
'0:12.891',-0.7
'0:12.895',-0.78
'0:12.898',-1.06
'0:12.902',-1.46
'0:12.906',-1.78
'0:12.910',-1.93
'0:12.914',-1.92
'0:12.918',-2.07
'0:12.922',-2.31
'0:12.926',-2.6
'0:12.930',-3.06
'0:12.934',-3.56
'0:12.938',-3.74
'0:12.941',-3.83
'0:12.945',-4.08
'0:12.949',-4.19
'0:12.953',-3.93
'0:12.957',-3.69
'0:12.961',-3.35
'0:12.965',-2.91
'0:12.969',-2.72
'0:12.973',-2.72
'0:12.977',-2.84
'0:12.980',-2.92
'0:12.984',-2.85
'0:12.988',-2.66
'0:12.992',-2.06
'0:12.996',-0.48
'0:13.000',2.3
'0:13.004',5.47
'0:13.008',8.47
'0:13.012',8.65
'0:13.016',4.45
'0:13.020',-1.77
'0:13.023',-6.97
'0:13.027',-10.05
'0:13.031',-11.34
'0:13.035',-11.76
'0:13.039',-11.63
'0:13.043',-11.04
'0:13.047',-9.8
'0:13.051',-7.82
'0:13.055',-5.87
'0:13.059',-4.37
'0:13.063',-2.69
'0:13.066',-1.26
'0:13.070',-0.31
'0:13.074',0.58
'0:13.078',1.26
'0:13.082',1.64
'0:13.086',1.78
'0:13.090',1.98
'0:13.094',2.2
'0:13.098',2.47
'0:13.102',2.74
'0:13.105',2.89
'0:13.109',2.91
'0:13.113',3.02
'0:13.117',3.27
'0:13.121',3.29
'0:13.125',3.32
'0:13.129',3.45
'0:13.133',3.63
'0:13.137',3.65
'0:13.141',3.85
'0:13.145',3.92
'0:13.148',4
'0:13.152',4.04
'0:13.156',3.87
'0:13.160',3.64
'0:13.164',3.5
'0:13.168',3.38
'0:13.172',3.08
'0:13.176',2.6
'0:13.180',2.05
'0:13.184',1.41
'0:13.188',0.64
'0:13.191',0.18
'0:13.195',-0.21
'0:13.199',-0.57
'0:13.203',-0.84
'0:13.207',-1.1
'0:13.211',-1.32
'0:13.215',-1.37
'0:13.219',-1.22
'0:13.223',-1.25
'0:13.227',-1.25
'0:13.230',-1.19
'0:13.234',-1.13
'0:13.238',-1.19
'0:13.242',-1.06
'0:13.246',-0.95
'0:13.250',-1.16
'0:13.254',-1.26
'0:13.258',-1.13
'0:13.262',-1.16
'0:13.266',-1.21
'0:13.270',-1.37
'0:13.273',-1.62
'0:13.277',-1.75
'0:13.281',-1.8
'0:13.285',-1.81
'0:13.289',-1.67
'0:13.293',-1.58
'0:13.297',-1.7
'0:13.301',-2.13
'0:13.305',-2.57
'0:13.309',-2.74
'0:13.313',-2.8
'0:13.316',-2.8
'0:13.320',-2.78
'0:13.324',-2.59
'0:13.328',-1.98
'0:13.332',-1.52
'0:13.336',-1.44
'0:13.340',-1.69
'0:13.344',-2.05
'0:13.348',-2.17
'0:13.352',-1.85
'0:13.355',-1
'0:13.359',0.37
'0:13.363',2.33
'0:13.367',5.14
'0:13.371',8.43
'0:13.375',11.45
'0:13.379',12.89
'0:13.383',10.22
'0:13.387',3.6
'0:13.391',-2.84
'0:13.395',-7.06
'0:13.398',-9.37
'0:13.402',-10.6
'0:13.406',-10.86
'0:13.410',-10.29
'0:13.414',-9.14
'0:13.418',-7.44
'0:13.422',-5.56
'0:13.426',-3.8
'0:13.430',-2.26
'0:13.434',-1.01
'0:13.438',-0.04
'0:13.441',0.74
'0:13.445',1.26
'0:13.449',1.46
'0:13.453',1.44
'0:13.457',1.67
'0:13.461',2.05
'0:13.465',2.56
'0:13.469',3.07
'0:13.473',3.62
'0:13.477',3.87
'0:13.480',3.98
'0:13.484',4.22
'0:13.488',4.51
'0:13.492',4.68
'0:13.496',4.49
'0:13.500',4.31
'0:13.504',4.52
'0:13.508',4.91
'0:13.512',5.35
'0:13.516',5.79
'0:13.520',6.06
'0:13.523',6.06
'0:13.527',5.77
'0:13.531',5.32
'0:13.535',4.52
'0:13.539',3.87
'0:13.543',3.61
'0:13.547',3.46
'0:13.551',3.03
'0:13.555',2.41
'0:13.559',1.91
'0:13.563',1.36
'0:13.566',0.76
'0:13.570',0.08
'0:13.574',-0.35
'0:13.578',-0.23
'0:13.582',0.19
'0:13.586',0.54
'0:13.590',0.41
'0:13.594',0.09
'0:13.598',-0.13
'0:13.602',-0.32
'0:13.605',-0.66
'0:13.609',-0.84
'0:13.613',-0.58
'0:13.617',0.17
'0:13.621',1
'0:13.625',1.11
'0:13.629',0.82
'0:13.633',0.89
'0:13.637',1.01
'0:13.641',0.74
'0:13.645',0.09
'0:13.648',-0.6
'0:13.652',-1.25
'0:13.656',-1.6
'0:13.660',-1.76
'0:13.664',-1.9
'0:13.668',-2.21
'0:13.672',-2.59
'0:13.676',-2.64
'0:13.680',-2.51
'0:13.684',-2.53
'0:13.688',-2.66
'0:13.691',-2.93
'0:13.695',-3
'0:13.699',-2.92
'0:13.703',-2.94
'0:13.707',-2.84
'0:13.711',-2.57
'0:13.715',-2.11
'0:13.719',-1.08
'0:13.723',0.52
'0:13.727',2.98
'0:13.730',6.14
'0:13.734',9.17
'0:13.738',10.51
'0:13.742',8.04
'0:13.746',2.18
'0:13.750',-4.02
'0:13.754',-8.11
'0:13.758',-10.07
'0:13.762',-10.78
'0:13.766',-10.65
'0:13.770',-9.98
'0:13.773',-8.57
'0:13.777',-6.63
'0:13.781',-4.61
'0:13.785',-2.9
'0:13.789',-1.47
'0:13.793',-0.19
'0:13.797',0.95
'0:13.801',1.71
'0:13.805',2.19
'0:13.809',2.6
'0:13.813',2.99
'0:13.816',3.25
'0:13.820',3.23
'0:13.824',3.14
'0:13.828',3.29
'0:13.832',3.43
'0:13.836',3.51
'0:13.840',3.68
'0:13.844',3.95
'0:13.848',4.14
'0:13.852',4.3
'0:13.855',4.52
'0:13.859',4.78
'0:13.863',5
'0:13.867',5.19
'0:13.871',5.24
'0:13.875',5.26
'0:13.879',5.23
'0:13.883',5.01
'0:13.887',4.87
'0:13.891',4.77
'0:13.895',4.44
'0:13.898',4.03
'0:13.902',3.53
'0:13.906',2.89
'0:13.910',2.22
'0:13.914',1.58
'0:13.918',1.13
'0:13.922',0.8
'0:13.926',0.47
'0:13.930',0.11
'0:13.934',-0.26
'0:13.938',-0.54
'0:13.941',-0.71
'0:13.945',-0.82
'0:13.949',-0.75
'0:13.953',-0.75
'0:13.957',-0.81
'0:13.961',-0.96
'0:13.965',-1.12
'0:13.969',-1.07
'0:13.973',-0.82
'0:13.977',-0.68
'0:13.980',-0.7
'0:13.984',-0.91
'0:13.988',-1.15
'0:13.992',-1.48
'0:13.996',-1.89
'0:14.000',-2.26
'0:14.004',-2.54
'0:14.008',-2.63
'0:14.012',-2.6
'0:14.016',-2.78
'0:14.020',-3.16
'0:14.023',-3.51
'0:14.027',-3.85
'0:14.031',-4
'0:14.035',-4.25
'0:14.039',-4.38
'0:14.043',-4.5
'0:14.047',-4.55
'0:14.051',-4.42
'0:14.055',-4.2
'0:14.059',-3.94
'0:14.063',-3.9
'0:14.066',-3.94
'0:14.070',-3.97
'0:14.074',-3.86
'0:14.078',-3.52
'0:14.082',-2.85
'0:14.086',-1.55
'0:14.090',0.93
'0:14.094',4.3
'0:14.098',7.6
'0:14.102',8.72
'0:14.105',5.86
'0:14.109',-0.1
'0:14.113',-6.14
'0:14.117',-10.19
'0:14.121',-12.05
'0:14.125',-12.66
'0:14.129',-12.38
'0:14.133',-11.34
'0:14.137',-9.83
'0:14.141',-7.86
'0:14.145',-5.86
'0:14.148',-4.19
'0:14.152',-2.8
'0:14.156',-1.67
'0:14.160',-0.68
'0:14.164',0.22
'0:14.168',1.01
'0:14.172',1.58
'0:14.176',1.74
'0:14.180',1.8
'0:14.184',1.91
'0:14.188',2.11
'0:14.191',2.34
'0:14.195',2.55
'0:14.199',2.63
'0:14.203',2.66
'0:14.207',2.57
'0:14.211',2.59
'0:14.215',2.9
'0:14.219',3.25
'0:14.223',3.65
'0:14.227',3.95
'0:14.230',4.3
'0:14.234',4.64
'0:14.238',4.79
'0:14.242',5.03
'0:14.246',5.32
'0:14.250',5.45
'0:14.254',5.1
'0:14.258',4.62
'0:14.262',4.05
'0:14.266',3.55
'0:14.270',3.1
'0:14.273',2.74
'0:14.277',2.37
'0:14.281',2.02
'0:14.285',1.75
'0:14.289',1.37
'0:14.293',1.03
'0:14.297',0.69
'0:14.301',0.21
'0:14.305',-0.15
'0:14.309',-0.31
'0:14.313',-0.33
'0:14.316',-0.23
'0:14.320',-0.01
'0:14.324',0.01
'0:14.328',-0.08
'0:14.332',-0.3
'0:14.336',-0.41
'0:14.340',-0.47
'0:14.344',-0.57
'0:14.348',-0.61
'0:14.352',-0.61
'0:14.355',-0.61
'0:14.359',-0.81
'0:14.363',-1.06
'0:14.367',-1.16
'0:14.371',-1.36
'0:14.375',-1.64
'0:14.379',-1.75
'0:14.383',-2
'0:14.387',-2.38
'0:14.391',-2.88
'0:14.395',-3.63
'0:14.398',-4.17
'0:14.402',-4.4
'0:14.406',-4.43
'0:14.410',-4.43
'0:14.414',-4.33
'0:14.418',-4.01
'0:14.422',-3.56
'0:14.426',-3.31
'0:14.430',-3.16
'0:14.434',-3.07
'0:14.438',-3.25
'0:14.441',-3.46
'0:14.445',-3.55
'0:14.449',-3.52
'0:14.453',-3.03
'0:14.457',-1.74
'0:14.461',0.52
'0:14.465',3.45
'0:14.469',6.38
'0:14.473',8.6
'0:14.477',8.43
'0:14.480',4.04
'0:14.484',-2.09
'0:14.488',-6.92
'0:14.492',-9.92
'0:14.496',-11.2
'0:14.500',-11.59
'0:14.504',-11.45
'0:14.508',-10.72
'0:14.512',-9.36
'0:14.516',-7.51
'0:14.520',-5.81
'0:14.523',-4.4
'0:14.527',-2.89
'0:14.531',-1.49
'0:14.535',-0.45
'0:14.539',0.31
'0:14.543',0.8
'0:14.547',1.13
'0:14.551',1.3
'0:14.555',1.59
'0:14.559',2.02
'0:14.563',2.14
'0:14.566',2.22
'0:14.570',2.42
'0:14.574',2.63
'0:14.578',2.62
'0:14.582',2.67
'0:14.586',2.96
'0:14.590',3.41
'0:14.594',3.99
'0:14.598',4.8
'0:14.602',5.17
'0:14.605',5.11
'0:14.609',4.91
'0:14.613',4.62
'0:14.617',4.33
'0:14.621',4.19
'0:14.625',4.35
'0:14.629',4.35
'0:14.633',4.11
'0:14.637',3.66
'0:14.641',3.2
'0:14.645',2.58
'0:14.648',2.06
'0:14.652',1.64
'0:14.656',1.4
'0:14.660',1.08
'0:14.664',0.64
'0:14.668',0.22
'0:14.672',-0.13
'0:14.676',-0.29
'0:14.680',-0.38
'0:14.684',-0.46
'0:14.688',-0.37
'0:14.691',-0.25
'0:14.695',-0.08
'0:14.699',-0.02
'0:14.703',-0.06
'0:14.707',-0.2
'0:14.711',-0.24
'0:14.715',-0.13
'0:14.719',0.12
'0:14.723',0.18
'0:14.727',0.02
'0:14.730',-0.23
'0:14.734',-0.37
'0:14.738',-0.54
'0:14.742',-0.74
'0:14.746',-0.78
'0:14.750',-0.73
'0:14.754',-0.98
'0:14.758',-1.6
'0:14.762',-2.25
'0:14.766',-2.62
'0:14.770',-2.64
'0:14.773',-2.51
'0:14.777',-2.48
'0:14.781',-2.42
'0:14.785',-2.36
'0:14.789',-2.32
'0:14.793',-2.25
'0:14.797',-2.13
'0:14.801',-2.07
'0:14.805',-1.96
'0:14.809',-1.88
'0:14.813',-1.86
'0:14.816',-1.57
'0:14.820',-0.75
'0:14.824',0.65
'0:14.828',3
'0:14.832',6.2
'0:14.836',9.46
'0:14.840',11.98
'0:14.844',11.69
'0:14.848',7.01
'0:14.852',0.46
'0:14.855',-4.77
'0:14.859',-8.11
'0:14.863',-9.84
'0:14.867',-10.48
'0:14.871',-10.42
'0:14.875',-9.71
'0:14.879',-8.36
'0:14.883',-6.57
'0:14.887',-4.77
'0:14.891',-3.26
'0:14.895',-2.05
'0:14.898',-1.03
'0:14.902',-0.31
'0:14.906',0.39
'0:14.910',1.1
'0:14.914',1.7
'0:14.918',2.12
'0:14.922',2.42
'0:14.926',2.64
'0:14.930',2.89
'0:14.934',3.05
'0:14.938',3.11
'0:14.941',3.18
'0:14.945',3.3
'0:14.949',3.53
'0:14.953',3.81
'0:14.957',4.14
'0:14.961',4.44
'0:14.965',4.78
'0:14.969',5.12
'0:14.973',5.37
'0:14.977',5.54
'0:14.980',5.51
'0:14.984',5.31
'0:14.988',5.06
'0:14.992',4.8
'0:14.996',4.51
'0:15.000',4.19
'0:15.004',3.83
'0:15.008',3.26
'0:15.012',2.67
'0:15.016',2.22
'0:15.020',1.96
'0:15.023',1.82
'0:15.027',1.67
'0:15.031',1.43
'0:15.035',1.14
'0:15.039',0.78
'0:15.043',0.48
'0:15.047',0.4
'0:15.051',0.41
'0:15.055',0.28
'0:15.059',0.09
'0:15.063',0.06
'0:15.066',0.2
'0:15.070',0.16
'0:15.074',-0.02
'0:15.078',0.02
'0:15.082',0.2
'0:15.086',0.11
'0:15.090',-0.21
'0:15.094',-0.68
'0:15.098',-0.98
'0:15.102',-1.12
'0:15.105',-1.26
'0:15.109',-1.24
'0:15.113',-1.46
'0:15.117',-1.94
'0:15.121',-2.38
'0:15.125',-2.57
'0:15.129',-2.58
'0:15.133',-2.76
'0:15.137',-2.83
'0:15.141',-2.73
'0:15.145',-2.98
'0:15.148',-3.05
'0:15.152',-2.66
'0:15.156',-2.34
'0:15.160',-2.1
'0:15.164',-2.14
'0:15.168',-2.32
'0:15.172',-2.55
'0:15.176',-2.5
'0:15.180',-1.82
'0:15.184',-0.64
'0:15.188',1.28
'0:15.191',4.2
'0:15.195',7.55
'0:15.199',9.9
'0:15.203',8.92
'0:15.207',3.88
'0:15.211',-2.93
'0:15.215',-8.15
'0:15.219',-10.99
'0:15.223',-12.12
'0:15.227',-12.04
'0:15.230',-11.14
'0:15.234',-9.43
'0:15.238',-7.3
'0:15.242',-5.36
'0:15.246',-3.45
'0:15.250',-1.81
'0:15.254',-0.54
'0:15.258',0.52
'0:15.262',1.26
'0:15.266',1.64
'0:15.270',1.92
'0:15.273',1.67
'0:15.277',2.02
'0:15.281',2.32
'0:15.285',2.61
'0:15.289',2.94
'0:15.293',3.39
'0:15.297',3.69
'0:15.301',3.91
'0:15.305',4.06
'0:15.309',4.1
'0:15.313',4.09
'0:15.316',4.27
'0:15.320',4.63
'0:15.324',4.94
'0:15.328',5.03
'0:15.332',5.16
'0:15.336',5.1
'0:15.340',5.02
'0:15.344',4.89
'0:15.348',4.75
'0:15.352',4.67
'0:15.355',4.33
'0:15.359',4.07
'0:15.363',3.63
'0:15.367',2.8
'0:15.371',2.15
'0:15.375',1.93
'0:15.379',2.02
'0:15.383',1.92
'0:15.387',1.47
'0:15.391',0.85
'0:15.395',0
'0:15.398',-0.54
'0:15.402',-0.63
'0:15.406',-0.49
'0:15.410',-0.41
'0:15.414',-0.4
'0:15.418',-0.27
'0:15.422',-0.21
'0:15.426',-0.28
'0:15.430',-0.4
'0:15.434',-0.62
'0:15.438',-0.77
'0:15.441',-0.99
'0:15.445',-1.05
'0:15.449',-0.92
'0:15.453',-0.55
'0:15.457',-0.36
'0:15.461',-0.47
'0:15.465',-0.61
'0:15.469',-0.61
'0:15.473',-0.76
'0:15.477',-1.23
'0:15.480',-1.61
'0:15.484',-1.77
'0:15.488',-1.91
'0:15.492',-2.23
'0:15.496',-2.57
'0:15.500',-2.86
'0:15.504',-2.92
'0:15.508',-2.95
'0:15.512',-3.02
'0:15.516',-2.94
'0:15.520',-2.64
'0:15.523',-2.42
'0:15.527',-2.36
'0:15.531',-2.4
'0:15.535',-2.5
'0:15.539',-2.6
'0:15.543',-2.63
'0:15.547',-2.5
'0:15.551',-1.97
'0:15.555',-0.67
'0:15.559',1.96
'0:15.563',5.52
'0:15.566',8.5
'0:15.570',8.95
'0:15.574',5.48
'0:15.578',-0.45
'0:15.582',-5.89
'0:15.586',-9.38
'0:15.590',-10.86
'0:15.594',-11.23
'0:15.598',-10.88
'0:15.602',-9.93
'0:15.605',-8.43
'0:15.609',-6.54
'0:15.613',-4.63
'0:15.617',-2.82
'0:15.621',-1.23
'0:15.625',-0.05
'0:15.629',0.86
'0:15.633',1.53
'0:15.637',1.98
'0:15.641',2.28
'0:15.645',2.48
'0:15.648',2.53
'0:15.652',2.59
'0:15.656',2.75
'0:15.660',2.87
'0:15.664',2.89
'0:15.668',2.97
'0:15.672',3.13
'0:15.676',3.49
'0:15.680',3.9
'0:15.684',4.27
'0:15.688',4.47
'0:15.691',4.58
'0:15.695',4.61
'0:15.699',4.65
'0:15.703',4.79
'0:15.707',4.94
'0:15.711',4.84
'0:15.715',4.64
'0:15.719',4.4
'0:15.723',4.08
'0:15.727',3.74
'0:15.730',3.48
'0:15.734',3.1
'0:15.738',2.49
'0:15.742',1.89
'0:15.746',1.48
'0:15.750',1.16
'0:15.754',0.92
'0:15.758',0.51
'0:15.762',0.1
'0:15.766',-0.36
'0:15.770',-0.78
'0:15.773',-1.06
'0:15.777',-1.19
'0:15.781',-1.17
'0:15.785',-1.05
'0:15.789',-0.85
'0:15.793',-0.81
'0:15.797',-0.9
'0:15.801',-0.87
'0:15.805',-0.95
'0:15.809',-1.04
'0:15.813',-1.21
'0:15.816',-1.29
'0:15.820',-1.27
'0:15.824',-1.36
'0:15.828',-1.59
'0:15.832',-1.79
'0:15.836',-1.96
'0:15.840',-1.97
'0:15.844',-2.11
'0:15.848',-2.23
'0:15.852',-2.35
'0:15.855',-2.68
'0:15.859',-3.03
'0:15.863',-3.28
'0:15.867',-3.47
'0:15.871',-3.6
'0:15.875',-3.67
'0:15.879',-3.68
'0:15.883',-3.69
'0:15.887',-3.54
'0:15.891',-3.46
'0:15.895',-3.21
'0:15.898',-3.05
'0:15.902',-3.16
'0:15.906',-3.4
'0:15.910',-3.57
'0:15.914',-3.59
'0:15.918',-3.28
'0:15.922',-2.67
'0:15.926',-1.22
'0:15.930',1.49
'0:15.934',4.74
'0:15.938',7.68
'0:15.941',9.05
'0:15.945',6.52
'0:15.949',0.8
'0:15.953',-4.49
'0:15.957',-8.11
'0:15.961',-10.03
'0:15.965',-11.02
'0:15.969',-11.46
'0:15.973',-11.37
'0:15.977',-10.47
'0:15.980',-8.74
'0:15.984',-6.53
'0:15.988',-4.36
'0:15.992',-2.83
'0:15.996',-1.79
'0:16.000',-0.69
'0:16.004',0.25
'0:16.008',0.9
'0:16.012',1.24
'0:16.016',1.45
'0:16.020',1.77
'0:16.023',2.13
'0:16.027',2.59
'0:16.031',2.94
'0:16.035',3.05
'0:16.039',3.08
'0:16.043',3.05
'0:16.047',2.95
'0:16.051',2.94
'0:16.055',3.18
'0:16.059',3.72
'0:16.063',4.33
'0:16.066',4.65
'0:16.070',4.79
'0:16.074',4.99
'0:16.078',5.29
'0:16.082',5.44
'0:16.086',5.2
'0:16.090',5.03
'0:16.094',4.84
'0:16.098',4.5
'0:16.102',4.09
'0:16.105',3.68
'0:16.109',3.19
'0:16.113',2.77
'0:16.117',2.43
'0:16.121',1.99
'0:16.125',1.58
'0:16.129',1.3
'0:16.133',1.09
'0:16.137',0.84
'0:16.141',0.74
'0:16.145',0.58
'0:16.148',0.54
'0:16.152',0.44
'0:16.156',0.37
'0:16.160',0.44
'0:16.164',0.53
'0:16.168',0.54
'0:16.172',0.63
'0:16.176',0.69
'0:16.180',0.68
'0:16.184',0.64
'0:16.188',0.52
'0:16.191',0.28
'0:16.195',0.04
'0:16.199',-0.21
'0:16.203',-0.47
'0:16.207',-0.65
'0:16.211',-0.57
'0:16.215',-0.37
'0:16.219',-0.31
'0:16.223',-0.45
'0:16.227',-0.85
'0:16.230',-1.48
'0:16.234',-1.8
'0:16.238',-1.8
'0:16.242',-1.8
'0:16.246',-1.98
'0:16.250',-2.14
'0:16.254',-2.13
'0:16.258',-1.93
'0:16.262',-1.71
'0:16.266',-1.61
'0:16.270',-1.58
'0:16.273',-1.65
'0:16.277',-1.89
'0:16.281',-1.94
'0:16.285',-1.6
'0:16.289',-0.81
'0:16.293',0.59
'0:16.297',2.97
'0:16.301',6.24
'0:16.305',9.5
'0:16.309',11.42
'0:16.313',9.65
'0:16.316',3.9
'0:16.320',-2.55
'0:16.324',-7.15
'0:16.328',-9.75
'0:16.332',-10.89
'0:16.336',-11.15
'0:16.340',-10.71
'0:16.344',-9.71
'0:16.348',-8.09
'0:16.352',-6.12
'0:16.355',-4.28
'0:16.359',-2.66
'0:16.363',-1.25
'0:16.367',-0.21
'0:16.371',0.62
'0:16.375',1.15
'0:16.379',1.47
'0:16.383',1.79
'0:16.387',2.01
'0:16.391',2.3
'0:16.395',2.71
'0:16.398',3.15
'0:16.402',3.43
'0:16.406',3.44
'0:16.410',3.57
'0:16.414',3.86
'0:16.418',4.2
'0:16.422',4.52
'0:16.426',4.74
'0:16.430',4.85
'0:16.434',4.97
'0:16.438',4.99
'0:16.441',4.96
'0:16.445',4.84
'0:16.449',4.74
'0:16.453',4.75
'0:16.457',4.82
'0:16.461',4.72
'0:16.465',4.29
'0:16.469',3.91
'0:16.473',3.63
'0:16.477',3.31
'0:16.480',2.91
'0:16.484',2.35
'0:16.488',1.74
'0:16.492',1.22
'0:16.496',0.85
'0:16.500',0.5
'0:16.504',0.17
'0:16.508',-0.06
'0:16.512',-0.14
'0:16.516',-0.05
'0:16.520',0.09
'0:16.523',0.19
'0:16.527',0.24
'0:16.531',0.27
'0:16.535',0.21
'0:16.539',-0.01
'0:16.543',-0.17
'0:16.547',-0.22
'0:16.551',-0.28
'0:16.555',-0.45
'0:16.559',-0.65
'0:16.563',-0.86
'0:16.566',-1.12
'0:16.570',-1.29
'0:16.574',-1.27
'0:16.578',-1.11
'0:16.582',-1.02
'0:16.586',-1.16
'0:16.590',-1.46
'0:16.594',-1.9
'0:16.598',-2.31
'0:16.602',-2.78
'0:16.605',-3.02
'0:16.609',-3
'0:16.613',-3.04
'0:16.617',-3.09
'0:16.621',-2.98
'0:16.625',-2.81
'0:16.629',-2.89
'0:16.633',-3.22
'0:16.637',-3.31
'0:16.641',-2.97
'0:16.645',-2.48
'0:16.648',-1.94
'0:16.652',-0.97
'0:16.656',0.81
'0:16.660',3.62
'0:16.664',6.88
'0:16.668',9.22
'0:16.672',8.32
'0:16.676',3.53
'0:16.680',-3.2
'0:16.684',-8.37
'0:16.688',-11.11
'0:16.691',-12.17
'0:16.695',-12.26
'0:16.699',-11.68
'0:16.703',-10.48
'0:16.707',-8.45
'0:16.711',-6.25
'0:16.715',-4.47
'0:16.719',-2.93
'0:16.723',-1.6
'0:16.727',-0.7
'0:16.730',-0.02
'0:16.734',0.62
'0:16.738',1.29
'0:16.742',1.77
'0:16.746',2.08
'0:16.750',2.49
'0:16.754',2.84
'0:16.758',3.01
'0:16.762',3.23
'0:16.766',3.35
'0:16.770',3.41
'0:16.773',3.52
'0:16.777',3.69
'0:16.781',3.94
'0:16.785',4.22
'0:16.789',4.5
'0:16.793',4.74
'0:16.797',4.84
'0:16.801',4.81
'0:16.805',4.73
'0:16.809',4.58
'0:16.813',4.49
'0:16.816',4.42
'0:16.820',4.27
'0:16.824',4.13
'0:16.828',3.85
'0:16.832',3.39
'0:16.836',2.9
'0:16.840',2.27
'0:16.844',1.63
'0:16.848',1.14
'0:16.852',0.7
'0:16.855',0.31
'0:16.859',-0.1
'0:16.863',-0.51
'0:16.867',-0.86
'0:16.871',-1.02
'0:16.875',-1.09
'0:16.879',-1.08
'0:16.883',-0.93
'0:16.887',-0.65
'0:16.891',-0.43
'0:16.895',-0.46
'0:16.898',-0.48
'0:16.902',-0.52
'0:16.906',-0.55
'0:16.910',-0.67
'0:16.914',-0.78
'0:16.918',-0.73
'0:16.922',-0.66
'0:16.926',-0.77
'0:16.930',-1.03
'0:16.934',-1.41
'0:16.938',-1.67
'0:16.941',-1.74
'0:16.945',-1.86
'0:16.949',-2.17
'0:16.953',-2.52
'0:16.957',-2.92
'0:16.961',-3.43
'0:16.965',-3.81
'0:16.969',-3.81
'0:16.973',-3.63
'0:16.977',-3.55
'0:16.980',-3.44
'0:16.984',-3.36
'0:16.988',-3.23
'0:16.992',-3.01
'0:16.996',-2.78
'0:17.000',-2.75
'0:17.004',-2.64
'0:17.008',-2.36
'0:17.012',-1.82
'0:17.016',-1.07
'0:17.020',-0.01
'0:17.023',1.76
'0:17.027',4.61
'0:17.031',7.74
'0:17.035',9.96
'0:17.039',8.98
'0:17.043',4.02
'0:17.047',-2.77
'0:17.051',-7.89
'0:17.055',-10.53
'0:17.059',-11.52
'0:17.063',-11.53
'0:17.066',-10.97
'0:17.070',-9.91
'0:17.074',-8.33
'0:17.078',-6.27
'0:17.082',-4.29
'0:17.086',-2.56
'0:17.090',-1.11
'0:17.094',0
'0:17.098',0.94
'0:17.102',1.56
'0:17.105',1.89
'0:17.109',2.08
'0:17.113',2.23
'0:17.117',2.45
'0:17.121',2.6
'0:17.125',2.72
'0:17.129',2.95
'0:17.133',3.29
'0:17.137',3.74
'0:17.141',4.1
'0:17.145',4.35
'0:17.148',4.52
'0:17.152',4.7
'0:17.156',4.93
'0:17.160',5.36
'0:17.164',5.6
'0:17.168',5.63
'0:17.172',5.56
'0:17.176',5.47
'0:17.180',5.23
'0:17.184',4.94
'0:17.188',4.81
'0:17.191',4.64
'0:17.195',4.49
'0:17.199',4.14
'0:17.203',3.64
'0:17.207',2.98
'0:17.211',2.15
'0:17.215',1.54
'0:17.219',1.08
'0:17.223',0.56
'0:17.227',0.12
'0:17.230',-0.08
'0:17.234',-0.3
'0:17.238',-0.66
'0:17.242',-1.01
'0:17.246',-1.23
'0:17.250',-1.24
'0:17.254',-1.13
'0:17.258',-1.04
'0:17.262',-1
'0:17.266',-0.93
'0:17.270',-0.92
'0:17.273',-0.95
'0:17.277',-0.93
'0:17.281',-0.8
'0:17.285',-0.8
'0:17.289',-0.72
'0:17.293',-0.58
'0:17.297',-0.72
'0:17.301',-0.94
'0:17.305',-1.46
'0:17.309',-1.74
'0:17.313',-1.86
'0:17.316',-2.03
'0:17.320',-2.03
'0:17.324',-2.07
'0:17.328',-2.42
'0:17.332',-2.79
'0:17.336',-3.27
'0:17.340',-3.91
'0:17.344',-4.11
'0:17.348',-4.04
'0:17.352',-3.82
'0:17.355',-3.4
'0:17.359',-2.98
'0:17.363',-2.85
'0:17.367',-2.87
'0:17.371',-2.64
'0:17.375',-2.55
'0:17.379',-2.8
'0:17.383',-3.2
'0:17.387',-3.2
'0:17.391',-2.74
'0:17.395',-1.74
'0:17.398',0.06
'0:17.402',2.9
'0:17.406',6.44
'0:17.410',9.41
'0:17.414',10.9
'0:17.418',8.66
'0:17.422',2.83
'0:17.426',-3.07
'0:17.430',-7.35
'0:17.434',-9.62
'0:17.438',-10.67
'0:17.441',-11.12
'0:17.445',-10.93
'0:17.449',-10.04
'0:17.453',-8.69
'0:17.457',-7.16
'0:17.461',-5.54
'0:17.465',-3.84
'0:17.469',-2.26
'0:17.473',-1.18
'0:17.477',-0.39
'0:17.480',0.23
'0:17.484',0.91
'0:17.488',1.21
'0:17.492',1.24
'0:17.496',1.41
'0:17.500',1.59
'0:17.504',1.88
'0:17.508',2.14
'0:17.512',2.31
'0:17.516',2.63
'0:17.520',3.01
'0:17.523',3.32
'0:17.527',3.67
'0:17.531',3.83
'0:17.535',3.94
'0:17.539',4.27
'0:17.543',5.21
'0:17.547',5.99
'0:17.551',6.53
'0:17.555',6.76
'0:17.559',6.81
'0:17.563',6.76
'0:17.566',6.48
'0:17.570',5.95
'0:17.574',5.34
'0:17.578',4.78
'0:17.582',4.24
'0:17.586',3.96
'0:17.590',3.9
'0:17.594',3.9
'0:17.598',3.9
'0:17.602',3.81
'0:17.605',1.4
'0:17.609',1.13
'0:17.613',1.05
'0:17.617',1.03
'0:17.621',1.05
'0:17.625',1.11
'0:17.629',1.15
'0:17.633',1.12
'0:17.637',1.08
'0:17.641',1
'0:17.645',0.98
'0:17.648',1.03
'0:17.652',0.98
'0:17.656',1
'0:17.660',0.87
'0:17.664',0.42
'0:17.668',0
'0:17.672',-0.28
'0:17.676',-0.5
'0:17.680',-0.63
'0:17.684',-0.71
'0:17.688',-0.79
'0:17.691',-1.06
'0:17.695',-1.44
'0:17.699',-2.03
'0:17.703',-2.6
'0:17.707',-2.89
'0:17.711',-3
'0:17.715',-2.9
'0:17.719',-2.72
'0:17.723',-2.62
'0:17.727',-2.72
'0:17.730',-2.84
'0:17.734',-2.78
'0:17.738',-2.75
'0:17.742',-2.83
'0:17.746',-2.96
'0:17.750',-2.84
'0:17.754',-2.33
'0:17.758',-1.28
'0:17.762',0.41
'0:17.766',3.16
'0:17.770',6.62
'0:17.773',9.9
'0:17.777',11.72
'0:17.781',9.78
'0:17.785',3.73
'0:17.789',-2.84
'0:17.793',-7.49
'0:17.797',-10.25
'0:17.801',-11.64
'0:17.805',-12.1
'0:17.809',-11.61
'0:17.813',-10.59
'0:17.816',-9.05
'0:17.820',-7.16
'0:17.824',-5.42
'0:17.828',-3.87
'0:17.832',-2.56
'0:17.836',-1.53
'0:17.840',-0.67
'0:17.844',0.02
'0:17.848',0.47
'0:17.852',0.86
'0:17.855',1.16
'0:17.859',1.33
'0:17.863',1.46
'0:17.867',1.61
'0:17.871',1.83
'0:17.875',2.04
'0:17.879',2.23
'0:17.883',2.47
'0:17.887',2.65
'0:17.891',2.91
'0:17.895',3.29
'0:17.898',3.62
'0:17.902',3.87
'0:17.906',4.06
'0:17.910',4.23
'0:17.914',4.26
'0:17.918',4.22
'0:17.922',4.08
'0:17.926',3.92
'0:17.930',3.74
'0:17.934',3.48
'0:17.938',3.05
'0:17.941',2.54
'0:17.945',1.98
'0:17.949',1.47
'0:17.953',0.95
'0:17.957',0.38
'0:17.961',-0.01
'0:17.965',-0.25
'0:17.969',-0.26
'0:17.973',-0.08
'0:17.977',0.03
'0:17.980',0.25
'0:17.984',0.42
'0:17.988',0.33
'0:17.992',0.23
'0:17.996',0.01
'0:18.000',-0.08
'0:18.004',-0.41
'0:18.008',-0.81
'0:18.012',-0.58
'0:18.016',-0.46
'0:18.020',-0.49
'0:18.023',-0.43
'0:18.027',-0.5
'0:18.031',-0.52
'0:18.035',-0.35
'0:18.039',-0.27
'0:18.043',-0.36
'0:18.047',-0.61
'0:18.051',-1.05
'0:18.055',-1.53
'0:18.059',-2.23
'0:18.063',-2.69
'0:18.066',-2.66
'0:18.070',-2.43
'0:18.074',-2.25
'0:18.078',-2.14
'0:18.082',-2.01
'0:18.086',-1.9
'0:18.090',-1.94
'0:18.094',-1.9
'0:18.098',-1.94
'0:18.102',-2.2
'0:18.105',-2.47
'0:18.109',-2.51
'0:18.113',-2.13
'0:18.117',-0.96
'0:18.121',0.78
'0:18.125',3.32
'0:18.129',6.54
'0:18.133',9.58
'0:18.137',10.24
'0:18.141',6.93
'0:18.145',0.95
'0:18.148',-4.98
'0:18.152',-8.85
'0:18.156',-10.78
'0:18.160',-11.39
'0:18.164',-11.18
'0:18.168',-10.11
'0:18.172',-8.26
'0:18.176',-6.3
'0:18.180',-4.45
'0:18.184',-2.69
'0:18.188',-1.02
'0:18.191',0.21
'0:18.195',0.95
'0:18.199',1.58
'0:18.203',1.98
'0:18.207',2.16
'0:18.211',2.31
'0:18.215',2.48
'0:18.219',2.81
'0:18.223',3.22
'0:18.227',3.55
'0:18.230',3.57
'0:18.234',3.45
'0:18.238',3.38
'0:18.242',3.48
'0:18.246',3.83
'0:18.250',4.28
'0:18.254',4.68
'0:18.258',5.04
'0:18.262',5.23
'0:18.266',5.25
'0:18.270',5.08
'0:18.273',4.91
'0:18.277',4.76
'0:18.281',4.75
'0:18.285',4.77
'0:18.289',4.76
'0:18.293',4.61
'0:18.297',4.24
'0:18.301',3.64
'0:18.305',3
'0:18.309',2.23
'0:18.313',1.5
'0:18.316',0.86
'0:18.320',0.46
'0:18.324',0.16
'0:18.328',0.08
'0:18.332',-0.2
'0:18.336',-0.56
'0:18.340',-0.81
'0:18.344',-0.96
'0:18.348',-0.9
'0:18.352',-0.76
'0:18.355',-0.63
'0:18.359',-0.44
'0:18.363',-0.34
'0:18.367',-0.43
'0:18.371',-0.57
'0:18.375',-0.75
'0:18.379',-0.89
'0:18.383',-1.04
'0:18.387',-1.05
'0:18.391',-0.98
'0:18.395',-1.01
'0:18.398',-1.31
'0:18.402',-1.74
'0:18.406',-1.75
'0:18.410',-1.75
'0:18.414',-2.07
'0:18.418',-2.09
'0:18.422',-2.29
'0:18.426',-2.61
'0:18.430',-2.95
'0:18.434',-3.27
'0:18.438',-3.52
'0:18.441',-3.72
'0:18.445',-3.55
'0:18.449',-3.25
'0:18.453',-3.14
'0:18.457',-3.07
'0:18.461',-3.08
'0:18.465',-3.09
'0:18.469',-3.14
'0:18.473',-3.2
'0:18.477',-3.31
'0:18.480',-3.16
'0:18.484',-2.71
'0:18.488',-2.22
'0:18.492',-1.23
'0:18.496',1.05
'0:18.500',4.61
'0:18.504',8.43
'0:18.508',10.74
'0:18.512',9.44
'0:18.516',4.17
'0:18.520',-2.79
'0:18.523',-8.21
'0:18.527',-11.25
'0:18.531',-12.53
'0:18.535',-12.78
'0:18.539',-12.3
'0:18.543',-10.9
'0:18.547',-8.85
'0:18.551',-6.69
'0:18.555',-4.84
'0:18.559',-3.14
'0:18.563',-1.72
'0:18.566',-0.51
'0:18.570',0.47
'0:18.574',1.07
'0:18.578',1.46
'0:18.582',1.7
'0:18.586',1.84
'0:18.590',1.98
'0:18.594',2.11
'0:18.598',2.23
'0:18.602',2.38
'0:18.605',2.57
'0:18.609',2.82
'0:18.613',3.06
'0:18.617',3.3
'0:18.621',3.52
'0:18.625',3.65
'0:18.629',3.82
'0:18.633',4.01
'0:18.637',4.16
'0:18.641',4.3
'0:18.645',4.51
'0:18.648',4.4
'0:18.652',4.22
'0:18.656',4.13
'0:18.660',4.06
'0:18.664',3.8
'0:18.668',3.41
'0:18.672',2.97
'0:18.676',2.53
'0:18.680',2.04
'0:18.684',1.54
'0:18.688',1.02
'0:18.691',0.56
'0:18.695',0.17
'0:18.699',-0.54
'0:18.703',-1.61
'0:18.707',-2.59
'0:18.711',-3.25
'0:18.715',-3.61
'0:18.719',-3.56
'0:18.723',-3.41
'0:18.727',-3.34
'0:18.730',-3.25
'0:18.734',-3.05
'0:18.738',-2.86
'0:18.742',-2.75
'0:18.746',-2.78
'0:18.750',-2.92
'0:18.754',-2.85
'0:18.758',-2.75
'0:18.762',-2.57
'0:18.766',-2.57
'0:18.770',-2.77
'0:18.773',-2.9
'0:18.777',-2.88
'0:18.781',-2.92
'0:18.785',-2.94
'0:18.789',-2.85
'0:18.793',-2.99
'0:18.797',-3.16
'0:18.801',-3.52
'0:18.805',-3.97
'0:18.809',-4.18
'0:18.813',-4.17
'0:18.816',-4.01
'0:18.820',-3.83
'0:18.824',-3.73
'0:18.828',-3.61
'0:18.832',-3.33
'0:18.836',-2.85
'0:18.840',-2.57
'0:18.844',-2.48
'0:18.848',-2.62
'0:18.852',-2.95
'0:18.855',-3.15
'0:18.859',-2.84
'0:18.863',-2.19
'0:18.867',-0.75
'0:18.871',1.74
'0:18.875',4.94
'0:18.879',7.98
'0:18.883',10.05
'0:18.887',8.97
'0:18.891',3.72
'0:18.895',-2.39
'0:18.898',-6.93
'0:18.902',-9.66
'0:18.906',-10.9
'0:18.910',-11.44
'0:18.914',-11.29
'0:18.918',-10.52
'0:18.922',-9.18
'0:18.926',-7.28
'0:18.930',-5.16
'0:18.934',-3.18
'0:18.938',-1.76
'0:18.941',-0.68
'0:18.945',0.19
'0:18.949',0.76
'0:18.953',1.2
'0:18.957',1.53
'0:18.961',1.82
'0:18.965',1.99
'0:18.969',2.25
'0:18.973',2.62
'0:18.977',2.8
'0:18.980',2.92
'0:18.984',3.09
'0:18.988',3.35
'0:18.992',3.68
'0:18.996',3.96
'0:19.000',4.23
'0:19.004',4.43
'0:19.008',4.64
'0:19.012',4.79
'0:19.016',4.91
'0:19.020',5.17
'0:19.023',5.59
'0:19.027',5.41
'0:19.031',5.24
'0:19.035',5.31
'0:19.039',5.31
'0:19.043',5.13
'0:19.047',4.82
'0:19.051',4.41
'0:19.055',3.73
'0:19.059',3.13
'0:19.063',2.59
'0:19.066',2
'0:19.070',1.51
'0:19.074',1.18
'0:19.078',1.1
'0:19.082',0.92
'0:19.086',0.63
'0:19.090',0.53
'0:19.094',0.77
'0:19.098',0.86
'0:19.102',0.67
'0:19.105',0.54
'0:19.109',0.63
'0:19.113',0.84
'0:19.117',0.97
'0:19.121',1.23
'0:19.125',1.5
'0:19.129',1.48
'0:19.133',1.19
'0:19.137',0.89
'0:19.141',0.8
'0:19.145',0.43
'0:19.148',0.12
'0:19.152',0.05
'0:19.156',0.15
'0:19.160',0.1
'0:19.164',0.01
'0:19.168',-0.13
'0:19.172',-0.47
'0:19.176',-1.01
'0:19.180',-1.6
'0:19.184',-1.92
'0:19.188',-1.88
'0:19.191',-1.67
'0:19.195',-1.47
'0:19.199',-1.26
'0:19.203',-1.17
'0:19.207',-1.05
'0:19.211',-0.99
'0:19.215',-1.15
'0:19.219',-1.5
'0:19.223',-1.73
'0:19.227',-1.74
'0:19.230',-1.41
'0:19.234',-0.63
'0:19.238',0.69
'0:19.242',3.07
'0:19.246',6.46
'0:19.250',9.84
'0:19.254',11.98
'0:19.258',10.75
'0:19.262',5.48
'0:19.266',-0.96
'0:19.270',-5.87
'0:19.273',-8.76
'0:19.277',-10.27
'0:19.281',-10.92
'0:19.285',-10.67
'0:19.289',-9.7
'0:19.293',-8.12
'0:19.297',-6.16
'0:19.301',-4.21
'0:19.305',-2.38
'0:19.309',-0.89
'0:19.313',0.11
'0:19.316',0.75
'0:19.320',1.29
'0:19.324',1.74
'0:19.328',2.25
'0:19.332',2.67
'0:19.336',2.94
'0:19.340',3.11
'0:19.344',3.12
'0:19.348',3.12
'0:19.352',3.33
'0:19.355',3.54
'0:19.359',3.74
'0:19.363',3.94
'0:19.367',4.14
'0:19.371',4.49
'0:19.375',4.82
'0:19.379',4.83
'0:19.383',5.05
'0:19.387',5.37
'0:19.391',5.46
'0:19.395',5.6
'0:19.398',5.63
'0:19.402',5.47
'0:19.406',5.22
'0:19.410',5.01
'0:19.414',4.61
'0:19.418',4.06
'0:19.422',3.51
'0:19.426',2.82
'0:19.430',2.19
'0:19.434',1.96
'0:19.438',1.79
'0:19.441',1.34
'0:19.445',0.85
'0:19.449',0.54
'0:19.453',0.55
'0:19.457',0.7
'0:19.461',0.73
'0:19.465',0.72
'0:19.469',0.58
'0:19.473',0.28
'0:19.477',0.1
'0:19.480',0.13
'0:19.484',0.24
'0:19.488',0.45
'0:19.492',0.58
'0:19.496',0.56
'0:19.500',0.45
'0:19.504',0.08
'0:19.508',-0.39
'0:19.512',-0.78
'0:19.516',-1.06
'0:19.520',-1.4
'0:19.523',-1.42
'0:19.527',-1.13
