'0:00.000',-2.03
'0:00.004',-1.74
'0:00.008',-1.38
'0:00.012',-0.72
'0:00.016',-0.32
'0:00.020',-0.05
'0:00.023',0.12
'0:00.027',0.36
'0:00.031',0.84
'0:00.035',1.55
'0:00.039',2.45
'0:00.043',3.13
'0:00.047',3.82
'0:00.051',4.3
'0:00.055',4.53
'0:00.059',4.77
'0:00.063',5.27
'0:00.066',5.53
'0:00.070',5.97
'0:00.074',6.14
'0:00.078',5.16
'0:00.082',4.2
'0:00.086',3.26
'0:00.090',2.13
'0:00.094',0.97
'0:00.098',-0.3
'0:00.102',-0.78
'0:00.105',-0.69
'0:00.109',-0.09
'0:00.113',0.43
'0:00.117',0.69
'0:00.121',1.09
'0:00.125',0.59
'0:00.129',0.13
'0:00.133',0.34
'0:00.137',0.85
'0:00.141',1.32
'0:00.145',1.63
'0:00.148',2.27
'0:00.152',2.77
'0:00.156',2.99
'0:00.160',2.72
'0:00.164',2.66
'0:00.168',2.79
'0:00.172',2.29
'0:00.176',1.45
'0:00.180',0.8
'0:00.184',0.72
'0:00.188',0.47
'0:00.191',-0.64
'0:00.195',-1.46
'0:00.199',-1.74
'0:00.203',-1.76
'0:00.207',-1.2
'0:00.211',-1.39
'0:00.215',-1.91
'0:00.219',-2.54
'0:00.223',-2.59
'0:00.227',-2.17
'0:00.230',-2.33
'0:00.234',-2.69
'0:00.238',-2.98
'0:00.242',-2.92
'0:00.246',-2.06
'0:00.250',-0.09
'0:00.254',2.85
'0:00.258',6.61
'0:00.262',10.1
'0:00.266',11.56
'0:00.270',10.44
'0:00.273',6.78
'0:00.277',1.35
'0:00.281',-3.19
'0:00.285',-6.08
'0:00.289',-7.61
'0:00.293',-8.15
'0:00.297',-7.72
'0:00.301',-6.4
'0:00.305',-4.73
'0:00.309',-3.16
'0:00.313',-2.07
'0:00.316',-1.69
'0:00.320',-1.77
'0:00.324',-1.69
'0:00.328',-1
'0:00.332',0.01
'0:00.336',0.35
'0:00.340',0.28
'0:00.344',0.02
'0:00.348',-0.25
'0:00.352',-0.24
'0:00.355',0.26
'0:00.359',0.82
'0:00.363',1.23
'0:00.367',1.58
'0:00.371',1.74
'0:00.375',1.73
'0:00.379',1.84
'0:00.383',2.07
'0:00.387',2.46
'0:00.391',3.52
'0:00.395',4.24
'0:00.398',4.38
'0:00.402',4.08
'0:00.406',3.59
'0:00.410',3.56
'0:00.414',3.55
'0:00.418',3.02
'0:00.422',2.53
'0:00.426',2.37
'0:00.430',2.11
'0:00.434',1.95
'0:00.438',1.93
'0:00.441',1.6
'0:00.445',1.12
'0:00.449',0.38
'0:00.453',0.29
'0:00.457',0.75
'0:00.461',0.89
'0:00.465',0.87
'0:00.469',1.11
'0:00.473',1.24
'0:00.477',1.27
'0:00.480',1.29
'0:00.484',1.29
'0:00.488',1.34
'0:00.492',1.21
'0:00.496',0.89
'0:00.500',0.85
'0:00.504',0.71
'0:00.508',0.25
'0:00.512',-0.43
'0:00.516',-1.03
'0:00.520',-1.54
'0:00.523',-1.93
'0:00.527',-2.24
'0:00.531',-2.31
'0:00.535',-2.42
'0:00.539',-2.7
'0:00.543',-2.96
'0:00.547',-3.16
'0:00.551',-3.4
'0:00.555',-3.67
'0:00.559',-3.97
'0:00.563',-4.39
'0:00.566',-4.81
'0:00.570',-4.77
'0:00.574',-3.94
'0:00.578',-1.88
'0:00.582',1.35
'0:00.586',5.36
'0:00.590',8.79
'0:00.594',10.06
'0:00.598',8.92
'0:00.602',5.33
'0:00.605',0.15
'0:00.609',-4.74
'0:00.613',-8.02
'0:00.617',-9.71
'0:00.621',-10.16
'0:00.625',-9.34
'0:00.629',-7.72
'0:00.633',-6.14
'0:00.637',-4.73
'0:00.641',-3.73
'0:00.645',-3.15
'0:00.648',-2.76
'0:00.652',-2.44
'0:00.656',-2.24
'0:00.660',-2.07
'0:00.664',-1.87
'0:00.668',-1.59
'0:00.672',-1.34
'0:00.676',-0.98
'0:00.680',-0.62
'0:00.684',-0.42
'0:00.688',-0.32
'0:00.691',-0.11
'0:00.695',0.51
'0:00.699',1.18
'0:00.703',1.81
'0:00.707',2.37
'0:00.711',2.7
'0:00.715',2.97
'0:00.719',3
'0:00.723',2.95
'0:00.727',2.95
'0:00.730',3.14
'0:00.734',3.22
'0:00.738',3.14
'0:00.742',2.56
'0:00.746',1.85
'0:00.750',1.17
'0:00.754',0.47
'0:00.758',-0.15
'0:00.762',-0.58
'0:00.766',-0.8
'0:00.770',-0.87
'0:00.773',-0.85
'0:00.777',-0.85
'0:00.781',-0.81
'0:00.785',-0.69
'0:00.789',-0.45
'0:00.793',-0.29
'0:00.797',-0.12
'0:00.801',0.1
'0:00.805',0.13
'0:00.809',0.03
'0:00.813',0.11
'0:00.816',0.1
'0:00.820',0.11
'0:00.824',0.1
'0:00.828',-0.13
'0:00.832',-0.61
'0:00.836',-1.22
'0:00.840',-1.76
'0:00.844',-2.27
'0:00.848',-2.43
'0:00.852',-2.76
'0:00.855',-3.04
'0:00.859',-3.04
'0:00.863',-3.06
'0:00.867',-3.18
'0:00.871',-3.35
'0:00.875',-3.33
'0:00.879',-3.29
'0:00.883',-3.29
'0:00.887',-3.39
'0:00.891',-2.84
'0:00.895',-2.59
'0:00.898',-1.99
'0:00.902',-1.17
'0:00.906',1.21
'0:00.910',4.56
'0:00.914',8.55
'0:00.918',11.16
'0:00.922',10.88
'0:00.926',8.1
'0:00.930',3.46
'0:00.934',-2.05
'0:00.938',-6
'0:00.941',-8.64
'0:00.945',-9.93
'0:00.949',-10.09
'0:00.953',-9.09
'0:00.957',-7.14
'0:00.961',-5.47
'0:00.965',-4.14
'0:00.969',-3.45
'0:00.973',-2.65
'0:00.977',-1.94
'0:00.980',-1.47
'0:00.984',-1.01
'0:00.988',-0.74
'0:00.992',-1.05
'0:00.996',-1.19
'0:01.000',-0.71
'0:01.004',0
'0:01.008',0.79
'0:01.012',1.32
'0:01.016',1.63
'0:01.020',2.09
'0:01.023',2.32
'0:01.027',2.65
'0:01.031',2.92
'0:01.035',2.86
'0:01.039',2.88
'0:01.043',2.86
'0:01.047',2.9
'0:01.051',3.05
'0:01.055',3
'0:01.059',2.84
'0:01.063',2.76
'0:01.066',2.67
'0:01.070',2.21
'0:01.074',1.65
'0:01.078',1.18
'0:01.082',0.7
'0:01.086',0.28
'0:01.090',0.04
'0:01.094',0.03
'0:01.098',0.05
'0:01.102',0.06
'0:01.105',0.22
'0:01.109',0.54
'0:01.113',0.8
'0:01.117',0.99
'0:01.121',1.29
'0:01.125',1.42
'0:01.129',1.58
'0:01.133',1.52
'0:01.137',1.37
'0:01.141',1.18
'0:01.145',0.69
'0:01.148',0.47
'0:01.152',0.28
'0:01.156',-0.08
'0:01.160',-0.48
'0:01.164',-0.98
'0:01.168',-1.33
'0:01.172',-1.89
'0:01.176',-2.24
'0:01.180',-2.24
'0:01.184',-2.24
'0:01.188',-4.04
'0:01.191',-4
'0:01.195',-3.78
'0:01.199',-3.59
'0:01.203',-3.42
'0:01.207',-3.15
'0:01.211',-3.08
'0:01.215',-3.15
'0:01.219',-3.35
'0:01.223',-3.11
'0:01.227',-2.02
'0:01.230',0.25
'0:01.234',3.54
'0:01.238',7.63
'0:01.242',11.31
'0:01.246',12.57
'0:01.250',10.55
'0:01.254',5.99
'0:01.258',0.48
'0:01.262',-3.98
'0:01.266',-6.56
'0:01.270',-7.7
'0:01.273',-7.92
'0:01.277',-7.08
'0:01.281',-5.6
'0:01.285',-4.02
'0:01.289',-2.63
'0:01.293',-1.36
'0:01.297',-0.54
'0:01.301',-0.12
'0:01.305',0.12
'0:01.309',0.15
'0:01.313',0.18
'0:01.316',0.29
'0:01.320',0.4
'0:01.324',0.29
'0:01.328',0.17
'0:01.332',0.12
'0:01.336',0.12
'0:01.340',-0.04
'0:01.344',-0.16
'0:01.348',-0.32
'0:01.352',-0.48
'0:01.355',-0.37
'0:01.359',-0.08
'0:01.363',0.33
'0:01.367',0.7
'0:01.371',0.98
'0:01.375',1.23
'0:01.379',1.55
'0:01.383',1.73
'0:01.387',1.66
'0:01.391',1.38
'0:01.395',1.1
'0:01.398',0.88
'0:01.402',0.5
'0:01.406',0.18
'0:01.410',0.03
'0:01.414',-0.23
'0:01.418',-0.27
'0:01.422',-0.14
'0:01.426',-0.03
'0:01.430',0.07
'0:01.434',0.17
'0:01.438',0.2
'0:01.441',0.3
'0:01.445',0.46
'0:01.449',0.7
'0:01.453',0.78
'0:01.457',0.81
'0:01.461',1.01
'0:01.465',1.24
'0:01.469',1.27
'0:01.473',1.26
'0:01.477',1.41
'0:01.480',1.2
'0:01.484',0.62
'0:01.488',-0.01
'0:01.492',-0.59
'0:01.496',-1.03
'0:01.500',-1.38
'0:01.504',-1.69
'0:01.508',-2.08
'0:01.512',-2.38
'0:01.516',-2.32
'0:01.520',-1.91
'0:01.523',-1.53
'0:01.527',-1.33
'0:01.531',-1.29
'0:01.535',-1.53
'0:01.539',-2.05
'0:01.543',-2.51
'0:01.547',-2.63
'0:01.551',-2.1
'0:01.555',-0.55
'0:01.559',2.06
'0:01.563',5.32
'0:01.566',8.87
'0:01.570',11.54
'0:01.574',11.95
'0:01.578',9.57
'0:01.582',4.71
'0:01.586',-0.93
'0:01.590',-5.16
'0:01.594',-7.66
'0:01.598',-8.67
'0:01.602',-8.48
'0:01.605',-7.26
'0:01.609',-5.92
'0:01.613',-4.73
'0:01.617',-3.39
'0:01.621',-2.29
'0:01.625',-1.99
'0:01.629',-1.35
'0:01.633',-0.87
'0:01.637',-0.97
'0:01.641',-0.97
'0:01.645',-0.95
'0:01.648',-0.52
'0:01.652',-0.17
'0:01.656',-0.11
'0:01.660',0.24
'0:01.664',0.89
'0:01.668',1.83
'0:01.672',2.5
'0:01.676',2.98
'0:01.680',3.16
'0:01.684',3.63
'0:01.688',3.78
'0:01.691',4.01
'0:01.695',4.55
'0:01.699',4.87
'0:01.703',4.62
'0:01.707',3.68
'0:01.711',3.25
'0:01.715',2.96
'0:01.719',2.73
'0:01.723',2.52
'0:01.727',1.97
'0:01.730',1.4
'0:01.734',1.08
'0:01.738',0.58
'0:01.742',0.3
'0:01.746',0.63
'0:01.750',0.47
'0:01.754',-0.03
'0:01.758',-0.16
'0:01.762',0.12
'0:01.766',0.69
'0:01.770',1.48
'0:01.773',1.44
'0:01.777',1.17
'0:01.781',1.36
'0:01.785',1.96
'0:01.789',2.17
'0:01.793',2.19
'0:01.797',2.44
'0:01.801',2.13
'0:01.805',1.78
'0:01.809',1.57
'0:01.813',1.23
'0:01.816',0.84
'0:01.820',0.21
'0:01.824',-0.31
'0:01.828',-0.67
'0:01.832',-1.19
'0:01.836',-1.54
'0:01.840',-1.84
'0:01.844',-2.33
'0:01.848',-2.57
'0:01.852',-2.36
'0:01.855',-1.82
'0:01.859',-1.48
'0:01.863',-1.55
'0:01.867',-1.86
'0:01.871',-2.87
'0:01.875',-3.46
'0:01.879',-2.53
'0:01.883',-0.67
'0:01.887',2.35
'0:01.891',5.97
'0:01.895',9.34
'0:01.898',11.62
'0:01.902',11.65
'0:01.906',8.87
'0:01.910',4.06
'0:01.914',-1.03
'0:01.918',-5.07
'0:01.922',-7.29
'0:01.926',-7.73
'0:01.930',-6.92
'0:01.934',-5.41
'0:01.938',-4
'0:01.941',-3.04
'0:01.945',-2.33
'0:01.949',-1.9
'0:01.953',-1.73
'0:01.957',-1.39
'0:01.961',-1.02
'0:01.965',-0.85
'0:01.969',-0.75
'0:01.973',-0.09
'0:01.977',0.46
'0:01.980',0.64
'0:01.984',0.42
'0:01.988',0.77
'0:01.992',1.34
'0:01.996',1.61
'0:02.000',1.76
'0:02.004',1.8
'0:02.008',1.81
'0:02.012',2.12
'0:02.016',2.51
'0:02.020',2.71
'0:02.023',2.9
'0:02.027',3.38
'0:02.031',4.08
'0:02.035',4.19
'0:02.039',4.17
'0:02.043',4.13
'0:02.047',3.82
'0:02.051',3.52
'0:02.055',3.42
'0:02.059',3.15
'0:02.063',2.67
'0:02.066',2.16
'0:02.070',1.76
'0:02.074',1.33
'0:02.078',1
'0:02.082',0.74
'0:02.086',0.67
'0:02.090',0.78
'0:02.094',0.95
'0:02.098',1.05
'0:02.102',1.22
'0:02.105',1.44
'0:02.109',1.68
'0:02.113',1.8
'0:02.117',1.86
'0:02.121',1.74
'0:02.125',1.64
'0:02.129',1.52
'0:02.133',1.49
'0:02.137',1.4
'0:02.141',0.87
'0:02.145',0.19
'0:02.148',-0.6
'0:02.152',-1.23
'0:02.156',-1.75
'0:02.160',-2.11
'0:02.164',-2.36
'0:02.168',-2.71
'0:02.172',-3.02
'0:02.176',-3.35
'0:02.180',-3.6
'0:02.184',-3.66
'0:02.188',-3.61
'0:02.191',-3.91
'0:02.195',-4.47
'0:02.199',-5.03
'0:02.203',-5.14
'0:02.207',-4.55
'0:02.211',-2.81
'0:02.215',0.21
'0:02.219',3.99
'0:02.223',7.78
'0:02.227',9.86
'0:02.230',9.7
'0:02.234',6.94
'0:02.238',2.18
'0:02.242',-3
'0:02.246',-6.97
'0:02.250',-9.22
'0:02.254',-10.21
'0:02.258',-10.04
'0:02.262',-8.9
'0:02.266',-7.32
'0:02.270',-5.78
'0:02.273',-4.53
'0:02.277',-3.78
'0:02.281',-3.24
'0:02.285',-2.73
'0:02.289',-2.27
'0:02.293',-1.98
'0:02.297',-1.83
'0:02.301',-1.64
'0:02.305',-1.29
'0:02.309',-0.9
'0:02.313',-0.73
'0:02.316',-0.55
'0:02.320',-0.15
'0:02.324',0.34
'0:02.328',0.74
'0:02.332',1
'0:02.336',1.24
'0:02.340',1.54
'0:02.344',1.87
'0:02.348',2.31
'0:02.352',2.77
'0:02.355',3.02
'0:02.359',3
'0:02.363',2.79
'0:02.367',2.42
'0:02.371',2.09
'0:02.375',1.75
'0:02.379',1.33
'0:02.383',0.93
'0:02.387',0.57
'0:02.391',0.25
'0:02.395',-0.2
'0:02.398',-0.74
'0:02.402',-1.06
'0:02.406',-1.16
'0:02.410',-1.18
'0:02.414',-1.29
'0:02.418',-1.24
'0:02.422',-1
'0:02.426',-0.65
'0:02.430',-0.43
'0:02.434',-0.25
'0:02.438',0.07
'0:02.441',0.12
'0:02.445',0.38
'0:02.449',1.08
'0:02.453',1.11
'0:02.457',0.38
'0:02.461',-0.2
'0:02.465',-0.75
'0:02.469',-1.41
'0:02.473',-2.29
'0:02.477',-2.69
'0:02.480',-2.84
'0:02.484',-2.95
'0:02.488',-2.89
'0:02.492',-2.71
'0:02.496',-2.16
'0:02.500',-2.44
'0:02.504',-2.4
'0:02.508',-1.59
'0:02.512',-1.25
'0:02.516',-1.9
'0:02.520',-2.33
'0:02.523',-3.41
'0:02.527',-3.91
'0:02.531',-3.61
'0:02.535',-2.89
'0:02.539',-1.2
'0:02.543',1.46
'0:02.547',5.55
'0:02.551',9.66
'0:02.555',12.34
'0:02.559',11.16
'0:02.563',6.82
'0:02.566',1.28
'0:02.570',-3.5
'0:02.574',-6.86
'0:02.578',-8.81
'0:02.582',-9.45
'0:02.586',-8.66
'0:02.590',-7.47
'0:02.594',-6.16
'0:02.598',-4.77
'0:02.602',-3.88
'0:02.605',-3.17
'0:02.609',-2.64
'0:02.613',-2.25
'0:02.617',-1.84
'0:02.621',-1.37
'0:02.625',-1.07
'0:02.629',-0.74
'0:02.633',-0.37
'0:02.637',0.15
'0:02.641',0.25
'0:02.645',0.27
'0:02.648',0.48
'0:02.652',0.76
'0:02.656',1.09
'0:02.660',1.46
'0:02.664',1.78
'0:02.668',1.99
'0:02.672',2.24
'0:02.676',2.7
'0:02.680',3.1
'0:02.684',3.33
'0:02.688',3.63
'0:02.691',3.73
'0:02.695',3.74
'0:02.699',3.36
'0:02.703',2.7
'0:02.707',2.23
'0:02.711',2.12
'0:02.715',1.67
'0:02.719',1.23
'0:02.723',1.12
'0:02.727',0.98
'0:02.730',0.67
'0:02.734',0.49
'0:02.738',0.59
'0:02.742',1.01
'0:02.746',1.46
'0:02.750',1.72
'0:02.754',1.72
'0:02.758',1.38
'0:02.762',1.31
'0:02.766',1.51
'0:02.770',1.54
'0:02.773',1.63
'0:02.777',1.78
'0:02.781',1.63
'0:02.785',1.44
'0:02.789',1.25
'0:02.793',0.74
'0:02.797',-0.19
'0:02.801',-1.17
'0:02.805',-1.84
'0:02.809',-2.11
'0:02.813',-2.64
'0:02.816',-3
'0:02.820',-3.06
'0:02.824',-3.18
'0:02.828',-3.17
'0:02.832',-2.98
'0:02.836',-2.99
'0:02.840',-2.82
'0:02.844',-3.13
'0:02.848',-3.53
'0:02.852',-3.57
'0:02.855',-3.31
'0:02.859',-2.62
'0:02.863',-1.01
'0:02.867',1.46
'0:02.871',4.53
'0:02.875',8
'0:02.879',11.44
'0:02.883',13.04
'0:02.887',11.2
'0:02.891',6.65
'0:02.895',1
'0:02.898',-3.39
'0:02.902',-6.15
'0:02.906',-7.36
'0:02.910',-7.07
'0:02.914',-5.85
'0:02.918',-4.58
'0:02.922',-3.5
'0:02.926',-2.52
'0:02.930',-1.86
'0:02.934',-1.66
'0:02.938',-1.85
'0:02.941',-2
'0:02.945',-1.94
'0:02.949',-1.94
'0:02.953',-2.06
'0:02.957',-2.11
'0:02.961',-2.07
'0:02.965',-2.04
'0:02.969',-1.99
'0:02.973',-2.02
'0:02.977',-1.63
'0:02.980',-1.1
'0:02.984',-0.57
'0:02.988',-0.13
'0:02.992',0.3
'0:02.996',0.89
'0:03.000',1.36
'0:03.004',1.73
'0:03.008',2
'0:03.012',2.09
'0:03.016',2.26
'0:03.020',2.53
'0:03.023',2.52
'0:03.027',2.25
'0:03.031',1.77
'0:03.035',1.35
'0:03.039',1.03
'0:03.043',0.62
'0:03.047',0.26
'0:03.051',0.06
'0:03.055',-0.04
'0:03.059',-0.09
'0:03.063',-0.21
'0:03.066',-0.29
'0:03.070',-0.26
'0:03.074',-0.19
'0:03.078',-0.09
'0:03.082',0.33
'0:03.086',0.85
'0:03.090',1.2
'0:03.094',1.46
'0:03.098',1.57
'0:03.102',1.73
'0:03.105',1.91
'0:03.109',1.95
'0:03.113',2
'0:03.117',1.91
'0:03.121',1.29
'0:03.125',0.44
'0:03.129',-0.27
'0:03.133',-0.79
'0:03.137',-0.98
'0:03.141',-1.3
'0:03.145',-1.67
'0:03.148',-2.01
'0:03.152',-2.35
'0:03.156',-2.48
'0:03.160',-2.44
'0:03.164',-2.36
'0:03.168',-2.42
'0:03.172',-2.41
'0:03.176',-2.34
'0:03.180',-2.39
'0:03.184',-2.46
'0:03.188',-2.29
'0:03.191',-1.64
'0:03.195',-0.1
'0:03.199',2.68
'0:03.203',6.45
'0:03.207',10.29
'0:03.211',12.51
'0:03.215',12.23
'0:03.219',9.18
'0:03.223',3.97
'0:03.227',-1.57
'0:03.230',-5.62
'0:03.234',-7.93
'0:03.238',-8.72
'0:03.242',-8.2
'0:03.246',-6.77
'0:03.250',-5.28
'0:03.254',-4.01
'0:03.258',-2.86
'0:03.262',-1.79
'0:03.266',-0.91
'0:03.270',-0.54
'0:03.273',-0.69
'0:03.277',-0.92
'0:03.281',-0.85
'0:03.285',-0.85
'0:03.289',-0.73
'0:03.293',-0.55
'0:03.297',-0.15
'0:03.301',0.24
'0:03.305',0.87
'0:03.309',1.63
'0:03.313',2.29
'0:03.316',2.49
'0:03.320',3.01
'0:03.324',4.47
'0:03.328',5.45
'0:03.332',5.17
'0:03.336',4.79
'0:03.340',4.35
'0:03.344',3.74
'0:03.348',2.87
'0:03.352',2.13
'0:03.355',1.26
'0:03.359',0.58
'0:03.363',0.22
'0:03.367',0.32
'0:03.371',0.22
'0:03.375',0.47
'0:03.379',1.18
'0:03.383',1.34
'0:03.387',0.7
'0:03.391',0.11
'0:03.395',-0.26
'0:03.398',-0.35
'0:03.402',0.05
'0:03.406',0.49
'0:03.410',0.64
'0:03.414',1
'0:03.418',1.81
'0:03.422',2.15
'0:03.426',2.27
'0:03.430',2.21
'0:03.434',2.08
'0:03.438',1.9
'0:03.441',1.92
'0:03.445',1.86
'0:03.449',1.26
'0:03.453',0.7
'0:03.457',0.25
'0:03.461',-0.33
'0:03.465',-1.14
'0:03.469',-1.64
'0:03.473',-2.06
'0:03.477',-2.43
'0:03.480',-2.3
'0:03.484',-1.98
'0:03.488',-2.3
'0:03.492',-2.56
'0:03.496',-2.96
'0:03.500',-3.11
'0:03.504',-2.95
'0:03.508',-3.46
'0:03.512',-4.04
'0:03.516',-3.87
'0:03.520',-2.83
'0:03.523',-0.73
'0:03.527',2.03
'0:03.531',5.42
'0:03.535',9.14
'0:03.539',11.43
'0:03.543',10.71
'0:03.547',6.95
'0:03.551',1.6
'0:03.555',-3.1
'0:03.559',-6.14
'0:03.563',-7.61
'0:03.566',-8.06
'0:03.570',-7.53
'0:03.574',-6.09
'0:03.578',-4.57
'0:03.582',-3.34
'0:03.586',-2.51
'0:03.590',-2.07
'0:03.594',-1.71
'0:03.598',-1.58
'0:03.602',-1.61
'0:03.605',-1.29
'0:03.609',-0.76
'0:03.613',-0.5
'0:03.617',-0.36
'0:03.621',-0.33
'0:03.625',-0.43
'0:03.629',-0.24
'0:03.633',0.41
'0:03.637',0.88
'0:03.641',0.97
'0:03.645',1.18
'0:03.648',1.64
'0:03.652',2.1
'0:03.656',2.48
'0:03.660',2.54
'0:03.664',2.46
'0:03.668',2.91
'0:03.672',3.22
'0:03.676',3.32
'0:03.680',3.18
'0:03.684',2.93
'0:03.688',2.54
'0:03.691',2.13
'0:03.695',2.02
'0:03.699',2.18
'0:03.703',2.03
'0:03.707',1.45
'0:03.711',0.69
'0:03.715',-0.08
'0:03.719',-0.68
'0:03.723',-0.72
'0:03.727',-0.24
'0:03.730',0.37
'0:03.734',1.11
'0:03.738',1.86
'0:03.742',2.34
'0:03.746',2.5
'0:03.750',2.39
'0:03.754',1.91
'0:03.758',1.66
'0:03.762',1.69
'0:03.766',1.54
'0:03.770',1.33
'0:03.773',1.13
'0:03.777',0.67
'0:03.781',-0.06
'0:03.785',-0.63
'0:03.789',-1.04
'0:03.793',-1.6
'0:03.797',-2.19
'0:03.801',-2.75
'0:03.805',-3.27
'0:03.809',-3.61
'0:03.813',-3.75
'0:03.816',-3.92
'0:03.820',-4.16
'0:03.824',-4.42
'0:03.828',-4.74
'0:03.832',-5.14
'0:03.836',-5.48
'0:03.840',-5.53
'0:03.844',-5.33
'0:03.848',-4.57
'0:03.852',-2.76
'0:03.855',0.53
'0:03.859',4.81
'0:03.863',8.9
'0:03.867',10.9
'0:03.871',10.11
'0:03.875',6.53
'0:03.879',1.1
'0:03.883',-4.09
'0:03.887',-7.7
'0:03.891',-9.58
'0:03.895',-9.99
'0:03.898',-9.2
'0:03.902',-7.68
'0:03.906',-6.14
'0:03.910',-5
'0:03.914',-4.07
'0:03.918',-3.35
'0:03.922',-2.82
'0:03.926',-2.34
'0:03.930',-1.98
'0:03.934',-1.84
'0:03.938',-1.73
'0:03.941',-1.36
'0:03.945',-0.88
'0:03.949',-0.44
'0:03.953',-0.09
'0:03.957',0.17
'0:03.961',0.35
'0:03.965',0.68
'0:03.969',0.93
'0:03.973',1.17
'0:03.977',1.44
'0:03.980',1.83
'0:03.984',2.27
'0:03.988',2.63
'0:03.992',2.94
'0:03.996',3.2
'0:04.000',3.34
'0:04.004',3.39
'0:04.008',3.26
'0:04.012',3.02
'0:04.016',2.75
'0:04.020',2.34
'0:04.023',1.78
'0:04.027',1.23
'0:04.031',0.76
'0:04.035',0.38
'0:04.039',0.01
'0:04.043',-0.22
'0:04.047',-0.31
'0:04.051',-0.27
'0:04.055',-0.16
'0:04.059',0.01
'0:04.063',0.2
'0:04.066',0.25
'0:04.070',0.32
'0:04.074',0.47
'0:04.078',0.64
'0:04.082',0.88
'0:04.086',1.09
'0:04.090',1.14
'0:04.094',0.93
'0:04.098',0.61
'0:04.102',0.59
'0:04.105',0.32
'0:04.109',-0.09
'0:04.113',-0.46
'0:04.117',-1.21
'0:04.121',-1.82
'0:04.125',-2.31
'0:04.129',-2.06
'0:04.133',-2.28
'0:04.137',-2.46
'0:04.141',-2.68
'0:04.145',-2.56
'0:04.148',-2.77
'0:04.152',-2.24
'0:04.156',-1.67
'0:04.160',-1.71
'0:04.164',-2.75
'0:04.168',-3.86
'0:04.172',-3.96
'0:04.176',-2.21
'0:04.180',1.36
'0:04.184',4.05
'0:04.188',6.89
'0:04.191',9.86
'0:04.195',11.17
'0:04.199',9.72
'0:04.203',5.53
'0:04.207',0.15
'0:04.211',-4.45
'0:04.215',-7.71
'0:04.219',-9.63
'0:04.223',-9.92
'0:04.227',-8.64
'0:04.230',-6.7
'0:04.234',-4.97
'0:04.238',-3.85
'0:04.242',-3.03
'0:04.246',-2.7
'0:04.250',-2.38
'0:04.254',-1.97
'0:04.258',-1.46
'0:04.262',-0.58
'0:04.266',0.02
'0:04.270',0.01
'0:04.273',0.03
'0:04.277',0.4
'0:04.281',0.76
'0:04.285',1.15
'0:04.289',1.44
'0:04.293',1.54
'0:04.297',1.72
'0:04.301',2
'0:04.305',2.2
'0:04.309',2.58
'0:04.313',3.04
'0:04.316',3.22
'0:04.320',3.31
'0:04.324',3.08
'0:04.328',2.95
'0:04.332',3.03
'0:04.336',3.13
'0:04.340',3.27
'0:04.344',3.13
'0:04.348',2.67
'0:04.352',1.92
'0:04.355',1.22
'0:04.359',0.83
'0:04.363',0.83
'0:04.367',0.76
'0:04.371',0.51
'0:04.375',0.3
'0:04.379',0.33
'0:04.383',0.53
'0:04.387',0.59
'0:04.391',0.79
'0:04.395',1.05
'0:04.398',1.03
'0:04.402',1
'0:04.406',0.78
'0:04.410',0.88
'0:04.414',1.01
'0:04.418',0.81
'0:04.422',0.49
'0:04.426',0.08
'0:04.430',-0.33
'0:04.434',-0.77
'0:04.438',-1.19
'0:04.441',-1.71
'0:04.445',-2.43
'0:04.449',-2.9
'0:04.453',-3.12
'0:04.457',-3.14
'0:04.461',-3.01
'0:04.465',-2.99
'0:04.469',-2.8
'0:04.473',-2.66
'0:04.477',-2.77
'0:04.480',-2.77
'0:04.484',-2.68
'0:04.488',-2.87
'0:04.492',-2.99
'0:04.496',-2.84
'0:04.500',-2.3
'0:04.504',-1.03
'0:04.508',1.46
'0:04.512',5
'0:04.516',8.87
'0:04.520',11.9
'0:04.523',12.9
'0:04.527',11.06
'0:04.531',6.87
'0:04.535',1.69
'0:04.539',-2.39
'0:04.543',-5
'0:04.547',-6.06
'0:04.551',-6
'0:04.555',-5.45
'0:04.559',-4.67
'0:04.563',-3.5
'0:04.566',-2.48
'0:04.570',-1.97
'0:04.574',-2
'0:04.578',-2.11
'0:04.582',-2.21
'0:04.586',-2.24
'0:04.590',-2.22
'0:04.594',-2.14
'0:04.598',-2.04
'0:04.602',-2.04
'0:04.605',-2.17
'0:04.609',-2.16
'0:04.613',-2.06
'0:04.617',-1.77
'0:04.621',-1.33
'0:04.625',-0.79
'0:04.629',-0.18
'0:04.633',0.47
'0:04.637',0.97
'0:04.641',1.55
'0:04.645',2.03
'0:04.648',2.35
'0:04.652',2.57
'0:04.656',2.77
'0:04.660',2.71
'0:04.664',2.64
'0:04.668',2.61
'0:04.672',2.3
'0:04.676',1.88
'0:04.680',1.43
'0:04.684',1
'0:04.688',0.66
'0:04.691',0.33
'0:04.695',0.11
'0:04.699',0.01
'0:04.703',0.01
'0:04.707',0.07
'0:04.711',0.28
'0:04.715',0.62
'0:04.719',0.99
'0:04.723',1.18
'0:04.727',1.35
'0:04.730',1.71
'0:04.734',1.82
'0:04.738',1.66
'0:04.742',1.57
'0:04.746',1.65
'0:04.750',1.57
'0:04.754',1.49
'0:04.758',1.29
'0:04.762',0.85
'0:04.766',0.26
'0:04.770',-0.42
'0:04.773',-0.87
'0:04.777',-0.95
'0:04.781',-0.9
'0:04.785',-1.09
'0:04.789',-1.44
'0:04.793',-1.78
'0:04.797',-2.07
'0:04.801',-2.17
'0:04.805',-2.12
'0:04.809',-2.05
'0:04.813',-2.04
'0:04.816',-2.33
'0:04.820',-2.85
'0:04.824',-3.02
'0:04.828',-2.42
'0:04.832',-0.91
'0:04.836',1.8
'0:04.840',5.46
'0:04.844',9.52
'0:04.848',12.49
'0:04.852',13
'0:04.855',10.65
'0:04.859',5.84
'0:04.863',-0.09
'0:04.867',-4.71
'0:04.871',-7.24
'0:04.875',-8.36
'0:04.879',-8.52
'0:04.883',-7.47
'0:04.887',-5.38
'0:04.891',-3.65
'0:04.895',-2.79
'0:04.898',-2.26
'0:04.902',-1.79
'0:04.906',-0.62
'0:04.910',0.03
'0:04.914',0.57
'0:04.918',1.37
'0:04.922',1.66
'0:04.926',1.39
'0:04.930',1.62
'0:04.934',2.11
'0:04.938',2.75
'0:04.941',2.58
'0:04.945',2.02
'0:04.949',0.96
'0:04.953',0.08
'0:04.957',-0.06
'0:04.961',0.28
'0:04.965',1.09
'0:04.969',2.08
'0:04.973',2.52
'0:04.977',2.51
'0:04.980',2.7
'0:04.984',3.17
'0:04.988',3.17
'0:04.992',2.98
'0:04.996',3.2
'0:05.000',3.4
'0:05.004',3.43
'0:05.008',2.81
'0:05.012',1.96
'0:05.016',1.06
'0:05.020',0.61
'0:05.023',0.62
'0:05.027',0.93
'0:05.031',1.27
'0:05.035',1.24
'0:05.039',1.17
'0:05.043',1.07
'0:05.047',1.26
'0:05.051',1.46
'0:05.055',1.66
'0:05.059',1.88
'0:05.063',1.88
'0:05.066',2.12
'0:05.070',2.12
'0:05.074',1.55
'0:05.078',0.91
'0:05.082',0.83
'0:05.086',0.8
'0:05.090',0.44
'0:05.094',-0.02
'0:05.098',-0.39
'0:05.102',-0.98
'0:05.105',-1.74
'0:05.109',-2.09
'0:05.113',-2.34
'0:05.117',-3.27
'0:05.121',-3.83
'0:05.125',-3.59
'0:05.129',-2.73
'0:05.133',-1.79
'0:05.137',-1.31
'0:05.141',-1.44
'0:05.145',-2.07
'0:05.148',-2.58
'0:05.152',-2.4
'0:05.156',-1.28
'0:05.160',0.99
'0:05.164',4.03
'0:05.168',7.88
'0:05.172',11.38
'0:05.176',12.83
'0:05.180',11.47
'0:05.184',7.28
'0:05.188',1.27
'0:05.191',-4.09
'0:05.195',-7.54
'0:05.199',-8.68
'0:05.203',-7.94
'0:05.207',-6.83
'0:05.211',-5.85
'0:05.215',-4.95
'0:05.219',-4.18
'0:05.223',-3.25
'0:05.227',-2.89
'0:05.230',-2.41
'0:05.234',-2.49
'0:05.238',-2.73
'0:05.242',-2.79
'0:05.246',-2.27
'0:05.250',-1.04
'0:05.254',-0.05
'0:05.258',0.47
'0:05.262',0.76
'0:05.266',0.86
'0:05.270',1.01
'0:05.273',1.12
'0:05.277',1.4
'0:05.281',2.13
'0:05.285',2.74
'0:05.289',3.33
'0:05.293',3.82
'0:05.297',4.1
'0:05.301',4.37
'0:05.305',4.42
'0:05.309',4.28
'0:05.313',4.14
'0:05.316',4.14
'0:05.320',4.09
'0:05.324',3.65
'0:05.328',3.06
'0:05.332',2.64
'0:05.336',2.28
'0:05.340',1.87
'0:05.344',1.51
'0:05.348',1.16
'0:05.352',0.83
'0:05.355',0.72
'0:05.359',0.88
'0:05.363',1.03
'0:05.367',1.03
'0:05.371',1.05
'0:05.375',1.11
'0:05.379',1.21
'0:05.383',1.36
'0:05.387',1.2
'0:05.391',0.86
'0:05.395',0.59
'0:05.398',0.23
'0:05.402',-0.24
'0:05.406',-0.57
'0:05.410',-0.81
'0:05.414',-1.08
'0:05.418',-1.55
'0:05.422',-2.33
'0:05.426',-3.08
'0:05.430',-3.63
'0:05.434',-4.05
'0:05.438',-4.36
'0:05.441',-4.63
'0:05.445',-4.75
'0:05.449',-4.76
'0:05.453',-4.6
'0:05.457',-4.43
'0:05.461',-4.34
'0:05.465',-4.41
'0:05.469',-4.61
'0:05.473',-4.7
'0:05.477',-4.55
'0:05.480',-3.93
'0:05.484',-2.43
'0:05.488',0.3
'0:05.492',3.99
'0:05.496',8.13
'0:05.500',10.9
'0:05.504',11.31
'0:05.508',9.13
'0:05.512',4.68
'0:05.516',-0.78
'0:05.520',-5.32
'0:05.523',-8.37
'0:05.527',-9.84
'0:05.531',-9.92
'0:05.535',-8.85
'0:05.539',-7.35
'0:05.543',-5.92
'0:05.547',-4.73
'0:05.551',-3.87
'0:05.555',-3.27
'0:05.559',-2.75
'0:05.563',-2.37
'0:05.566',-2.07
'0:05.570',-1.82
'0:05.574',-1.71
'0:05.578',-1.52
'0:05.582',-1.21
'0:05.586',-0.92
'0:05.590',-0.69
'0:05.594',-0.45
'0:05.598',-0.26
'0:05.602',0.01
'0:05.605',0.55
'0:05.609',1.08
'0:05.613',1.52
'0:05.617',1.89
'0:05.621',2.24
'0:05.625',2.76
'0:05.629',2.82
'0:05.633',2.67
'0:05.637',2.71
'0:05.641',2.55
'0:05.645',2.09
'0:05.648',1.5
'0:05.652',0.92
'0:05.656',0.44
'0:05.660',-0.01
'0:05.664',-0.34
'0:05.668',-0.38
'0:05.672',-0.59
'0:05.676',-0.91
'0:05.680',-0.52
'0:05.684',-0.52
'0:05.688',-0.54
'0:05.691',-0.09
'0:05.695',-0.04
'0:05.699',0
'0:05.703',0.46
'0:05.707',0.19
'0:05.711',-0.16
'0:05.715',-0.08
'0:05.719',0.2
'0:05.723',0.67
'0:05.727',0.89
'0:05.730',0.14
'0:05.734',-0.56
'0:05.738',-0.94
'0:05.742',-0.87
'0:05.746',-1.31
'0:05.750',-2.16
'0:05.754',-2.74
'0:05.758',-2.83
'0:05.762',-2.89
'0:05.766',-3.39
'0:05.770',-3.71
'0:05.773',-3.88
'0:05.777',-4.03
'0:05.781',-3.8
'0:05.785',-3.13
'0:05.789',-3.03
'0:05.793',-3.2
'0:05.797',-3.65
'0:05.801',-3.36
'0:05.805',-2.61
'0:05.809',-1.86
'0:05.813',-0.8
'0:05.816',1.25
'0:05.820',4.62
'0:05.824',8.67
'0:05.828',11.53
'0:05.832',11.77
'0:05.836',8.85
'0:05.840',3.7
'0:05.844',-1.53
'0:05.848',-5.52
'0:05.852',-7.93
'0:05.855',-8.72
'0:05.859',-8.48
'0:05.863',-7.31
'0:05.867',-5.67
'0:05.871',-4.1
'0:05.875',-2.89
'0:05.879',-2.09
'0:05.883',-1.57
'0:05.887',-1.11
'0:05.891',-0.74
'0:05.895',-0.51
'0:05.898',-0.7
'0:05.902',-0.82
'0:05.906',-0.79
'0:05.910',-0.54
'0:05.914',-0.1
'0:05.918',0.25
'0:05.922',0.39
'0:05.926',0.45
'0:05.930',0.57
'0:05.934',0.72
'0:05.938',1.01
'0:05.941',1.5
'0:05.945',2.15
'0:05.949',2.79
'0:05.953',3.09
'0:05.957',2.95
'0:05.961',2.82
'0:05.965',2.63
'0:05.969',2.58
'0:05.973',2.76
'0:05.977',2.43
'0:05.980',1.81
'0:05.984',1.46
'0:05.988',1.13
'0:05.992',0.69
'0:05.996',0.46
'0:06.000',-0.16
'0:06.004',-0.45
'0:06.008',-0.41
'0:06.012',-0.5
'0:06.016',-0.48
'0:06.020',-0.22
'0:06.023',0
'0:06.027',-0.1
'0:06.031',-0.24
'0:06.035',-0.01
'0:06.039',0.42
'0:06.043',0.56
'0:06.047',0.59
'0:06.051',0.52
'0:06.055',0.83
'0:06.059',0.73
'0:06.063',0.24
'0:06.066',-0.23
'0:06.070',-0.82
'0:06.074',-1.56
'0:06.078',-2.1
'0:06.082',-2.36
'0:06.086',-2.4
'0:06.090',-2.33
'0:06.094',-2.34
'0:06.098',-2.57
'0:06.102',-2.77
'0:06.105',-2.69
'0:06.109',-2.17
'0:06.113',-1.74
'0:06.117',-1.55
'0:06.121',-1.44
'0:06.125',-1.49
'0:06.129',-1.37
'0:06.133',-0.73
'0:06.137',0.43
'0:06.141',2.18
'0:06.145',4.92
'0:06.148',8.48
'0:06.152',11.9
'0:06.156',13.25
'0:06.160',11.44
'0:06.164',7.06
'0:06.168',1.26
'0:06.172',-3.86
'0:06.176',-7.26
'0:06.180',-9.07
'0:06.184',-9.62
'0:06.188',-9.12
'0:06.191',-8
'0:06.195',-6.8
'0:06.199',-5.79
'0:06.203',-4.92
'0:06.207',-4.31
'0:06.211',-3.8
'0:06.215',-3.31
'0:06.219',-2.66
'0:06.223',-2.13
'0:06.227',-1.59
'0:06.230',-0.98
'0:06.234',-0.54
'0:06.238',-0.29
'0:06.242',-0.32
'0:06.246',-0.22
'0:06.250',0.21
'0:06.254',0.74
'0:06.258',1.21
'0:06.262',1.56
'0:06.266',1.92
'0:06.270',2.09
'0:06.273',2.13
'0:06.277',2.25
'0:06.281',2.4
'0:06.285',2.55
'0:06.289',2.76
'0:06.293',2.94
'0:06.297',2.98
'0:06.301',2.95
'0:06.305',2.52
'0:06.309',1.83
'0:06.313',1.45
'0:06.316',1.07
'0:06.320',0.41
'0:06.324',-0.04
'0:06.328',-0.11
'0:06.332',-0.05
'0:06.336',-0.01
'0:06.340',0.08
'0:06.344',0.04
'0:06.348',0.18
'0:06.352',0.4
'0:06.355',0.6
'0:06.359',0.96
'0:06.363',1.26
'0:06.367',1.65
'0:06.371',1.86
'0:06.375',1.95
'0:06.379',1.92
'0:06.383',1.62
'0:06.387',1.23
'0:06.391',0.74
'0:06.395',0.07
'0:06.398',-0.66
'0:06.402',-1.3
'0:06.406',-1.64
'0:06.410',-2.01
'0:06.414',-2.31
'0:06.418',-2.42
'0:06.422',-2.41
'0:06.426',-2.36
'0:06.430',-2.12
'0:06.434',-1.58
'0:06.438',-1.56
'0:06.441',-1.87
'0:06.445',-2.42
'0:06.449',-3.02
'0:06.453',-3.49
'0:06.457',-3.49
'0:06.461',-2.96
'0:06.465',-1.8
'0:06.469',1.01
'0:06.473',5.13
'0:06.477',9.7
'0:06.480',12.83
'0:06.484',13.34
'0:06.488',11.26
'0:06.492',7.03
'0:06.496',1.23
'0:06.500',-3.43
'0:06.504',-5.46
'0:06.508',-6.58
'0:06.512',-7.2
'0:06.516',-6.54
'0:06.520',-4.45
'0:06.523',-2.65
'0:06.527',-1.92
'0:06.531',-1.72
'0:06.535',-1.68
'0:06.539',-2
'0:06.543',-1.99
'0:06.547',-1.36
'0:06.551',-1.04
'0:06.555',-1.02
'0:06.559',-0.67
'0:06.563',0.03
'0:06.566',0.63
'0:06.570',0.98
'0:06.574',1.26
'0:06.578',1.64
'0:06.582',2.31
'0:06.586',3.2
'0:06.590',3.84
'0:06.594',4.01
'0:06.598',4.28
'0:06.602',4.81
'0:06.605',5.14
'0:06.609',5.81
'0:06.613',5.69
'0:06.617',5.17
'0:06.621',4.51
'0:06.625',3.8
'0:06.629',3.21
'0:06.633',3.08
'0:06.637',3.02
'0:06.641',2.84
'0:06.645',2.57
'0:06.648',1.97
'0:06.652',1.52
'0:06.656',1.55
'0:06.660',1.33
'0:06.664',1.05
'0:06.668',1.06
'0:06.672',1.19
'0:06.676',1.24
'0:06.680',1.4
'0:06.684',0.79
'0:06.688',0.43
'0:06.691',0.67
'0:06.695',1.17
'0:06.699',1.69
'0:06.703',1.69
'0:06.707',1.28
'0:06.711',1.02
'0:06.715',0.92
'0:06.719',0.69
'0:06.723',0.36
'0:06.727',-0.17
'0:06.730',-0.95
'0:06.734',-1.73
'0:06.738',-2.37
'0:06.742',-2.13
'0:06.746',-1.97
'0:06.750',-2.02
'0:06.754',-1.74
'0:06.758',-1.78
'0:06.762',-2.07
'0:06.766',-2.33
'0:06.770',-2.71
'0:06.773',-2.87
'0:06.777',-2.98
'0:06.781',-3.23
'0:06.785',-3.13
'0:06.789',-2.29
'0:06.793',-0.16
'0:06.797',2.91
'0:06.801',6.89
'0:06.805',10.55
'0:06.809',11.73
'0:06.813',9.99
'0:06.816',5.55
'0:06.820',0.13
'0:06.824',-4.35
'0:06.828',-7.38
'0:06.832',-9.32
'0:06.836',-9.74
'0:06.840',-8.61
'0:06.844',-6.95
'0:06.848',-5.28
'0:06.852',-3.77
'0:06.855',-2.33
'0:06.859',-1.33
'0:06.863',-0.6
'0:06.867',0.05
'0:06.871',0.5
'0:06.875',0.83
'0:06.879',0.88
'0:06.883',0.96
'0:06.887',1.26
'0:06.891',1.22
'0:06.895',0.92
'0:06.898',0.83
'0:06.902',0.96
'0:06.906',1.39
'0:06.910',2.02
'0:06.914',2.62
'0:06.918',3.2
'0:06.922',3.68
'0:06.926',4.06
'0:06.930',4.52
'0:06.934',4.92
'0:06.938',5.09
'0:06.941',5.15
'0:06.945',5.22
'0:06.949',5.14
'0:06.953',4.75
'0:06.957',4.23
'0:06.961',3.6
'0:06.965',2.72
'0:06.969',1.85
'0:06.973',1.02
'0:06.977',0.22
'0:06.980',-0.45
'0:06.984',-0.86
'0:06.988',-1.17
'0:06.992',-1.39
'0:06.996',-1.57
'0:07.000',-1.73
'0:07.004',-1.96
'0:07.008',-2.09
'0:07.012',-2.01
'0:07.016',-1.93
'0:07.020',-1.71
'0:07.023',-1.55
'0:07.027',-1.66
'0:07.031',-1.86
'0:07.035',-1.97
'0:07.039',-1.89
'0:07.043',-1.8
'0:07.047',-1.83
'0:07.051',-1.93
'0:07.055',-2.18
'0:07.059',-2.52
'0:07.063',-2.98
'0:07.066',-3.38
'0:07.070',-3.55
'0:07.074',-3.62
'0:07.078',-3.73
'0:07.082',-3.91
'0:07.086',-4.08
'0:07.090',-4.1
'0:07.094',-4.01
'0:07.098',-3.84
'0:07.102',-3.71
'0:07.105',-3.76
'0:07.109',-3.81
'0:07.113',-3.45
'0:07.117',-2.11
'0:07.121',0.55
'0:07.125',4.3
'0:07.129',8.72
'0:07.133',11.77
'0:07.137',11.91
'0:07.141',9.34
'0:07.145',4.6
'0:07.148',-0.95
'0:07.152',-5.31
'0:07.156',-8.16
'0:07.160',-9.57
'0:07.164',-9.69
'0:07.168',-8.71
'0:07.172',-7.25
'0:07.176',-5.87
'0:07.180',-4.68
'0:07.184',-3.61
'0:07.188',-2.86
'0:07.191',-2.44
'0:07.195',-2.25
'0:07.199',-2.05
'0:07.203',-1.63
'0:07.207',-1.13
'0:07.211',-0.87
'0:07.215',-0.86
'0:07.219',-0.63
'0:07.223',-0.3
'0:07.227',0.07
'0:07.230',0.39
'0:07.234',0.54
'0:07.238',0.62
'0:07.242',1.1
'0:07.246',1.94
'0:07.250',2.84
'0:07.254',3.34
'0:07.258',3.27
'0:07.262',3.36
'0:07.266',3.39
'0:07.270',3.23
'0:07.273',3.14
'0:07.277',2.9
'0:07.281',2.59
'0:07.285',1.95
'0:07.289',1.35
'0:07.293',1.4
'0:07.297',1.23
'0:07.301',0.7
'0:07.305',0.76
'0:07.309',0.78
'0:07.313',0.33
'0:07.316',0.25
'0:07.320',0.16
'0:07.324',-0.17
'0:07.328',-0.37
'0:07.332',-0.4
'0:07.336',-0.15
'0:07.340',0.18
'0:07.344',0.09
'0:07.348',-0.2
'0:07.352',-0.17
'0:07.355',0.3
'0:07.359',0.8
'0:07.363',0.69
'0:07.367',0.18
'0:07.371',-0.3
'0:07.375',-0.75
'0:07.379',-1.37
'0:07.383',-1.71
'0:07.387',-1.54
'0:07.391',-1.06
'0:07.395',-1.51
'0:07.398',-2.03
'0:07.402',-2.42
'0:07.406',-2.79
'0:07.410',-2.94
'0:07.414',-2.92
'0:07.418',-2.69
'0:07.422',-2.42
'0:07.426',-2.3
'0:07.430',-2.67
'0:07.434',-3.11
'0:07.438',-3.09
'0:07.441',-2.35
'0:07.445',-0.46
'0:07.449',2.68
'0:07.453',6.53
'0:07.457',10.16
'0:07.461',12.18
'0:07.465',11.31
'0:07.469',7.57
'0:07.473',2.04
'0:07.477',-3
'0:07.480',-6.3
'0:07.484',-7.97
'0:07.488',-8.45
'0:07.492',-8.14
'0:07.496',-7.14
'0:07.500',-5.77
'0:07.504',-4.72
'0:07.508',-3.83
'0:07.512',-2.94
'0:07.516',-2.32
'0:07.520',-1.72
'0:07.523',-1.29
'0:07.527',-1.38
'0:07.531',-1.23
'0:07.535',-0.89
'0:07.539',-0.52
'0:07.543',-0.03
'0:07.547',0.35
'0:07.551',0.37
'0:07.555',0.17
'0:07.559',-0.02
'0:07.563',-0.12
'0:07.566',-0.14
'0:07.570',0.04
'0:07.574',0.37
'0:07.578',1.02
'0:07.582',1.6
'0:07.586',1.96
'0:07.590',2.21
'0:07.594',2.12
'0:07.598',2
'0:07.602',1.84
'0:07.605',1.76
'0:07.609',1.51
'0:07.613',1.31
'0:07.617',0.88
'0:07.621',-0.02
'0:07.625',-0.65
'0:07.629',-1.04
'0:07.633',-1.18
'0:07.637',-0.91
'0:07.641',-0.5
'0:07.645',-0.52
'0:07.648',-0.51
'0:07.652',-0.38
'0:07.656',-0.24
'0:07.660',-0.1
'0:07.664',0.31
'0:07.668',0.75
'0:07.672',0.91
'0:07.676',1.26
'0:07.680',1.65
'0:07.684',1.81
'0:07.688',1.84
'0:07.691',1.81
'0:07.695',1.75
'0:07.699',1.48
'0:07.703',1.1
'0:07.707',0.59
'0:07.711',0.03
'0:07.715',-0.55
'0:07.719',-1.01
'0:07.723',-1.35
'0:07.727',-1.84
'0:07.730',-2.43
'0:07.734',-3
'0:07.738',-3.33
'0:07.742',-3.3
'0:07.746',-3.25
'0:07.750',-3.43
'0:07.754',-3.63
'0:07.758',-3.81
'0:07.762',-3.86
'0:07.766',-3.33
'0:07.770',-2.07
'0:07.773',0.59
'0:07.777',4.25
'0:07.781',8.15
'0:07.785',11.16
'0:07.789',12.24
'0:07.793',10.31
'0:07.797',5.6
'0:07.801',0
'0:07.805',-4.34
'0:07.809',-7.01
'0:07.813',-8.3
'0:07.816',-8.38
'0:07.820',-7.3
'0:07.824',-6.02
'0:07.828',-4.88
'0:07.832',-3.76
'0:07.836',-2.96
'0:07.840',-2.29
'0:07.844',-1.68
'0:07.848',-1.22
'0:07.852',-0.98
'0:07.855',-0.92
'0:07.859',-0.79
'0:07.863',-0.7
'0:07.867',-0.69
'0:07.871',-0.38
'0:07.875',0.03
'0:07.879',0.26
'0:07.883',0.53
'0:07.887',0.97
'0:07.891',1.57
'0:07.895',2.01
'0:07.898',2.45
'0:07.902',2.79
'0:07.906',3.06
'0:07.910',3.1
'0:07.914',3.23
'0:07.918',3.36
'0:07.922',3.46
'0:07.926',3.49
'0:07.930',3.31
'0:07.934',2.68
'0:07.938',1.99
'0:07.941',1.28
'0:07.945',0.77
'0:07.949',0.51
'0:07.953',0.44
'0:07.957',0.21
'0:07.961',-0.11
'0:07.965',-0.42
'0:07.969',-0.59
'0:07.973',-0.36
'0:07.977',-0.27
'0:07.980',-0.74
'0:07.984',-0.98
'0:07.988',-0.62
'0:07.992',-0.23
'0:07.996',0.1
'0:08.000',0.6
'0:08.004',0.77
'0:08.008',0.87
'0:08.012',0.62
'0:08.016',0.35
'0:08.020',0.25
'0:08.023',0.13
'0:08.027',-0.17
'0:08.031',-0.11
'0:08.035',0.05
'0:08.039',-0.09
'0:08.043',-0.18
'0:08.047',-0.73
'0:08.051',-0.67
'0:08.055',-0.37
'0:08.059',-0.38
'0:08.063',-0.79
'0:08.066',-0.96
'0:08.070',-0.3
'0:08.074',0.25
'0:08.078',0.18
'0:08.082',-0.02
'0:08.086',-0.67
'0:08.090',-1.12
'0:08.094',-1.36
'0:08.098',0
'0:08.102',2.89
'0:08.105',6.65
'0:08.109',10.31
'0:08.113',12.24
'0:08.117',11.47
'0:08.121',7.88
'0:08.125',2.28
'0:08.129',-2.96
'0:08.133',-6.39
'0:08.137',-7.89
'0:08.141',-8.26
'0:08.145',-7.69
'0:08.148',-6.64
'0:08.152',-5.35
'0:08.156',-3.46
'0:08.160',-1.91
'0:08.164',-0.8
'0:08.168',-0.59
'0:08.172',-0.77
'0:08.176',-0.54
'0:08.180',-0.04
'0:08.184',0.18
'0:08.188',0.69
'0:08.191',1.23
'0:08.195',1.14
'0:08.199',1.14
'0:08.203',1.12
'0:08.207',1.34
'0:08.211',2.21
'0:08.215',3.07
'0:08.219',3.5
'0:08.223',3.35
'0:08.227',3.08
'0:08.230',3.43
'0:08.234',3.67
'0:08.238',3.72
'0:08.242',3.55
'0:08.246',3.4
'0:08.250',3.41
'0:08.254',3.63
'0:08.258',3.49
'0:08.262',2.94
'0:08.266',2.38
'0:08.270',1.58
'0:08.273',1.14
'0:08.277',1.11
'0:08.281',0.82
'0:08.285',0.34
'0:08.289',0
'0:08.293',0.11
'0:08.297',0.64
'0:08.301',1.38
'0:08.305',1.64
'0:08.309',1.87
'0:08.313',1.83
'0:08.316',1.3
'0:08.320',1.15
'0:08.324',0.94
'0:08.328',0.4
'0:08.332',0.26
'0:08.336',0.63
'0:08.340',0.72
'0:08.344',0.56
'0:08.348',0.2
'0:08.352',-0.5
'0:08.355',-0.9
'0:08.359',-1.13
'0:08.363',-1.52
'0:08.367',-2.07
'0:08.371',-2.95
'0:08.375',-3.44
'0:08.379',-3.29
'0:08.383',-2.63
'0:08.387',-2.32
'0:08.391',-2.54
'0:08.395',-2.97
'0:08.398',-3.07
'0:08.402',-3.15
'0:08.406',-3.07
'0:08.410',-2.96
'0:08.414',-2.6
'0:08.418',-1.75
'0:08.422',-0.12
'0:08.426',2.55
'0:08.430',6.26
'0:08.434',10.26
'0:08.438',12.68
'0:08.441',12.8
'0:08.445',9.98
'0:08.449',5.02
'0:08.453',-0.65
'0:08.457',-5.26
'0:08.461',-8.44
'0:08.465',-9.67
'0:08.469',-9.09
'0:08.473',-7.36
'0:08.477',-5.54
'0:08.480',-4.24
'0:08.484',-3.2
'0:08.488',-2.27
'0:08.492',-1.48
'0:08.496',-0.93
'0:08.500',-0.71
'0:08.504',-0.3
'0:08.508',0.01
'0:08.512',0.21
'0:08.516',0.4
'0:08.520',0.52
'0:08.523',0.68
'0:08.527',0.78
'0:08.531',0.81
'0:08.535',0.96
'0:08.539',1.1
'0:08.543',1.16
'0:08.547',1.35
'0:08.551',1.7
'0:08.555',2.11
'0:08.559',2.55
'0:08.563',2.86
'0:08.566',3
'0:08.570',2.97
'0:08.574',2.92
'0:08.578',2.64
'0:08.582',2.18
'0:08.586',1.72
'0:08.590',1.2
'0:08.594',0.49
'0:08.598',-0.23
'0:08.602',-0.71
'0:08.605',-0.87
'0:08.609',-0.96
'0:08.613',-1.07
'0:08.617',-1.24
'0:08.621',-1.16
'0:08.625',-0.97
'0:08.629',-0.88
'0:08.633',-0.75
'0:08.637',-0.46
'0:08.641',-0.14
'0:08.645',0.14
'0:08.648',0.29
'0:08.652',0.2
'0:08.656',0.13
'0:08.660',0.13
'0:08.664',0.15
'0:08.668',0.1
'0:08.672',0.05
'0:08.676',-0.3
'0:08.680',-0.87
'0:08.684',-1.53
'0:08.688',-2.14
'0:08.691',-2.63
'0:08.695',-3.05
'0:08.699',-3.33
'0:08.703',-3.47
'0:08.707',-3.53
'0:08.711',-3.57
'0:08.715',-3.58
'0:08.719',-3.63
'0:08.723',-3.66
'0:08.727',-3.69
'0:08.730',-3.83
'0:08.734',-4.02
'0:08.738',-4.06
'0:08.742',-3.62
'0:08.746',-2.6
'0:08.750',-0.44
'0:08.754',3.03
'0:08.758',7.47
'0:08.762',11.38
'0:08.766',12.9
'0:08.770',11.67
'0:08.773',7.69
'0:08.777',1.87
'0:08.781',-3.61
'0:08.785',-7.57
'0:08.789',-9.91
'0:08.793',-10.51
'0:08.797',-9.71
'0:08.801',-8.09
'0:08.805',-6.46
'0:08.809',-5.13
'0:08.813',-4.02
'0:08.816',-3.24
'0:08.820',-2.87
'0:08.824',-2.31
'0:08.828',-1.66
'0:08.832',-1.37
'0:08.836',-1.17
'0:08.840',-1.02
'0:08.844',-1.03
'0:08.848',-0.37
'0:08.852',0.25
'0:08.855',0.43
'0:08.859',0.46
'0:08.863',0.43
'0:08.867',0.66
'0:08.871',1.1
'0:08.875',2.32
'0:08.879',2.98
'0:08.883',3.18
'0:08.887',3.14
'0:08.891',2.96
'0:08.895',3.08
'0:08.898',3.25
'0:08.902',3.15
'0:08.906',3.02
'0:08.910',2.74
'0:08.914',2.72
'0:08.918',2.26
'0:08.922',1.27
'0:08.926',0.44
'0:08.930',-0.23
'0:08.934',-0.61
'0:08.938',-0.6
'0:08.941',-0.46
'0:08.945',-0.33
'0:08.949',-0.98
'0:08.953',-1.48
'0:08.957',-1.25
'0:08.961',-0.68
'0:08.965',0.38
'0:08.969',1.33
'0:08.973',1.49
'0:08.977',1.5
'0:08.980',1.65
'0:08.984',1.75
'0:08.988',1.4
'0:08.992',1.11
'0:08.996',0.84
'0:09.000',0.5
'0:09.004',0.14
'0:09.008',-0.24
'0:09.012',-0.79
'0:09.016',-1.25
'0:09.020',-1.47
'0:09.023',-1.74
'0:09.027',-2.06
'0:09.031',-2.32
'0:09.035',-2.51
'0:09.039',-2.68
'0:09.043',-2.64
'0:09.047',-2.64
'0:09.051',-2.65
'0:09.055',-2.86
'0:09.059',-3.23
'0:09.063',-3.4
'0:09.066',-3.11
'0:09.070',-2.25
'0:09.074',-0.37
'0:09.078',2.52
'0:09.082',6.2
'0:09.086',9.99
'0:09.090',12.35
'0:09.094',11.9
'0:09.098',8.47
'0:09.102',3.05
'0:09.105',-2.21
'0:09.109',-5.89
'0:09.113',-8.04
'0:09.117',-8.82
'0:09.121',-8.31
'0:09.125',-6.95
'0:09.129',-5.51
'0:09.133',-4.34
'0:09.137',-3.38
'0:09.141',-2.77
'0:09.145',-2.45
'0:09.148',-2.33
'0:09.152',-2.4
'0:09.156',-2.26
'0:09.160',-2.12
'0:09.164',-1.91
'0:09.168',-1.55
'0:09.172',-1.3
'0:09.176',-1.05
'0:09.180',-0.71
'0:09.184',-0.4
'0:09.188',-0.3
'0:09.191',-0.26
'0:09.195',-0.08
'0:09.199',0.41
'0:09.203',1.07
'0:09.207',1.9
'0:09.211',2.19
'0:09.215',1.9
'0:09.219',1.95
'0:09.223',1.99
'0:09.227',1.86
'0:09.230',1.99
'0:09.234',2.11
'0:09.238',2.22
'0:09.242',2.03
'0:09.246',1.69
'0:09.250',1.23
'0:09.254',0.79
'0:09.258',0.69
'0:09.262',0.62
'0:09.266',0.46
'0:09.270',0.48
'0:09.273',0.6
'0:09.277',0.87
'0:09.281',1.11
'0:09.285',1.23
'0:09.289',1.27
'0:09.293',1.32
'0:09.297',1.47
'0:09.301',1.82
'0:09.305',2.09
'0:09.309',2.07
'0:09.313',1.81
'0:09.316',1.36
'0:09.320',1.04
'0:09.324',0.77
'0:09.328',0.14
'0:09.332',-0.61
'0:09.336',-1.34
'0:09.340',-1.91
'0:09.344',-2.38
'0:09.348',-2.91
'0:09.352',-3.29
'0:09.355',-3.68
'0:09.359',-3.8
'0:09.363',-3.82
'0:09.367',-3.75
'0:09.371',-3.7
'0:09.375',-3.66
'0:09.379',-3.69
'0:09.383',-3.7
'0:09.387',-3.4
'0:09.391',-2.89
'0:09.395',-2.2
'0:09.398',-0.95
'0:09.402',1.41
'0:09.406',4.82
'0:09.410',8.72
'0:09.414',12
'0:09.418',13.15
'0:09.422',11.34
'0:09.426',6.81
'0:09.430',0.86
'0:09.434',-3.96
'0:09.438',-6.92
'0:09.441',-8.37
'0:09.445',-8.65
'0:09.449',-7.86
'0:09.453',-6.52
'0:09.457',-5.21
'0:09.461',-4.15
'0:09.465',-3.34
'0:09.469',-2.73
'0:09.473',-2.11
'0:09.477',-1.77
'0:09.480',-1.57
'0:09.484',-1.27
'0:09.488',-0.98
'0:09.492',-0.77
'0:09.496',-0.63
'0:09.500',-0.55
'0:09.504',-0.35
'0:09.508',-0.09
'0:09.512',0.4
'0:09.516',0.92
'0:09.520',1.36
'0:09.523',1.7
'0:09.527',2.07
'0:09.531',2.38
'0:09.535',2.62
'0:09.539',2.82
'0:09.543',2.93
'0:09.547',3.04
'0:09.551',3.05
'0:09.555',2.91
'0:09.559',2.57
'0:09.563',2.13
'0:09.566',1.68
'0:09.570',1.18
'0:09.574',0.8
'0:09.578',0.59
'0:09.582',0.18
'0:09.586',-0.28
'0:09.590',-0.57
'0:09.594',-0.56
'0:09.598',-0.51
'0:09.602',-0.3
'0:09.605',0.04
'0:09.609',0.33
'0:09.613',0.2
'0:09.617',0.47
'0:09.621',0.91
'0:09.625',1.05
'0:09.629',1.04
'0:09.633',1.27
'0:09.637',1.67
'0:09.641',1.59
'0:09.645',1.5
'0:09.648',1.3
'0:09.652',1.22
'0:09.656',1.03
'0:09.660',0.96
'0:09.664',1.01
'0:09.668',0.9
'0:09.672',0.7
'0:09.676',-0.01
'0:09.680',-1.04
'0:09.684',-1.87
'0:09.688',-2.3
'0:09.691',-2.72
'0:09.695',-3.02
'0:09.699',-3.07
'0:09.703',-2.7
'0:09.707',-2.71
'0:09.711',-2.85
'0:09.715',-3.05
'0:09.719',-3.08
'0:09.723',-2.59
'0:09.727',-0.75
'0:09.730',2.45
'0:09.734',6.4
'0:09.738',10.06
'0:09.742',12.2
'0:09.746',12.31
'0:09.750',9.82
'0:09.754',4.36
'0:09.758',-1.46
'0:09.762',-5.51
'0:09.766',-7.41
'0:09.770',-7.58
'0:09.773',-6.73
'0:09.777',-5.45
'0:09.781',-3.99
'0:09.785',-2.74
'0:09.789',-2.02
'0:09.793',-1.5
'0:09.797',-1
'0:09.801',-0.25
'0:09.805',0.24
'0:09.809',0.29
'0:09.813',-0.11
'0:09.816',-0.18
'0:09.820',0.32
'0:09.824',0.61
'0:09.828',0.4
'0:09.832',0.08
'0:09.836',0.52
'0:09.840',1.14
'0:09.844',1.72
'0:09.848',2.43
'0:09.852',2.58
'0:09.855',2.35
'0:09.859',2.54
'0:09.863',3.33
'0:09.867',4.18
'0:09.871',4.67
'0:09.875',4.88
'0:09.879',4.45
'0:09.883',3.63
'0:09.887',2.89
'0:09.891',2.4
'0:09.895',2.31
'0:09.898',2.77
'0:09.902',2.88
'0:09.906',2.68
'0:09.910',2.04
'0:09.914',1.03
'0:09.918',0.67
'0:09.922',0.53
'0:09.926',0.34
'0:09.930',0.55
'0:09.934',1.23
'0:09.938',1.77
'0:09.941',1.87
'0:09.945',1.78
'0:09.949',1.46
'0:09.953',1.09
'0:09.957',0.97
'0:09.961',0.89
'0:09.965',0.74
'0:09.969',0.23
'0:09.973',0.11
'0:09.977',0.07
'0:09.980',-0.29
'0:09.984',-1.08
'0:09.988',-2
'0:09.992',-2.6
'0:09.996',-2.8
'0:10.000',-2.94
'0:10.004',-2.85
'0:10.008',-2.46
'0:10.012',-2.3
'0:10.016',-2.18
'0:10.020',-1.97
'0:10.023',-1.82
'0:10.027',-1.9
'0:10.031',-1.93
'0:10.035',-2.29
'0:10.039',-2.82
'0:10.043',-3.21
'0:10.047',-2.91
'0:10.051',-1.72
'0:10.055',1.18
'0:10.059',5.25
'0:10.063',9.55
'0:10.066',12.65
'0:10.070',13.31
'0:10.074',10.95
'0:10.078',6.05
'0:10.082',0.19
'0:10.086',-4.45
'0:10.090',-7.31
'0:10.094',-8.44
'0:10.098',-8.27
'0:10.102',-7.02
'0:10.105',-5.45
'0:10.109',-4.12
'0:10.113',-3.03
'0:10.117',-2.23
'0:10.121',-1.71
'0:10.125',-1.43
'0:10.129',-1.23
'0:10.133',-1.01
'0:10.137',-0.78
'0:10.141',-0.6
'0:10.145',-0.56
'0:10.148',-0.65
'0:10.152',-0.67
'0:10.156',-0.5
'0:10.160',-0.38
'0:10.164',-0.17
'0:10.168',0.14
'0:10.172',0.51
'0:10.176',0.89
'0:10.180',1.13
'0:10.184',1.28
'0:10.188',1.61
'0:10.191',2.08
'0:10.195',2.48
'0:10.199',2.86
'0:10.203',3
'0:10.207',3
'0:10.211',2.87
'0:10.215',2.57
'0:10.219',2.2
'0:10.223',1.87
'0:10.227',1.63
'0:10.230',1.41
'0:10.234',1.03
'0:10.238',0.47
'0:10.242',0.37
'0:10.246',-0.5
'0:10.250',-0.61
'0:10.254',-0.73
'0:10.258',-0.85
'0:10.262',-0.98
'0:10.266',-1.09
'0:10.270',-1.01
'0:10.273',-0.64
'0:10.277',-0.22
'0:10.281',-0.03
'0:10.285',0.18
'0:10.289',0.33
'0:10.293',0.29
'0:10.297',-0.07
'0:10.301',-0.69
'0:10.305',-1.33
'0:10.309',-1.86
'0:10.313',-2.34
'0:10.316',-2.74
'0:10.320',-3.11
'0:10.324',-3.47
'0:10.328',-3.8
'0:10.332',-3.88
'0:10.336',-3.75
'0:10.340',-3.64
'0:10.344',-3.56
'0:10.348',-3.49
'0:10.352',-3.41
'0:10.355',-3.54
'0:10.359',-3.92
'0:10.363',-4.3
'0:10.367',-4.12
'0:10.371',-3.19
'0:10.375',-1.07
'0:10.379',2.27
'0:10.383',6.16
'0:10.387',10.1
'0:10.391',12.28
'0:10.395',11.65
'0:10.398',8.44
'0:10.402',3.25
'0:10.406',-2.47
'0:10.410',-6.73
'0:10.414',-9.26
'0:10.418',-10.02
'0:10.422',-9.22
'0:10.426',-7.55
'0:10.430',-5.65
'0:10.434',-4.2
'0:10.438',-3.33
'0:10.441',-2.64
'0:10.445',-2.19
'0:10.449',-1.46
'0:10.453',-1.11
'0:10.457',-1.05
'0:10.461',-0.77
'0:10.465',-0.24
'0:10.469',0.08
'0:10.473',0.63
'0:10.477',1.18
'0:10.480',1.55
'0:10.484',1.91
'0:10.488',1.7
'0:10.492',1.26
'0:10.496',1.07
'0:10.500',0.98
'0:10.504',0.87
'0:10.508',0.83
'0:10.512',1.15
'0:10.516',2.04
'0:10.520',2.77
'0:10.523',3.15
'0:10.527',3.39
'0:10.531',3.38
'0:10.535',3.1
'0:10.539',2.54
'0:10.543',1.59
'0:10.547',0.76
'0:10.551',0.65
'0:10.555',0.88
'0:10.559',0.58
'0:10.563',0.23
'0:10.566',0.42
'0:10.570',0.61
'0:10.574',0.62
'0:10.578',0.46
'0:10.582',0.52
'0:10.586',0.63
'0:10.590',0.84
'0:10.594',1.14
'0:10.598',1.4
'0:10.602',1.47
'0:10.605',1.58
'0:10.609',1.63
'0:10.613',1.6
'0:10.617',1.54
'0:10.621',1.63
'0:10.625',1.22
'0:10.629',0.63
'0:10.633',-0.04
'0:10.637',-0.73
'0:10.641',-1.55
'0:10.645',-2.31
'0:10.648',-2.66
'0:10.652',-2.89
'0:10.656',-2.85
'0:10.660',-2.91
'0:10.664',-3.07
'0:10.668',-3.16
'0:10.672',-2.99
'0:10.676',-2.71
'0:10.680',-2.76
'0:10.684',-2.88
'0:10.688',-3.1
'0:10.691',-3.28
'0:10.695',-2.88
'0:10.699',-1.45
'0:10.703',1.13
'0:10.707',4.73
'0:10.711',8.37
'0:10.715',11.01
'0:10.719',11.39
'0:10.723',8.89
'0:10.727',4.55
'0:10.730',-0.69
'0:10.734',-5.06
'0:10.738',-7.87
'0:10.742',-9.23
'0:10.746',-9.55
'0:10.750',-9.02
'0:10.754',-7.67
'0:10.758',-6.02
'0:10.762',-4.6
'0:10.766',-3.74
'0:10.770',-3.43
'0:10.773',-3.07
'0:10.777',-2.38
'0:10.781',-1.96
'0:10.785',-1.69
'0:10.789',-1.48
'0:10.793',-1.12
'0:10.797',-0.74
'0:10.801',-0.4
'0:10.805',-0.32
'0:10.809',-0.43
'0:10.813',-0.48
'0:10.816',-0.4
'0:10.820',-0.03
'0:10.824',0.49
'0:10.828',1.04
'0:10.832',1.62
'0:10.836',2.08
'0:10.840',2.33
'0:10.844',2.92
'0:10.848',3.53
'0:10.852',3.63
'0:10.855',3.39
'0:10.859',3.06
'0:10.863',2.7
'0:10.867',2.46
'0:10.871',2.18
'0:10.875',1.97
'0:10.879',1.7
'0:10.883',1.45
'0:10.887',1
'0:10.891',0.56
'0:10.895',0.45
'0:10.898',0.38
'0:10.902',0.26
'0:10.906',0.08
'0:10.910',-0.15
'0:10.914',-0.19
'0:10.918',-0.16
'0:10.922',-0.15
'0:10.926',-0.01
'0:10.930',0.24
'0:10.934',0.45
'0:10.938',0.52
'0:10.941',0.38
'0:10.945',0.15
'0:10.949',-0.2
'0:10.953',-0.7
'0:10.957',-1.18
'0:10.961',-1.67
'0:10.965',-2.23
'0:10.969',-2.53
'0:10.973',-2.42
'0:10.977',-2.25
'0:10.980',-2.26
'0:10.984',-2.3
'0:10.988',-2.48
'0:10.992',-2.44
'0:10.996',-2.17
'0:11.000',-1.95
'0:11.004',-1.92
'0:11.008',-1.98
'0:11.012',-2.12
'0:11.016',-2.28
'0:11.020',-2.02
'0:11.023',-1.03
'0:11.027',0.8
'0:11.031',3.71
'0:11.035',7.48
'0:11.039',11.35
'0:11.043',13.44
'0:11.047',12.44
'0:11.051',8.54
'0:11.055',2.64
'0:11.059',-2.88
'0:11.063',-6.37
'0:11.066',-8.1
'0:11.070',-8.55
'0:11.074',-7.87
'0:11.078',-6.46
'0:11.082',-5.03
'0:11.086',-4.03
'0:11.090',-3.48
'0:11.094',-3
'0:11.098',-2.58
'0:11.102',-2.1
'0:11.105',-1.68
'0:11.109',-1.37
'0:11.113',-1.14
'0:11.117',-0.94
'0:11.121',-0.77
'0:11.125',-0.49
'0:11.129',-0.22
'0:11.133',0.05
'0:11.137',0.35
'0:11.141',0.64
'0:11.145',0.82
'0:11.148',1.2
'0:11.152',1.75
'0:11.156',2.18
'0:11.160',2.51
'0:11.164',2.91
'0:11.168',3.18
'0:11.172',3.37
'0:11.176',3.56
'0:11.180',3.37
'0:11.184',2.81
'0:11.188',2.21
'0:11.191',1.92
'0:11.195',1.57
'0:11.199',1.18
'0:11.203',0.82
'0:11.207',0.23
'0:11.211',-0.39
'0:11.215',-0.62
'0:11.219',-0.3
'0:11.223',0.33
'0:11.227',1.03
'0:11.230',1.33
'0:11.234',1.38
'0:11.238',1.43
'0:11.242',1.75
'0:11.246',2.16
'0:11.250',2.46
'0:11.254',2.74
'0:11.258',3.1
'0:11.262',3.63
'0:11.266',3.91
'0:11.270',3.81
'0:11.273',3.37
'0:11.277',3.02
'0:11.281',2.17
'0:11.285',0.91
'0:11.289',0.07
'0:11.293',-0.53
'0:11.297',-1.7
'0:11.301',-2.96
'0:11.305',-3.34
'0:11.309',-3.38
'0:11.313',-3.21
'0:11.316',-3
'0:11.320',-2.64
'0:11.324',-2.23
'0:11.328',-2.14
'0:11.332',-2.17
'0:11.336',-2.06
'0:11.340',-1.91
'0:11.344',-1.73
'0:11.348',-1.29
'0:11.352',-0.29
'0:11.355',1.93
'0:11.359',5.22
'0:11.363',9.31
'0:11.367',12.08
'0:11.371',12.78
'0:11.375',11.43
'0:11.379',7.4
'0:11.383',1.65
'0:11.387',-3.12
'0:11.391',-6.07
'0:11.395',-7.33
'0:11.398',-7.41
'0:11.402',-6.45
'0:11.406',-5.14
'0:11.410',-4.1
'0:11.414',-3.05
'0:11.418',-2
'0:11.422',-1.31
'0:11.426',-1.32
'0:11.430',-1.55
'0:11.434',-1.29
'0:11.438',-0.6
'0:11.441',-0.3
'0:11.445',-0.15
'0:11.449',0.05
'0:11.453',0.08
'0:11.457',0.07
'0:11.461',0.27
'0:11.465',0.69
'0:11.469',1.25
'0:11.473',1.66
'0:11.477',2.15
'0:11.480',2.7
'0:11.484',3.03
'0:11.488',3.36
'0:11.492',3.54
'0:11.496',3.55
'0:11.500',3.8
'0:11.504',3.99
'0:11.508',3.96
'0:11.512',3.41
'0:11.516',2.55
'0:11.520',2.22
'0:11.523',2.27
'0:11.527',2.32
'0:11.531',2.15
'0:11.535',1.64
'0:11.539',1
'0:11.543',0.44
'0:11.547',-0.14
'0:11.551',-0.79
'0:11.555',-1.01
'0:11.559',-0.47
'0:11.563',0.2
'0:11.566',0.47
'0:11.570',0.38
'0:11.574',0.72
'0:11.578',0.86
'0:11.582',0.08
'0:11.586',-0.43
'0:11.590',-0.23
'0:11.594',-0.12
'0:11.598',-0.03
'0:11.602',0.11
'0:11.605',0.22
'0:11.609',-0.1
'0:11.613',-1.13
'0:11.617',-1.95
'0:11.621',-2.21
'0:11.625',-1.98
'0:11.629',-1.55
'0:11.633',-1.61
'0:11.637',-2.24
'0:11.641',-2.59
'0:11.645',-2.52
'0:11.648',-2.37
'0:11.652',-2.13
'0:11.656',-1.79
'0:11.660',-1.84
'0:11.664',-2.2
'0:11.668',-2.31
'0:11.672',-2.01
'0:11.676',-1.17
'0:11.680',0.74
'0:11.684',3.86
'0:11.688',7.69
'0:11.691',11.32
'0:11.695',13
'0:11.699',12.01
'0:11.703',8.4
'0:11.707',3.02
'0:11.711',-2.22
'0:11.715',-6.04
'0:11.719',-8.19
'0:11.723',-8.93
'0:11.727',-8.47
'0:11.730',-7.18
'0:11.734',-5.71
'0:11.738',-4.54
'0:11.742',-3.68
'0:11.746',-3.05
'0:11.750',-2.58
'0:11.754',-2.15
'0:11.758',-1.79
'0:11.762',-1.55
'0:11.766',-1.42
'0:11.770',-1.36
'0:11.773',-1.25
'0:11.777',-1.19
'0:11.781',-1.23
'0:11.785',-1.19
'0:11.789',-0.98
'0:11.793',-0.77
'0:11.797',-0.36
'0:11.801',0.1
'0:11.805',0.56
'0:11.809',1.09
'0:11.813',1.52
'0:11.816',2.08
'0:11.820',2.7
'0:11.824',3.14
'0:11.828',3.47
'0:11.832',3.68
'0:11.836',3.7
'0:11.840',3.45
'0:11.844',2.85
'0:11.848',2.2
'0:11.852',1.7
'0:11.855',1.19
'0:11.859',0.48
'0:11.863',-0.16
'0:11.867',-0.6
'0:11.871',-0.94
'0:11.875',-1.13
'0:11.879',-1.22
'0:11.883',-1.29
'0:11.887',-1.2
'0:11.891',-0.98
'0:11.895',-0.79
'0:11.898',-0.52
'0:11.902',-0.29
'0:11.906',-0.13
'0:11.910',0.01
'0:11.914',0.21
'0:11.918',0.25
'0:11.922',0.09
'0:11.926',-0.22
'0:11.930',-0.43
'0:11.934',-0.69
'0:11.938',-1.17
'0:11.941',-1.86
'0:11.945',-2.51
'0:11.949',-2.94
'0:11.953',-3.32
'0:11.957',-3.54
'0:11.961',-3.71
'0:11.965',-3.82
'0:11.969',-3.75
'0:11.973',-3.82
'0:11.977',-3.99
'0:11.980',-4.1
'0:11.984',-4.03
'0:11.988',-3.97
'0:11.992',-4.16
'0:11.996',-4.42
'0:12.000',-4.22
'0:12.004',-3.08
'0:12.008',-0.91
'0:12.012',2.31
'0:12.016',6.22
'0:12.020',9.93
'0:12.023',11.8
'0:12.027',11.28
'0:12.031',8.06
'0:12.035',2.78
'0:12.039',-2.99
'0:12.043',-6.94
'0:12.047',-9.19
'0:12.051',-10.14
'0:12.055',-9.84
'0:12.059',-8.46
'0:12.063',-6.68
'0:12.066',-4.99
'0:12.070',-4.03
'0:12.074',-3.24
'0:12.078',-2.26
'0:12.082',-1.68
'0:12.086',-1.86
'0:12.090',-2.03
'0:12.094',-1.85
'0:12.098',-1.18
'0:12.102',-0.79
'0:12.105',-0.59
'0:12.109',-0.17
'0:12.113',-0.01
'0:12.117',0.35
'0:12.121',0.72
'0:12.125',0.85
'0:12.129',0.88
'0:12.133',0.96
'0:12.137',1.04
'0:12.141',1.5
'0:12.145',2.55
'0:12.148',3.06
'0:12.152',2.91
'0:12.156',2.93
'0:12.160',2.9
'0:12.164',2.55
'0:12.168',2.34
'0:12.172',2.45
'0:12.176',2.54
'0:12.180',2.33
'0:12.184',1.76
'0:12.188',0.98
'0:12.191',0.51
'0:12.195',0.53
'0:12.199',0.48
'0:12.203',0.29
'0:12.207',0.07
'0:12.211',-0.08
'0:12.215',-0.08
'0:12.219',0.24
'0:12.223',0.62
'0:12.227',0.82
'0:12.230',1.11
'0:12.234',1.53
'0:12.238',1.62
'0:12.242',1.53
'0:12.246',1.36
'0:12.250',1.23
'0:12.254',0.92
'0:12.258',0.39
'0:12.262',0.07
'0:12.266',-0.36
'0:12.270',-0.97
'0:12.273',-1.57
'0:12.277',-1.95
'0:12.281',-2.14
'0:12.285',-2.23
'0:12.289',-2.31
'0:12.293',-2.22
'0:12.297',-2.28
'0:12.301',-2.46
'0:12.305',-2.62
'0:12.309',-2.39
'0:12.313',-2.12
'0:12.316',-2.13
'0:12.320',-2.47
'0:12.324',-2.64
'0:12.328',-2.36
'0:12.332',-1.27
'0:12.336',0.67
'0:12.340',3.52
'0:12.344',7.39
'0:12.348',10.58
'0:12.352',11.73
'0:12.355',9.78
'0:12.359',5.04
'0:12.363',-0.75
'0:12.367',-5.26
'0:12.371',-8.03
'0:12.375',-9.38
'0:12.379',-9.37
'0:12.383',-8.48
'0:12.387',-6.99
'0:12.391',-5.69
'0:12.395',-4.44
'0:12.398',-3.62
'0:12.402',-3.01
'0:12.406',-2.57
'0:12.410',-2.13
'0:12.414',-1.96
'0:12.418',-1.61
'0:12.422',-1.35
'0:12.426',-1.26
'0:12.430',-0.96
'0:12.434',-0.69
'0:12.438',-0.26
'0:12.441',-0.19
'0:12.445',0.02
'0:12.449',0.34
'0:12.453',0.82
'0:12.457',1.46
'0:12.461',2.2
'0:12.465',2.93
'0:12.469',3.39
'0:12.473',3.57
'0:12.477',3.69
'0:12.480',3.99
'0:12.484',3.87
'0:12.488',3.71
'0:12.492',3.8
'0:12.496',3.65
'0:12.500',3.14
'0:12.504',2.65
'0:12.508',2.18
'0:12.512',1.8
'0:12.516',1.18
'0:12.520',0.48
'0:12.523',-0.2
'0:12.527',-0.45
'0:12.531',-0.43
'0:12.535',-0.46
'0:12.539',-0.49
'0:12.543',-0.52
'0:12.547',-0.59
'0:12.551',-0.55
'0:12.555',-0.36
'0:12.559',-0.29
'0:12.563',-0.24
'0:12.566',-0.21
'0:12.570',-0.26
'0:12.574',-0.24
'0:12.578',0.05
'0:12.582',0.41
'0:12.586',0.39
'0:12.590',-0.07
'0:12.594',-0.61
'0:12.598',-1.06
'0:12.602',-1.34
'0:12.605',-1.46
'0:12.609',-1.54
'0:12.613',-1.71
'0:12.617',-1.81
'0:12.621',-1.85
'0:12.625',-1.82
'0:12.629',-1.72
'0:12.633',-1.48
'0:12.637',-1.42
'0:12.641',-1.68
'0:12.645',-2.31
'0:12.648',-2.81
'0:12.652',-2.72
'0:12.656',-1.8
'0:12.660',0.27
'0:12.664',3.36
'0:12.668',7.12
'0:12.672',10.69
'0:12.676',12.75
'0:12.680',12.27
'0:12.684',9.14
'0:12.688',4.06
'0:12.691',-1.31
'0:12.695',-5.26
'0:12.699',-7.46
'0:12.703',-8.27
'0:12.707',-8.08
'0:12.711',-7.05
'0:12.715',-5.64
'0:12.719',-4.42
'0:12.723',-3.54
'0:12.727',-2.74
'0:12.730',-2.1
'0:12.734',-1.76
'0:12.738',-1.47
'0:12.742',-1.28
'0:12.746',-1
'0:12.750',-0.61
'0:12.754',-0.26
'0:12.758',-0.16
'0:12.762',-0.22
'0:12.766',-0.23
'0:12.770',0
'0:12.773',0.42
'0:12.777',0.89
'0:12.781',1.47
'0:12.785',2.17
'0:12.789',3.06
'0:12.793',3.29
'0:12.797',2.86
'0:12.801',2.73
'0:12.805',2.84
'0:12.809',3.24
'0:12.813',3.91
'0:12.816',3.7
'0:12.820',2.92
'0:12.824',2.01
'0:12.828',1.48
'0:12.832',1.35
'0:12.836',1.27
'0:12.840',1.12
'0:12.844',0.83
'0:12.848',0.39
'0:12.852',0.02
'0:12.855',0.52
'0:12.859',1.8
'0:12.863',1.92
'0:12.867',1.11
'0:12.871',0.97
'0:12.875',1.21
'0:12.879',1.38
'0:12.883',1.98
'0:12.887',3.05
'0:12.891',3.66
'0:12.895',3.1
'0:12.898',2.23
'0:12.902',1.54
'0:12.906',1.19
'0:12.910',0.83
'0:12.914',0.23
'0:12.918',-0.45
'0:12.922',-0.9
'0:12.926',-1.1
'0:12.930',-1.42
'0:12.934',-1.43
'0:12.938',-1.07
'0:12.941',-1.09
'0:12.945',-1.71
'0:12.949',-2.48
'0:12.953',-2.58
'0:12.957',-1.84
'0:12.961',-1.37
'0:12.965',-1.15
'0:12.969',-1.31
'0:12.973',-1.97
'0:12.977',-2.45
'0:12.980',-2.05
'0:12.984',-0.62
'0:12.988',2.01
'0:12.992',5.64
'0:12.996',9.53
'0:13.000',12.51
'0:13.004',13.3
'0:13.008',11.56
'0:13.012',7.13
'0:13.016',0.98
'0:13.020',-4.3
'0:13.023',-7.62
'0:13.027',-9.03
'0:13.031',-9.05
'0:13.035',-8.07
'0:13.039',-6.34
'0:13.043',-4.56
'0:13.047',-3.32
'0:13.051',-2.58
'0:13.055',-2.31
'0:13.059',-2.18
'0:13.063',-1.85
'0:13.066',-1.31
'0:13.070',-0.72
'0:13.074',-0.35
'0:13.078',-0.76
'0:13.082',-0.95
'0:13.086',-0.08
'0:13.090',0.64
'0:13.094',0.55
'0:13.098',0.76
'0:13.102',1.4
'0:13.105',1.81
'0:13.109',2.78
'0:13.113',3.7
'0:13.117',3.58
'0:13.121',3.29
'0:13.125',3.48
'0:13.129',3.96
'0:13.133',4.1
'0:13.137',3.64
'0:13.141',3.54
'0:13.145',3.1
'0:13.148',2.17
'0:13.152',1.55
'0:13.156',1.13
'0:13.160',0.85
'0:13.164',0.65
'0:13.168',0.49
'0:13.172',0.31
'0:13.176',0.01
'0:13.180',-0.38
'0:13.184',-0.59
'0:13.188',-0.7
'0:13.191',-0.55
'0:13.195',-0.15
'0:13.199',0.2
'0:13.203',0.3
'0:13.207',0.15
'0:13.211',0.37
'0:13.215',0.69
'0:13.219',0.86
'0:13.223',1.14
'0:13.227',1.45
'0:13.230',1.35
'0:13.234',1.3
'0:13.238',1.13
'0:13.242',0.66
'0:13.246',-0.03
'0:13.250',-0.55
'0:13.254',-0.97
'0:13.258',-1.57
'0:13.262',-1.83
'0:13.266',-2.04
'0:13.270',-2.23
'0:13.273',-2.25
'0:13.277',-2.17
'0:13.281',-1.99
'0:13.285',-1.94
'0:13.289',-1.92
'0:13.293',-2.01
'0:13.297',-2.15
'0:13.301',-2.23
'0:13.305',-2.06
'0:13.309',-1.46
'0:13.313',0.03
'0:13.316',2.76
'0:13.320',6.29
'0:13.324',10.1
'0:13.328',12.67
'0:13.332',12.8
'0:13.336',9.99
'0:13.340',4.8
'0:13.344',-1.1
'0:13.348',-5.76
'0:13.352',-8.76
'0:13.355',-10.18
'0:13.359',-10.22
'0:13.363',-9.17
'0:13.367',-7.67
'0:13.371',-6.3
'0:13.375',-5.35
'0:13.379',-4.62
'0:13.383',-4.11
'0:13.387',-3.83
'0:13.391',-3.44
'0:13.395',-3.09
'0:13.398',-2.89
'0:13.402',-2.63
'0:13.406',-2.23
'0:13.410',-1.67
'0:13.414',-1.07
'0:13.418',-0.52
'0:13.422',-0.23
'0:13.426',0.05
'0:13.430',0.46
'0:13.434',0.93
'0:13.438',1.46
'0:13.441',2.03
'0:13.445',2.72
'0:13.449',3.37
'0:13.453',3.65
'0:13.457',3.64
'0:13.461',3.33
'0:13.465',2.78
'0:13.469',2.43
'0:13.473',2.26
'0:13.477',2.16
'0:13.480',1.81
'0:13.484',1.12
'0:13.488',0.56
'0:13.492',0.05
'0:13.496',-0.32
'0:13.500',-0.56
'0:13.504',-0.81
'0:13.508',-0.89
'0:13.512',-0.92
'0:13.516',-0.92
'0:13.520',-0.86
'0:13.523',-0.7
'0:13.527',-0.55
'0:13.531',-0.4
'0:13.535',-0.16
'0:13.539',0.22
'0:13.543',0.49
'0:13.547',0.43
'0:13.551',0.17
'0:13.555',-0.02
'0:13.559',-0.29
'0:13.563',-0.6
'0:13.566',-0.95
'0:13.570',-1.17
'0:13.574',-1.49
'0:13.578',-2.05
'0:13.582',-2.55
'0:13.586',-2.85
'0:13.590',-3.14
'0:13.594',-3.36
'0:13.598',-3.36
'0:13.602',-3.16
'0:13.605',-2.99
'0:13.609',-3.01
'0:13.613',-2.81
'0:13.617',-3.39
'0:13.621',-3.92
'0:13.625',-3.85
'0:13.629',-3.58
'0:13.633',-3.72
'0:13.637',-2.98
'0:13.641',-1.02
'0:13.645',2.13
'0:13.648',6.08
'0:13.652',10.36
'0:13.656',12.78
'0:13.660',12.59
'0:13.664',9.54
'0:13.668',4.06
'0:13.672',-1.54
'0:13.676',-5.68
'0:13.680',-8.72
'0:13.684',-10.25
'0:13.688',-10.08
'0:13.691',-8.87
'0:13.695',-7.34
'0:13.699',-5.75
'0:13.703',-4.58
'0:13.707',-3.74
'0:13.711',-3.08
'0:13.715',-2.3
'0:13.719',-1.92
'0:13.723',-1.78
'0:13.727',-1.22
'0:13.730',-0.92
'0:13.734',-0.65
'0:13.738',-0.42
'0:13.742',-0.35
'0:13.746',0.15
'0:13.750',0.52
'0:13.754',1.07
'0:13.758',1.95
'0:13.762',2.06
'0:13.766',1.98
'0:13.770',2.18
'0:13.773',2.37
'0:13.777',2.72
'0:13.781',3.19
'0:13.785',3.31
'0:13.789',3.28
'0:13.793',3.36
'0:13.797',3.44
'0:13.801',3.43
'0:13.805',3.39
'0:13.809',3.39
'0:13.813',3.09
'0:13.816',2.26
'0:13.820',1.51
'0:13.824',1.02
'0:13.828',0.69
'0:13.832',0.74
'0:13.836',0.47
'0:13.840',0.19
'0:13.844',0.05
'0:13.848',-0.23
'0:13.852',-0.54
'0:13.855',-0.41
'0:13.859',0.15
'0:13.863',0.78
'0:13.867',1.33
'0:13.871',1.6
'0:13.875',1.61
'0:13.879',1.28
'0:13.883',1.1
'0:13.887',1.22
'0:13.891',1.24
'0:13.895',0.86
'0:13.898',0.41
'0:13.902',-0.23
'0:13.906',-0.93
'0:13.910',-1.62
'0:13.914',-1.95
'0:13.918',-2.14
'0:13.922',-2.37
'0:13.926',-2.64
'0:13.930',-2.95
'0:13.934',-2.93
'0:13.938',-2.88
'0:13.941',-3.02
'0:13.945',-3.05
'0:13.949',-3.2
'0:13.953',-3.44
'0:13.957',-3.59
'0:13.961',-3.13
'0:13.965',-2.17
'0:13.969',-0.36
'0:13.973',2.78
'0:13.977',6.43
'0:13.980',9.96
'0:13.984',11.81
'0:13.988',10.78
'0:13.992',6.97
'0:13.996',1.23
'0:14.000',-3.59
'0:14.004',-6.85
'0:14.008',-8.91
'0:14.012',-9.52
'0:14.016',-8.96
'0:14.020',-7.51
'0:14.023',-5.93
'0:14.027',-4.83
'0:14.031',-3.72
'0:14.035',-2.6
'0:14.039',-1.99
'0:14.043',-1.69
'0:14.047',-1.79
'0:14.051',-1.98
'0:14.055',-2.08
'0:14.059',-1.78
'0:14.063',-1.15
'0:14.066',-0.4
'0:14.070',0.48
'0:14.074',1.07
'0:14.078',1.35
'0:14.082',1.63
'0:14.086',1.97
'0:14.090',2.47
'0:14.094',2.89
'0:14.098',3.01
'0:14.102',3.12
'0:14.105',3.32
'0:14.109',3.55
'0:14.113',3.72
'0:14.117',3.81
'0:14.121',3.43
'0:14.125',2.66
'0:14.129',2.19
'0:14.133',1.54
'0:14.137',0.9
'0:14.141',0.25
'0:14.145',-0.1
'0:14.148',-0.36
'0:14.152',-0.87
'0:14.156',-1.45
'0:14.160',-1.83
'0:14.164',-1.84
'0:14.168',-1.51
'0:14.172',-1.15
'0:14.176',-0.7
'0:14.180',-0.31
'0:14.184',0.13
'0:14.188',0.46
'0:14.191',0.87
'0:14.195',1.36
'0:14.199',1.74
'0:14.203',2.06
'0:14.207',2.11
'0:14.211',1.88
'0:14.215',1.5
'0:14.219',1.07
'0:14.223',0.56
'0:14.227',0.08
'0:14.230',-0.22
'0:14.234',-0.58
'0:14.238',-1.12
'0:14.242',-1.67
'0:14.246',-2.16
'0:14.250',-2.4
'0:14.254',-2.37
'0:14.258',-2.25
'0:14.262',-2.01
'0:14.266',-1.83
'0:14.270',-1.75
'0:14.273',-1.73
'0:14.277',-1.99
'0:14.281',-2.25
'0:14.285',-2.33
'0:14.289',-1.99
'0:14.293',-0.93
'0:14.297',1.41
'0:14.301',4.83
'0:14.305',8.91
'0:14.309',12.39
'0:14.313',13.76
'0:14.316',12.34
'0:14.320',8.13
'0:14.324',2.13
'0:14.328',-3.07
'0:14.332',-6.43
'0:14.336',-8.16
'0:14.340',-8.63
'0:14.344',-7.77
'0:14.348',-6.35
'0:14.352',-4.94
'0:14.355',-3.87
'0:14.359',-3.36
'0:14.363',-3.08
'0:14.367',-2.69
'0:14.371',-2.2
'0:14.375',-1.68
'0:14.379',-1.27
'0:14.383',-0.85
'0:14.387',-0.68
'0:14.391',-0.29
'0:14.395',-0.06
'0:14.398',-0.03
'0:14.402',0.33
'0:14.406',0.88
'0:14.410',1.13
'0:14.414',1.01
'0:14.418',1
'0:14.422',1.17
'0:14.426',1.78
'0:14.430',2.59
'0:14.434',3.49
'0:14.438',3.87
'0:14.441',3.97
'0:14.445',4.04
'0:14.449',4.22
'0:14.453',4.43
'0:14.457',4.57
'0:14.461',4.59
'0:14.465',4.39
'0:14.469',3.9
'0:14.473',3.09
'0:14.477',2.38
'0:14.480',2.13
'0:14.484',1.42
'0:14.488',0.59
'0:14.492',-0.12
'0:14.496',-0.72
'0:14.500',-0.61
'0:14.504',-0.07
'0:14.508',0.52
'0:14.512',1.12
'0:14.516',1.61
'0:14.520',1.71
'0:14.523',1.73
'0:14.527',1.98
'0:14.531',2.1
'0:14.535',2.04
'0:14.539',1.91
'0:14.543',2.07
'0:14.547',2.36
'0:14.551',1.53
'0:14.555',0.6
'0:14.559',0.01
'0:14.563',-0.07
'0:14.566',-0.12
'0:14.570',-0.46
'0:14.574',-0.67
'0:14.578',-0.63
'0:14.582',-0.92
'0:14.586',-1.21
'0:14.590',-1.18
'0:14.594',-1.32
'0:14.598',-1.45
'0:14.602',-1.6
'0:14.605',-2
'0:14.609',-2.43
'0:14.613',-2.46
'0:14.617',-2.46
'0:14.621',-0.84
'0:14.625',1.23
'0:14.629',4.49
'0:14.633',8.6
'0:14.637',12.11
'0:14.641',12.69
'0:14.645',9.9
'0:14.648',4.48
'0:14.652',-1.41
'0:14.656',-5.63
'0:14.660',-7.74
'0:14.664',-8.46
'0:14.668',-8.05
'0:14.672',-7.05
'0:14.676',-6.11
'0:14.680',-5.2
'0:14.684',-4.08
'0:14.688',-2.98
'0:14.691',-2.73
'0:14.695',-2.32
'0:14.699',-1.21
'0:14.703',-0.41
'0:14.707',-0.49
'0:14.711',-0.64
'0:14.715',-0.55
'0:14.719',0.02
'0:14.723',0.86
'0:14.727',1.1
'0:14.730',1.16
'0:14.734',1.1
'0:14.738',0.77
'0:14.742',0.79
'0:14.746',1.27
'0:14.750',1.83
'0:14.754',2.47
'0:14.758',2.96
'0:14.762',3.07
'0:14.766',3.13
'0:14.770',3.35
'0:14.773',3.36
'0:14.777',3.08
'0:14.781',2.55
'0:14.785',1.87
'0:14.789',1.52
'0:14.793',1.24
'0:14.797',1.03
'0:14.801',0.57
'0:14.805',0.1
'0:14.809',-0.38
'0:14.813',-0.6
'0:14.816',-0.5
'0:14.820',-0.01
'0:14.824',0.54
'0:14.828',1
'0:14.832',1.21
'0:14.836',1.27
'0:14.840',1.35
'0:14.844',1.56
'0:14.848',1.71
'0:14.852',1.48
'0:14.855',1.26
'0:14.859',1.22
'0:14.863',1.05
'0:14.867',0.77
'0:14.871',0.56
'0:14.875',0.43
'0:14.879',0.28
'0:14.883',-0.31
'0:14.887',-0.95
'0:14.891',-1.38
'0:14.895',-1.66
'0:14.898',-1.75
'0:14.902',-1.81
'0:14.906',-1.91
'0:14.910',-2.04
'0:14.914',-2.1
'0:14.918',-2.09
'0:14.922',-2.13
'0:14.926',-2.2
'0:14.930',-2.3
'0:14.934',-2.6
'0:14.938',-2.91
'0:14.941',-3.14
'0:14.945',-2.94
'0:14.949',-1.79
'0:14.953',0.71
'0:14.957',4.33
'0:14.961',8.3
'0:14.965',10.81
'0:14.969',10.92
'0:14.973',8.19
'0:14.977',3.18
'0:14.980',-2.62
'0:14.984',-7.28
'0:14.988',-10.09
'0:14.992',-11.13
'0:14.996',-11.03
'0:15.000',-9.84
'0:15.004',-8.1
'0:15.008',-6.35
'0:15.012',-4.95
'0:15.016',-3.92
'0:15.020',-3.18
'0:15.023',-2.71
'0:15.027',-2.36
'0:15.031',-2.04
'0:15.035',-1.77
'0:15.039',-1.65
'0:15.043',-1.6
'0:15.047',-1.37
'0:15.051',-1.01
'0:15.055',-0.75
'0:15.059',-0.49
'0:15.063',-0.04
'0:15.066',0.56
'0:15.070',1.25
'0:15.074',1.69
'0:15.078',1.87
'0:15.082',2.1
'0:15.086',2.3
'0:15.090',2.45
'0:15.094',2.77
'0:15.098',3.09
'0:15.102',3.11
'0:15.105',3
'0:15.109',2.74
'0:15.113',2.26
'0:15.117',1.7
'0:15.121',1.13
'0:15.125',0.64
'0:15.129',0.08
'0:15.133',-0.42
'0:15.137',-0.61
'0:15.141',-0.74
'0:15.145',-0.81
'0:15.148',-1.05
'0:15.152',-1.2
'0:15.156',-1.21
'0:15.160',-1.04
'0:15.164',-0.73
'0:15.168',-0.45
'0:15.172',-0.2
'0:15.176',-0.04
'0:15.180',0.1
'0:15.184',0.25
'0:15.188',0.47
'0:15.191',0.48
'0:15.195',0.21
'0:15.199',0.19
'0:15.203',-0.27
'0:15.207',-0.8
'0:15.211',-1.67
'0:15.215',-2.61
'0:15.219',-3.28
'0:15.223',-3.53
'0:15.227',-3.24
'0:15.230',-3.21
'0:15.234',-3.21
'0:15.238',-3.26
'0:15.242',-3.34
'0:15.246',-3.16
'0:15.250',-2.71
'0:15.254',-3.01
'0:15.258',-3.61
'0:15.262',-4.3
'0:15.266',-4.42
'0:15.270',-4
'0:15.273',-3.06
'0:15.277',-0.98
'0:15.281',2.93
'0:15.285',7.24
'0:15.289',10.54
'0:15.293',11.9
'0:15.297',10.94
'0:15.301',7.82
'0:15.305',2.6
'0:15.309',-2.74
'0:15.313',-6.53
'0:15.316',-9.2
'0:15.320',-10.27
'0:15.324',-9.73
'0:15.328',-8.34
'0:15.332',-6.39
'0:15.336',-4.99
'0:15.340',-4.32
'0:15.344',-3.62
'0:15.348',-3.04
'0:15.352',-2.29
'0:15.355',-1.78
'0:15.359',-1.45
'0:15.363',-0.99
'0:15.367',-0.44
'0:15.371',-0.07
'0:15.375',0.37
'0:15.379',0.68
'0:15.383',1.01
'0:15.387',1.1
'0:15.391',1.1
'0:15.395',1.05
'0:15.398',1.26
'0:15.402',1.61
'0:15.406',2.03
'0:15.410',2.51
'0:15.414',2.93
'0:15.418',3.34
'0:15.422',3.53
'0:15.426',3.54
'0:15.430',3.38
'0:15.434',3.06
'0:15.438',2.58
'0:15.441',2.26
'0:15.445',2.03
'0:15.449',1.46
'0:15.453',0.88
'0:15.457',0.55
'0:15.461',0.4
'0:15.465',0.08
'0:15.469',-0.15
'0:15.473',-0.32
'0:15.477',-0.57
'0:15.480',-0.38
'0:15.484',0.24
'0:15.488',1.1
'0:15.492',1.42
'0:15.496',1.15
'0:15.500',0.81
'0:15.504',0.39
'0:15.508',0.27
'0:15.512',0.54
'0:15.516',0.95
'0:15.520',1.19
'0:15.523',1.05
'0:15.527',0.81
'0:15.531',0.28
'0:15.535',-0.39
'0:15.539',-1.07
'0:15.543',-1.81
'0:15.547',-2.44
'0:15.551',-2.76
'0:15.555',-2.92
'0:15.559',-2.84
'0:15.563',-2.86
'0:15.566',-3.11
'0:15.570',-3.58
'0:15.574',-3.86
'0:15.578',-3.83
'0:15.582',-3.69
'0:15.586',-3.48
'0:15.590',-3.3
'0:15.594',-3.14
'0:15.598',-2.67
'0:15.602',-1.62
'0:15.605',0.49
'0:15.609',3.52
'0:15.613',6.59
'0:15.617',9.94
'0:15.621',12.12
'0:15.625',11.98
'0:15.629',9.09
'0:15.633',4.09
'0:15.637',-1.31
'0:15.641',-5.14
'0:15.645',-7.35
'0:15.648',-7.96
'0:15.652',-7.42
'0:15.656',-6.14
'0:15.660',-4.77
'0:15.664',-3.58
'0:15.668',-2.54
'0:15.672',-1.45
'0:15.676',-0.63
'0:15.680',-0.12
'0:15.684',0.21
'0:15.688',0.5
'0:15.691',0.49
'0:15.695',0.47
'0:15.699',0.38
'0:15.703',0.4
'0:15.707',0.18
'0:15.711',-0.09
'0:15.715',0.04
'0:15.719',0.28
'0:15.723',0.41
'0:15.727',0.54
'0:15.730',0.6
'0:15.734',0.84
'0:15.738',1.21
'0:15.742',1.34
'0:15.746',1.29
'0:15.750',1
'0:15.754',1.08
'0:15.758',1.33
'0:15.762',1.6
'0:15.766',1.73
'0:15.770',1.65
'0:15.773',1.34
'0:15.777',1.05
'0:15.781',0.53
'0:15.785',0.04
'0:15.789',-0.02
'0:15.793',0.01
'0:15.797',0.02
'0:15.801',0.1
'0:15.805',0.21
'0:15.809',0.34
'0:15.813',0.49
'0:15.816',0.54
'0:15.820',0.67
'0:15.824',1.01
'0:15.828',1.09
'0:15.832',0.67
'0:15.836',0.47
'0:15.840',0.89
'0:15.844',1.41
'0:15.848',1.61
'0:15.852',1.75
'0:15.855',1.69
'0:15.859',0.96
'0:15.863',0.03
'0:15.867',-0.96
'0:15.871',-1.66
'0:15.875',-2.14
'0:15.879',-2.29
'0:15.883',-2.29
'0:15.887',-2.2
'0:15.891',-2.09
'0:15.895',-2.18
'0:15.898',-2.37
'0:15.902',-2.64
'0:15.906',-2.75
'0:15.910',-2.93
'0:15.914',-3.13
'0:15.918',-3.19
'0:15.922',-3.02
'0:15.926',-2.25
'0:15.930',-0.63
'0:15.934',2.2
'0:15.938',6.02
'0:15.941',10.22
'0:15.945',12.91
'0:15.949',12.6
'0:15.953',9.76
'0:15.957',4.55
'0:15.961',-1.44
'0:15.965',-5.95
'0:15.969',-8.61
'0:15.973',-9.53
'0:15.977',-9.21
'0:15.980',-8.13
'0:15.984',-6.84
'0:15.988',-5.62
'0:15.992',-4.61
'0:15.996',-3.9
'0:16.000',-3.59
'0:16.004',-3.33
'0:16.008',-3.03
'0:16.012',-2.72
'0:16.016',-2.65
'0:16.020',-2.45
'0:16.023',-1.9
'0:16.027',-1.06
'0:16.031',-0.39
'0:16.035',0.02
'0:16.039',0.89
'0:16.043',1.95
'0:16.047',3.37
'0:16.051',3.81
'0:16.055',3.99
'0:16.059',3.81
'0:16.063',3.16
'0:16.066',2.71
'0:16.070',2.09
'0:16.074',1.53
'0:16.078',1.94
'0:16.082',2.26
'0:16.086',2.3
'0:16.090',2.16
'0:16.094',2.03
'0:16.098',2
'0:16.102',2.11
'0:16.105',1.81
'0:16.109',1.11
'0:16.113',0.69
'0:16.117',0.41
'0:16.121',0.57
'0:16.125',1.19
'0:16.129',1.2
'0:16.133',0.98
'0:16.137',1.23
'0:16.141',1.13
'0:16.145',0.86
'0:16.148',1.28
'0:16.152',1.79
'0:16.156',2.22
'0:16.160',2.63
'0:16.164',2.89
'0:16.168',2.98
'0:16.172',2.94
'0:16.176',2.74
'0:16.180',2.4
'0:16.184',1.81
'0:16.188',0.99
'0:16.191',0.35
'0:16.195',0.2
'0:16.199',0.04
'0:16.203',-0.74
'0:16.207',-1.31
'0:16.211',-1.61
'0:16.215',-1.81
'0:16.219',-1.89
'0:16.223',-2.13
'0:16.227',-2.34
'0:16.230',-2.52
'0:16.234',-2.6
'0:16.238',-2.76
'0:16.242',-3.11
'0:16.246',-3.18
'0:16.250',-2.87
'0:16.254',-2.21
'0:16.258',-0.63
'0:16.262',1.99
'0:16.266',5.25
'0:16.270',8.89
'0:16.273',11.29
'0:16.277',11.63
'0:16.281',10.28
'0:16.285',6.71
'0:16.289',1.64
'0:16.293',-2.69
'0:16.297',-5.59
'0:16.301',-7.12
'0:16.305',-7.22
'0:16.309',-6.46
'0:16.313',-5.46
'0:16.316',-4.11
'0:16.320',-2.85
'0:16.324',-1.96
'0:16.328',-1.62
'0:16.332',-1.76
'0:16.336',-1.7
'0:16.340',-1.21
'0:16.344',-0.55
'0:16.348',-0.27
'0:16.352',-0.02
'0:16.355',0.04
'0:16.359',0.03
'0:16.363',0.06
'0:16.367',0.17
'0:16.371',0.18
'0:16.375',0.4
'0:16.379',0.84
'0:16.383',1.66
'0:16.387',2.45
'0:16.391',2.93
'0:16.395',3.43
'0:16.398',4.04
'0:16.402',4.8
'0:16.406',5.89
'0:16.410',5.7
'0:16.414',4.43
'0:16.418',3.02
'0:16.422',2.24
'0:16.426',2.28
'0:16.430',2.37
'0:16.434',2.26
'0:16.438',1.72
'0:16.441',1.03
'0:16.445',0.69
'0:16.449',0.75
'0:16.453',1.07
'0:16.457',1.44
'0:16.461',1.68
'0:16.465',1.82
'0:16.469',2.1
'0:16.473',2.41
'0:16.477',2.56
'0:16.480',2.67
'0:16.484',2.88
'0:16.488',2.75
'0:16.492',2.54
'0:16.496',2.36
'0:16.500',2.01
'0:16.504',1.59
'0:16.508',1.2
'0:16.512',0.71
'0:16.516',-0.05
'0:16.520',-1.28
'0:16.523',-2.31
'0:16.527',-2.63
'0:16.531',-2.37
'0:16.535',-2.35
'0:16.539',-2.58
'0:16.543',-2.8
'0:16.547',-3.14
'0:16.551',-3.52
'0:16.555',-3.86
'0:16.559',-3.99
'0:16.563',-4.06
'0:16.566',-4.24
'0:16.570',-4.49
'0:16.574',-4.57
'0:16.578',-4.17
'0:16.582',-3.18
'0:16.586',-1.43
'0:16.590',1.6
'0:16.594',5.51
'0:16.598',9.36
'0:16.602',11.25
'0:16.605',10.75
'0:16.609',7.74
'0:16.613',2.75
'0:16.617',-2.48
'0:16.621',-6.33
'0:16.625',-8.63
'0:16.629',-9.65
'0:16.633',-9.3
'0:16.637',-7.79
'0:16.641',-6.08
'0:16.645',-4.79
'0:16.648',-3.93
'0:16.652',-3.45
'0:16.656',-3.1
'0:16.660',-2.79
'0:16.664',-2.5
'0:16.668',-2.08
'0:16.672',-1.36
'0:16.676',-0.72
'0:16.680',-0.33
'0:16.684',-0.2
'0:16.688',0.02
'0:16.691',0.48
'0:16.695',0.88
'0:16.699',1.16
'0:16.703',1.32
'0:16.707',1.29
'0:16.711',1.4
'0:16.715',1.65
'0:16.719',2.16
'0:16.723',2.72
'0:16.727',3.11
'0:16.730',3.33
'0:16.734',3.41
'0:16.738',3.27
'0:16.742',2.93
'0:16.746',2.45
'0:16.750',2
'0:16.754',1.59
'0:16.758',1.16
'0:16.762',0.67
'0:16.766',0.17
'0:16.770',-0.26
'0:16.773',-0.47
'0:16.777',-0.63
'0:16.781',-0.97
'0:16.785',-1.21
'0:16.789',-1.2
'0:16.793',-1.03
'0:16.797',-0.77
'0:16.801',-0.61
'0:16.805',-0.63
'0:16.809',-0.45
'0:16.813',0.02
'0:16.816',0.34
'0:16.820',0.65
'0:16.824',0.62
'0:16.828',0.5
'0:16.832',0.67
'0:16.836',0.86
'0:16.840',0.77
'0:16.844',0.69
'0:16.848',0.2
'0:16.852',-0.42
'0:16.855',-1.22
'0:16.859',-2.12
'0:16.863',-2.29
'0:16.867',-2.49
'0:16.871',-2.68
'0:16.875',-2.58
'0:16.879',-2.63
'0:16.883',-2.87
'0:16.887',-3.51
'0:16.891',-4.24
'0:16.895',-4.71
'0:16.898',-5.22
'0:16.902',-5.4
'0:16.906',-4.6
'0:16.910',-3.55
'0:16.914',-1.78
'0:16.918',1.45
'0:16.922',5.45
'0:16.926',9.18
'0:16.930',11.53
'0:16.934',11.55
'0:16.938',8.68
'0:16.941',3.65
'0:16.945',-1.6
'0:16.949',-5.6
'0:16.953',-8.16
'0:16.957',-9.11
'0:16.961',-9
'0:16.965',-7.8
'0:16.969',-6.05
'0:16.973',-4.26
'0:16.977',-3.17
'0:16.980',-2.75
'0:16.984',-2.35
'0:16.988',-1.9
'0:16.992',-1.57
'0:16.996',-1.22
'0:17.000',-0.83
'0:17.004',-0.49
'0:17.008',-0.31
'0:17.012',-0.3
'0:17.016',-0.13
'0:17.020',0.23
'0:17.023',0.57
'0:17.027',0.82
'0:17.031',0.99
'0:17.035',1.25
'0:17.039',1.44
'0:17.043',1.68
'0:17.047',2.14
'0:17.051',2.63
'0:17.055',3.07
'0:17.059',3.25
'0:17.063',3.21
'0:17.066',3.86
'0:17.070',4.28
'0:17.074',3.36
'0:17.078',2.42
'0:17.082',1.62
'0:17.086',1
'0:17.090',0.72
'0:17.094',0.5
'0:17.098',0.37
'0:17.102',0.3
'0:17.105',0.15
'0:17.109',0.16
'0:17.113',0.14
'0:17.117',0.04
'0:17.121',-0.09
'0:17.125',-0.1
'0:17.129',-0.24
'0:17.133',-0.03
'0:17.137',0.21
'0:17.141',0.42
'0:17.145',0.63
'0:17.148',0.77
'0:17.152',0.75
'0:17.156',0.68
'0:17.160',0.4
'0:17.164',-0.05
'0:17.168',-0.66
'0:17.172',-1.27
'0:17.176',-1.88
'0:17.180',-2.42
'0:17.184',-2.87
'0:17.188',-3.13
'0:17.191',-3.44
'0:17.195',-3.66
'0:17.199',-3.59
'0:17.203',-3.56
'0:17.207',-3.26
'0:17.211',-3.01
'0:17.215',-2.9
'0:17.219',-3.04
'0:17.223',-3.21
'0:17.227',-3.08
'0:17.230',-2.95
'0:17.234',-2.72
'0:17.238',-1.7
'0:17.242',0.81
'0:17.246',4.53
'0:17.250',8.7
'0:17.254',12.47
'0:17.258',14.18
'0:17.262',13.09
'0:17.266',9.39
'0:17.270',4.01
'0:17.273',-1.07
'0:17.277',-4.68
'0:17.281',-6.54
'0:17.285',-7.13
'0:17.289',-6.74
'0:17.293',-5.55
'0:17.297',-4.3
'0:17.301',-3.45
'0:17.305',-2.87
'0:17.309',-2.59
'0:17.313',-2.46
'0:17.316',-2.33
'0:17.320',-2.11
'0:17.324',-2.13
'0:17.328',-2.23
'0:17.332',-2.18
'0:17.336',-1.96
'0:17.340',-1.79
'0:17.344',-1.52
'0:17.348',-1.28
'0:17.352',-0.98
'0:17.355',-0.7
'0:17.359',-0.3
'0:17.363',0.27
'0:17.367',0.84
'0:17.371',1.53
'0:17.375',2.31
'0:17.379',2.79
'0:17.383',3.13
'0:17.387',3.41
'0:17.391',3.41
'0:17.395',3.28
'0:17.398',3.16
'0:17.402',2.93
'0:17.406',2.43
'0:17.410',1.91
'0:17.414',1.48
'0:17.418',1.07
'0:17.422',0.77
'0:17.426',0.52
'0:17.430',0.15
'0:17.434',-0.07
'0:17.438',0.11
'0:17.441',0.45
'0:17.445',0.84
'0:17.449',0.83
'0:17.453',0.73
'0:17.457',0.88
'0:17.461',0.85
'0:17.465',0.92
'0:17.469',1.23
'0:17.473',1.56
'0:17.477',1.57
'0:17.480',1.45
'0:17.484',1.21
'0:17.488',1.04
'0:17.492',0.75
'0:17.496',0.62
'0:17.500',0.44
'0:17.504',-0.02
'0:17.508',-0.56
'0:17.512',-1.04
'0:17.516',-1.37
'0:17.520',-1.57
'0:17.523',-1.75
'0:17.527',-1.94
'0:17.531',-2.22
'0:17.535',-2.32
'0:17.539',-2.19
'0:17.543',-2.21
'0:17.547',-2.31
'0:17.551',-2.65
'0:17.555',-3.07
'0:17.559',-3.29
'0:17.563',-2.92
'0:17.566',-1.82
'0:17.570',0.58
'0:17.574',3.74
'0:17.578',7.4
'0:17.582',11.18
'0:17.586',13.34
'0:17.590',12.72
'0:17.594',9.02
'0:17.598',2.96
'0:17.602',-2.7
'0:17.605',-6.28
'0:17.609',-7.9
'0:17.613',-8.42
'0:17.617',-7.96
'0:17.621',-6.76
'0:17.625',-5.26
'0:17.629',-3.52
'0:17.633',-2.51
'0:17.637',-1.4
'0:17.641',-0.18
'0:17.645',0.68
'0:17.648',1.21
'0:17.652',1.34
'0:17.656',1.29
'0:17.660',0.86
'0:17.664',0.8
'0:17.668',1.23
'0:17.672',1.28
'0:17.676',1.45
'0:17.680',1.33
'0:17.684',0.98
'0:17.688',0.72
'0:17.691',0.7
'0:17.695',1.11
'0:17.699',1.78
'0:17.703',2.38
'0:17.707',2.9
'0:17.711',3.3
'0:17.715',3.61
'0:17.719',3.83
'0:17.723',3.61
'0:17.727',3.25
'0:17.730',2.93
'0:17.734',2.32
'0:17.738',1.88
'0:17.742',1.84
'0:17.746',2.06
'0:17.750',1.97
'0:17.754',1.83
'0:17.758',2.11
'0:17.762',2.41
'0:17.766',1.88
'0:17.770',1.07
'0:17.773',0.44
'0:17.777',0.51
'0:17.781',0.97
'0:17.785',1.37
'0:17.789',1.68
'0:17.793',1.84
'0:17.797',1.93
'0:17.801',1.95
'0:17.805',1.88
'0:17.809',1.96
'0:17.813',1.86
'0:17.816',1.12
'0:17.820',0.48
'0:17.824',0.08
'0:17.828',-0.14
'0:17.832',-0.44
'0:17.836',-0.75
'0:17.840',-0.94
'0:17.844',-1.08
'0:17.848',-1.48
'0:17.852',-2.16
'0:17.855',-2.85
'0:17.859',-3.22
'0:17.863',-3.14
'0:17.867',-2.63
'0:17.871',-2.44
'0:17.875',-2.6
'0:17.879',-3.06
'0:17.883',-3.64
'0:17.887',-3.87
'0:17.891',-2.84
'0:17.895',-0.92
'0:17.898',1.54
'0:17.902',4.9
'0:17.906',8.94
'0:17.910',12.16
'0:17.914',13.11
'0:17.918',11.36
'0:17.922',6.68
'0:17.926',0.67
'0:17.930',-4.38
'0:17.934',-7.86
'0:17.938',-9.3
'0:17.941',-9.14
'0:17.945',-8.12
'0:17.949',-6.69
'0:17.953',-5.46
'0:17.957',-4.62
'0:17.961',-4.13
'0:17.965',-3.41
'0:17.969',-2.52
'0:17.973',-2.11
'0:17.977',-2.31
'0:17.980',-2.26
'0:17.984',-2.23
'0:17.988',-1.92
'0:17.992',-1.51
'0:17.996',-0.95
'0:18.000',-0.11
'0:18.004',0.45
'0:18.008',0.84
'0:18.012',1.03
'0:18.016',1.63
'0:18.020',2.48
'0:18.023',3.45
'0:18.027',4.28
'0:18.031',4.75
'0:18.035',4.85
'0:18.039',4.72
'0:18.043',4.63
'0:18.047',4.7
'0:18.051',4.64
'0:18.055',4.57
'0:18.059',4.29
'0:18.063',3.72
'0:18.066',3.07
'0:18.070',2.26
'0:18.074',1.5
'0:18.078',1.12
'0:18.082',0.71
'0:18.086',0.3
'0:18.090',0.09
'0:18.094',0.03
'0:18.098',0.16
'0:18.102',0.25
'0:18.105',0.11
'0:18.109',-0.08
'0:18.113',-0.17
'0:18.117',-0.12
'0:18.121',0.06
'0:18.125',0.26
'0:18.129',0.44
'0:18.133',0.44
'0:18.137',0.2
'0:18.141',-0.01
'0:18.145',-0.13
'0:18.148',-0.47
'0:18.152',-1.03
'0:18.156',-1.68
'0:18.160',-2.38
'0:18.164',-3.16
'0:18.168',-3.68
'0:18.172',-3.99
'0:18.176',-4.28
'0:18.180',-4.7
'0:18.184',-4.97
'0:18.188',-5.13
'0:18.191',-5.06
'0:18.195',-4.7
'0:18.199',-4.21
'0:18.203',-3.96
'0:18.207',-4.14
'0:18.211',-4.6
'0:18.215',-4.74
'0:18.219',-4.29
'0:18.223',-2.89
'0:18.227',-0.04
'0:18.230',3.74
'0:18.234',8.05
'0:18.238',11.22
'0:18.242',11.81
'0:18.246',9.59
'0:18.250',5.1
'0:18.254',-0.56
'0:18.258',-5.6
'0:18.262',-9.09
'0:18.266',-10.88
'0:18.270',-11.09
'0:18.273',-10.06
'0:18.277',-8.29
'0:18.281',-6.48
'0:18.285',-5.12
'0:18.289',-4.12
'0:18.293',-3.37
'0:18.297',-2.9
'0:18.301',-2.46
'0:18.305',-2.07
'0:18.309',-1.81
'0:18.313',-1.59
'0:18.316',-1.37
'0:18.320',-1.2
'0:18.324',-1.01
'0:18.328',-0.73
'0:18.332',-0.18
'0:18.336',0.23
'0:18.340',0.43
'0:18.344',0.53
'0:18.348',0.74
'0:18.352',1.12
'0:18.355',1.58
'0:18.359',2.1
'0:18.363',2.49
'0:18.367',2.71
'0:18.371',2.78
'0:18.375',2.78
'0:18.379',2.54
'0:18.383',2.1
'0:18.387',1.95
'0:18.391',2.22
'0:18.395',1.79
'0:18.398',1.26
'0:18.402',1.04
'0:18.406',0.46
'0:18.410',-0.09
'0:18.414',-0.58
'0:18.418',-0.96
'0:18.422',-0.96
'0:18.426',-0.82
'0:18.430',-1.21
'0:18.434',-1.26
'0:18.438',-0.86
'0:18.441',-0.51
'0:18.445',0.08
'0:18.449',0.91
'0:18.453',1.75
'0:18.457',1.49
'0:18.461',0.65
'0:18.465',0.19
'0:18.469',-0.16
'0:18.473',-0.04
'0:18.477',0.31
'0:18.480',0.1
'0:18.484',-1.04
'0:18.488',-2.1
'0:18.492',-2.85
'0:18.496',-2.85
'0:18.500',-2.81
'0:18.504',-3.06
'0:18.508',-3.01
'0:18.512',-2.75
'0:18.516',-2.33
'0:18.520',-2.4
'0:18.523',-2.39
'0:18.527',-2.52
'0:18.531',-2.95
'0:18.535',-2.92
'0:18.539',-2.63
'0:18.543',-2.57
'0:18.547',-1.97
'0:18.551',-0.47
'0:18.555',2.28
'0:18.559',6.26
'0:18.563',10.16
'0:18.566',12.56
'0:18.570',12.53
'0:18.574',9.53
'0:18.578',4.43
'0:18.582',-0.68
'0:18.586',-4.74
'0:18.590',-7.55
'0:18.594',-8.94
'0:18.598',-8.83
'0:18.602',-7.71
'0:18.605',-6.42
'0:18.609',-5.09
'0:18.613',-4.12
'0:18.617',-3.36
'0:18.621',-2.64
'0:18.625',-2.03
'0:18.629',-1.34
'0:18.633',-0.85
'0:18.637',-0.52
'0:18.641',-0.36
'0:18.645',-0.33
'0:18.648',-0.31
'0:18.652',-0.15
'0:18.656',0.21
'0:18.660',0.66
'0:18.664',1.1
'0:18.668',1.23
'0:18.672',1.09
'0:18.676',1.14
'0:18.680',1.28
'0:18.684',1.55
'0:18.688',1.82
'0:18.691',2.04
'0:18.695',2.17
'0:18.699',2.27
'0:18.703',2.32
'0:18.707',2.21
'0:18.711',1.93
'0:18.715',1.72
'0:18.719',1.39
'0:18.723',0.94
'0:18.727',0.39
'0:18.730',-0.09
'0:18.734',-0.32
'0:18.738',-0.53
'0:18.742',-0.86
'0:18.746',-0.91
'0:18.750',-0.67
'0:18.754',-0.52
'0:18.758',-0.4
'0:18.762',-0.24
'0:18.766',-0.16
'0:18.770',-0.11
'0:18.773',0.14
'0:18.777',0.38
'0:18.781',0.37
'0:18.785',0.25
'0:18.789',0.27
'0:18.793',0.23
'0:18.797',0.25
'0:18.801',0.15
'0:18.805',0.07
'0:18.809',-0.31
'0:18.813',-0.62
'0:18.816',-0.72
'0:18.820',-0.79
'0:18.824',-0.99
'0:18.828',-1.03
'0:18.832',-1.14
'0:18.836',-1.04
'0:18.840',-0.76
'0:18.844',-0.68
'0:18.848',-0.71
'0:18.852',-0.7
'0:18.855',-0.92
'0:18.859',-1.38
'0:18.863',-1.64
'0:18.867',-1.88
'0:18.871',-1.82
'0:18.875',-1.03
'0:18.879',0.7
'0:18.883',3.52
'0:18.887',7.02
'0:18.891',10.57
'0:18.895',12.68
'0:18.898',12.03
'0:18.902',8.54
'0:18.906',3.13
'0:18.910',-2.45
'0:18.914',-6.34
'0:18.918',-8.46
'0:18.922',-9.2
'0:18.926',-9.05
'0:18.930',-8.11
'0:18.934',-6.92
'0:18.938',-5.68
'0:18.941',-4.64
'0:18.945',-3.69
'0:18.949',-2.8
'0:18.953',-2
'0:18.957',-1.51
'0:18.961',-1.21
'0:18.965',-0.91
'0:18.969',-0.64
'0:18.973',-0.49
'0:18.977',-0.35
'0:18.980',-0.08
'0:18.984',0.21
'0:18.988',0.44
'0:18.992',0.81
'0:18.996',1.15
'0:19.000',1.46
'0:19.004',1.88
'0:19.008',2.27
'0:19.012',2.55
'0:19.016',2.8
'0:19.020',2.88
'0:19.023',2.84
'0:19.027',2.95
'0:19.031',2.95
'0:19.035',2.93
'0:19.039',2.83
'0:19.043',2.51
'0:19.047',2.22
'0:19.051',1.72
'0:19.055',1.2
'0:19.059',0.82
'0:19.063',0.65
'0:19.066',0.41
'0:19.070',0.39
'0:19.074',0.55
'0:19.078',0.64
'0:19.082',0.64
'0:19.086',0.5
'0:19.090',0.31
'0:19.094',0.2
'0:19.098',0.27
'0:19.102',0.37
'0:19.105',0.49
'0:19.109',0.63
'0:19.113',0.98
'0:19.117',1.3
'0:19.121',1.29
'0:19.125',1.32
'0:19.129',0.98
'0:19.133',0.35
'0:19.137',-0.04
'0:19.141',-0.64
'0:19.145',-1.53
'0:19.148',-1.92
'0:19.152',-2.14
'0:19.156',-2.62
'0:19.160',-2.86
'0:19.164',-3.15
'0:19.168',-3.43
'0:19.172',-3.55
'0:19.176',-2.98
'0:19.180',-2.61
'0:19.184',-2.14
'0:19.188',-1.87
'0:19.191',-2.44
'0:19.195',-2.91
'0:19.199',-2.28
'0:19.203',-0.91
'0:19.207',1.85
'0:19.211',6.49
'0:19.215',11.17
'0:19.219',14.1
'0:19.223',15.08
'0:19.227',13.69
'0:19.230',9.15
'0:19.234',2.52
'0:19.238',-3.17
'0:19.242',-7.05
'0:19.246',-8.78
'0:19.250',-9.16
'0:19.254',-8.62
'0:19.258',-6.98
'0:19.262',-5.51
'0:19.266',-3.86
'0:19.270',-2.33
'0:19.273',-1.9
'0:19.277',-2.18
'0:19.281',-1.74
'0:19.285',-0.84
'0:19.289',-0.47
'0:19.293',-0.1
'0:19.297',0.68
'0:19.301',1.34
'0:19.305',1.55
'0:19.309',1.65
'0:19.313',1.82
'0:19.316',2.45
'0:19.320',2.78
'0:19.324',2.61
'0:19.328',2.33
'0:19.332',2.14
'0:19.336',2.33
'0:19.340',3.33
'0:19.344',3.89
'0:19.348',3.96
'0:19.352',4.01
'0:19.355',4.41
'0:19.359',4.45
'0:19.363',3.71
'0:19.367',3.1
'0:19.371',2.8
'0:19.375',2.61
'0:19.379',2.11
'0:19.383',1.67
'0:19.387',1.26
'0:19.391',0.65
'0:19.395',0.2
'0:19.398',0.26
'0:19.402',0.5
'0:19.406',0.36
'0:19.410',-0.05
'0:19.414',-0.33
'0:19.418',-0.03
'0:19.422',1.18
'0:19.426',2.69
'0:19.430',2.49
'0:19.434',1.62
'0:19.438',0.83
'0:19.441',0.43
'0:19.445',0.48
'0:19.449',0.89
'0:19.453',1.44
'0:19.457',1.64
'0:19.461',1.39
'0:19.465',0.38
'0:19.469',-0.91
'0:19.473',-2.06
'0:19.477',-2.47
'0:19.480',-2.7
'0:19.484',-3.1
'0:19.488',-2.98
'0:19.492',-2.93
'0:19.496',-3.17
'0:19.500',-3.17
'0:19.504',-3.03
'0:19.508',-3.04
'0:19.512',-3.09
'0:19.516',-3.11
'0:19.520',-3
'0:19.523',-2.74
'0:19.527',-1.96
