'0:00.000',4.88
'0:00.004',5.04
'0:00.008',4.96
'0:00.012',4.8
'0:00.016',4.41
'0:00.020',3.82
'0:00.023',3.42
'0:00.027',3.04
'0:00.031',2.33
'0:00.035',1.75
'0:00.039',1.1
'0:00.043',0.52
'0:00.047',0.06
'0:00.051',-0.41
'0:00.055',-0.82
'0:00.059',-1.1
'0:00.063',-1.26
'0:00.066',-1.26
'0:00.070',-1.29
'0:00.074',-1.43
'0:00.078',-1.47
'0:00.082',-1.53
'0:00.086',-1.4
'0:00.090',-1.47
'0:00.094',-1.69
'0:00.098',-1.74
'0:00.102',-1.63
'0:00.105',-1.51
'0:00.109',-1.45
'0:00.113',-1.61
'0:00.117',-1.71
'0:00.121',-1.7
'0:00.125',-2
'0:00.129',-2.71
'0:00.133',-3.44
'0:00.137',-4.04
'0:00.141',-4.34
'0:00.145',-4.62
'0:00.148',-5
'0:00.152',-5.24
'0:00.156',-5.2
'0:00.160',-5.09
'0:00.164',-5.03
'0:00.168',-5.04
'0:00.172',-5.16
'0:00.176',-5.11
'0:00.180',-5.24
'0:00.184',-5.34
'0:00.188',-5.48
'0:00.191',-5.23
'0:00.195',-4.22
'0:00.199',-1.9
'0:00.203',1.62
'0:00.207',5.51
'0:00.211',8.79
'0:00.215',9.79
'0:00.219',7.53
'0:00.223',2.55
'0:00.227',-3.23
'0:00.230',-7.59
'0:00.234',-10.19
'0:00.238',-11.29
'0:00.242',-11.03
'0:00.246',-9.57
'0:00.250',-7.71
'0:00.254',-5.9
'0:00.258',-4.56
'0:00.262',-3.69
'0:00.266',-2.99
'0:00.270',-2.39
'0:00.273',-1.82
'0:00.277',-1.44
'0:00.281',-1.19
'0:00.285',-1.13
'0:00.289',-0.91
'0:00.293',-0.65
'0:00.297',-0.52
'0:00.301',-0.24
'0:00.305',-0.07
'0:00.309',0.9
'0:00.313',1.37
'0:00.316',1.84
'0:00.320',2.25
'0:00.324',2.61
'0:00.328',3.09
'0:00.332',3.42
'0:00.336',3.49
'0:00.340',3.32
'0:00.344',2.9
'0:00.348',2.38
'0:00.352',2.12
'0:00.355',1.85
'0:00.359',1.56
'0:00.363',1.3
'0:00.367',0.9
'0:00.371',0.56
'0:00.375',0.44
'0:00.379',0.45
'0:00.383',0.57
'0:00.387',0.62
'0:00.391',0.54
'0:00.395',0.64
'0:00.398',0.89
'0:00.402',1.29
'0:00.406',1.59
'0:00.410',1.76
'0:00.414',1.96
'0:00.418',2.16
'0:00.422',2.45
'0:00.426',2.61
'0:00.430',2.39
'0:00.434',2.06
'0:00.438',1.71
'0:00.441',1.56
'0:00.445',1.4
'0:00.449',0.91
'0:00.453',0.24
'0:00.457',-0.53
'0:00.461',-1.14
'0:00.465',-1.57
'0:00.469',-1.81
'0:00.473',-1.94
'0:00.477',-1.99
'0:00.480',-2.1
'0:00.484',-2.11
'0:00.488',-2.02
'0:00.492',-1.88
'0:00.496',-1.9
'0:00.500',-1.98
'0:00.504',-2.2
'0:00.508',-2.54
'0:00.512',-2.63
'0:00.516',-2.2
'0:00.520',-0.78
'0:00.523',1.45
'0:00.527',4.69
'0:00.531',8.33
'0:00.535',10.87
'0:00.539',10.63
'0:00.543',7.55
'0:00.547',2.35
'0:00.551',-2.66
'0:00.555',-5.97
'0:00.559',-7.6
'0:00.563',-7.87
'0:00.566',-7.09
'0:00.570',-5.58
'0:00.574',-3.8
'0:00.578',-2.27
'0:00.582',-1.21
'0:00.586',-0.44
'0:00.590',0.09
'0:00.594',0.48
'0:00.598',0.78
'0:00.602',1.03
'0:00.605',1.21
'0:00.609',1.41
'0:00.613',1.76
'0:00.617',1.99
'0:00.621',2.21
'0:00.625',2.53
'0:00.629',3.05
'0:00.633',3.73
'0:00.637',4.34
'0:00.641',4.77
'0:00.645',5.21
'0:00.648',5.52
'0:00.652',5.67
'0:00.656',5.71
'0:00.660',5.64
'0:00.664',5.5
'0:00.668',5.29
'0:00.672',4.87
'0:00.676',4.41
'0:00.680',3.82
'0:00.684',3.22
'0:00.688',2.82
'0:00.691',2.52
'0:00.695',1.91
'0:00.699',1.67
'0:00.703',1.44
'0:00.707',1.17
'0:00.711',1.02
'0:00.715',0.88
'0:00.719',0.93
'0:00.723',0.98
'0:00.727',0.89
'0:00.730',0.83
'0:00.734',0.86
'0:00.738',0.83
'0:00.742',0.88
'0:00.746',0.85
'0:00.750',0.89
'0:00.754',0.86
'0:00.758',0.8
'0:00.762',0.58
'0:00.766',0.37
'0:00.770',0.09
'0:00.773',-0.38
'0:00.777',-0.9
'0:00.781',-1.38
'0:00.785',-1.72
'0:00.789',-2.06
'0:00.793',-2.32
'0:00.797',-2.51
'0:00.801',-2.63
'0:00.805',-2.65
'0:00.809',-2.67
'0:00.813',-2.53
'0:00.816',-2.46
'0:00.820',-2.51
'0:00.824',-2.78
'0:00.828',-3.05
'0:00.832',-3.19
'0:00.836',-3.13
'0:00.840',-2.17
'0:00.844',0.61
'0:00.848',4.54
'0:00.852',8.82
'0:00.855',12.12
'0:00.859',12.3
'0:00.863',11.23
'0:00.867',-0.17
'0:00.871',-5.63
'0:00.875',-8.95
'0:00.879',-10.28
'0:00.883',-9.98
'0:00.887',-8.35
'0:00.891',-6.46
'0:00.895',-4.91
'0:00.898',-3.81
'0:00.902',-3.02
'0:00.906',-2.44
'0:00.910',-1.97
'0:00.914',-1.63
'0:00.918',-1.38
'0:00.922',-1.23
'0:00.926',-1
'0:00.930',-0.66
'0:00.934',-0.38
'0:00.938',-0.05
'0:00.941',0.31
'0:00.945',0.7
'0:00.949',1.07
'0:00.953',1.57
'0:00.957',2.08
'0:00.961',2.54
'0:00.965',2.89
'0:00.969',3.14
'0:00.973',3.35
'0:00.977',3.52
'0:00.980',3.39
'0:00.984',3.11
'0:00.988',2.83
'0:00.992',2.53
'0:00.996',2.12
'0:01.000',1.63
'0:01.004',1.19
'0:01.008',0.63
'0:01.012',-0.1
'0:01.016',-0.89
'0:01.020',-1.43
'0:01.023',-1.68
'0:01.027',-1.62
'0:01.031',-1.37
'0:01.035',-1.21
'0:01.039',-1.24
'0:01.043',-1.44
'0:01.047',-1.71
'0:01.051',-1.68
'0:01.055',-1.61
'0:01.059',-1.53
'0:01.063',-1.24
'0:01.066',-0.93
'0:01.070',-0.52
'0:01.074',-0.45
'0:01.078',-0.58
'0:01.082',-0.76
'0:01.086',-0.93
'0:01.090',-1.11
'0:01.094',-1.24
'0:01.098',-1.6
'0:01.102',-2.22
'0:01.105',-2.75
'0:01.109',-3.39
'0:01.113',-4.04
'0:01.117',-4.45
'0:01.121',-4.73
'0:01.125',-4.82
'0:01.129',-4.67
'0:01.133',-4.58
'0:01.137',-4.5
'0:01.141',-4.61
'0:01.145',-4.7
'0:01.148',-4.89
'0:01.152',-5.06
'0:01.156',-5.04
'0:01.160',-5.17
'0:01.164',-5.22
'0:01.168',-4.37
'0:01.172',-2.5
'0:01.176',0.4
'0:01.180',3.74
'0:01.184',6.94
'0:01.188',8.99
'0:01.191',7.94
'0:01.195',4.19
'0:01.199',-0.98
'0:01.203',-5.57
'0:01.207',-8.55
'0:01.211',-9.66
'0:01.215',-9.41
'0:01.219',-8.41
'0:01.223',-6.84
'0:01.227',-5.22
'0:01.230',-3.93
'0:01.234',-3.12
'0:01.238',-2.53
'0:01.242',-1.91
'0:01.246',-1.3
'0:01.250',-0.83
'0:01.254',-0.42
'0:01.258',0
'0:01.262',0.35
'0:01.266',0.44
'0:01.270',0.48
'0:01.273',0.8
'0:01.277',1.23
'0:01.281',1.71
'0:01.285',2.2
'0:01.289',2.65
'0:01.293',2.96
'0:01.297',3.09
'0:01.301',3.4
'0:01.305',3.87
'0:01.309',4.26
'0:01.313',4.51
'0:01.316',4.54
'0:01.320',4.51
'0:01.324',4.38
'0:01.328',4.13
'0:01.332',3.69
'0:01.336',3.21
'0:01.340',2.76
'0:01.344',2.44
'0:01.348',2.2
'0:01.352',1.81
'0:01.355',1.36
'0:01.359',1.08
'0:01.363',1.14
'0:01.367',1.28
'0:01.371',1.45
'0:01.375',1.62
'0:01.379',1.76
'0:01.383',1.77
'0:01.387',1.76
'0:01.391',1.91
'0:01.395',2.16
'0:01.398',2.33
'0:01.402',2.39
'0:01.406',2.33
'0:01.410',2.19
'0:01.414',1.95
'0:01.418',1.78
'0:01.422',1.33
'0:01.426',0.84
'0:01.430',0.21
'0:01.434',-0.33
'0:01.438',-0.63
'0:01.441',-0.81
'0:01.445',-0.98
'0:01.449',-1.24
'0:01.453',-1.49
'0:01.457',-1.66
'0:01.461',-1.73
'0:01.465',-1.57
'0:01.469',-1.46
'0:01.473',-1.56
'0:01.477',-1.81
'0:01.480',-2.09
'0:01.484',-2.3
'0:01.488',-2.14
'0:01.492',-1.01
'0:01.496',1.47
'0:01.500',4.78
'0:01.504',8.04
'0:01.508',10.79
'0:01.512',11.02
'0:01.516',8.76
'0:01.520',4.58
'0:01.523',-0.79
'0:01.527',-4.97
'0:01.531',-7.14
'0:01.535',-7.84
'0:01.539',-7.46
'0:01.543',-6.24
'0:01.547',-4.68
'0:01.551',-3.2
'0:01.555',-2.11
'0:01.559',-1.25
'0:01.563',-0.64
'0:01.566',-0.15
'0:01.570',0.21
'0:01.574',0.49
'0:01.578',0.7
'0:01.582',0.86
'0:01.586',1.07
'0:01.590',1.47
'0:01.594',1.85
'0:01.598',2.24
'0:01.602',2.71
'0:01.605',3.34
'0:01.609',3.99
'0:01.613',4.55
'0:01.617',4.94
'0:01.621',5.25
'0:01.625',5.6
'0:01.629',5.99
'0:01.633',6.15
'0:01.637',5.99
'0:01.641',5.79
'0:01.645',5.65
'0:01.648',5.17
'0:01.652',4.33
'0:01.656',3.54
'0:01.660',2.85
'0:01.664',2.3
'0:01.668',1.71
'0:01.672',1.28
'0:01.676',0.98
'0:01.680',0.83
'0:01.684',0.76
'0:01.688',0.73
'0:01.691',0.66
'0:01.695',0.6
'0:01.699',0.45
'0:01.703',0.17
'0:01.707',-0.03
'0:01.711',0.02
'0:01.715',0.23
'0:01.719',0.37
'0:01.723',0.42
'0:01.727',0.39
'0:01.730',0.18
'0:01.734',-0.23
'0:01.738',-0.61
'0:01.742',-0.87
'0:01.746',-1.25
'0:01.750',-1.79
'0:01.754',-2.43
'0:01.758',-2.97
'0:01.762',-3.45
'0:01.766',-3.86
'0:01.770',-4.09
'0:01.773',-4.12
'0:01.777',-4.2
'0:01.781',-4.44
'0:01.785',-4.42
'0:01.789',-4.12
'0:01.793',-4.04
'0:01.797',-4.24
'0:01.801',-4.62
'0:01.805',-5.04
'0:01.809',-5.3
'0:01.813',-4.94
'0:01.816',-3.32
'0:01.820',-0.21
'0:01.824',3.74
'0:01.828',8.13
'0:01.832',10.71
'0:01.836',10.01
'0:01.840',6.16
'0:01.844',0.03
'0:01.848',-5.78
'0:01.852',-9.48
'0:01.855',-11.31
'0:01.859',-11.66
'0:01.863',-10.65
'0:01.867',-8.69
'0:01.871',-6.7
'0:01.875',-5.21
'0:01.879',-4.29
'0:01.883',-3.54
'0:01.887',-2.86
'0:01.891',-2.44
'0:01.895',-2.05
'0:01.898',-1.71
'0:01.902',-1.5
'0:01.906',-1.46
'0:01.910',-1.22
'0:01.914',-0.72
'0:01.918',-0.33
'0:01.922',0
'0:01.926',0.41
'0:01.930',0.8
'0:01.934',1.23
'0:01.938',1.75
'0:01.941',2.19
'0:01.945',2.82
'0:01.949',3.07
'0:01.953',3.11
'0:01.957',3.15
'0:01.961',3.12
'0:01.965',3.09
'0:01.969',2.87
'0:01.973',2.52
'0:01.977',2.08
'0:01.980',1.74
'0:01.984',1.26
'0:01.988',0.56
'0:01.992',-0.07
'0:01.996',-0.55
'0:02.000',-0.79
'0:02.004',-0.98
'0:02.008',-1.14
'0:02.012',-1.07
'0:02.016',-0.95
'0:02.020',-0.9
'0:02.023',-1.23
'0:02.027',-1.37
'0:02.031',-1.12
'0:02.035',-0.8
'0:02.039',-0.63
'0:02.043',-0.66
'0:02.047',-0.78
'0:02.051',-1
'0:02.055',-0.94
'0:02.059',-0.81
'0:02.063',-0.85
'0:02.066',-0.99
'0:02.070',-1.2
'0:02.074',-1.56
'0:02.078',-2.07
'0:02.082',-2.55
'0:02.086',-3.01
'0:02.090',-3.34
'0:02.094',-3.49
'0:02.098',-3.66
'0:02.102',-3.91
'0:02.105',-4.09
'0:02.109',-3.98
'0:02.113',-3.74
'0:02.117',-3.63
'0:02.121',-3.56
'0:02.125',-3.45
'0:02.129',-3.41
'0:02.133',-3.54
'0:02.137',-3.79
'0:02.141',-3.77
'0:02.145',-2.9
'0:02.148',-0.83
'0:02.152',2.18
'0:02.156',5.9
'0:02.160',9.25
'0:02.164',10.43
'0:02.168',8.54
'0:02.172',4.54
'0:02.176',-0.32
'0:02.180',-4.24
'0:02.184',-6.66
'0:02.188',-7.59
'0:02.191',-7.49
'0:02.195',-6.46
'0:02.199',-4.89
'0:02.203',-3.33
'0:02.207',-2.15
'0:02.211',-1.28
'0:02.215',-0.65
'0:02.219',0
'0:02.223',0.53
'0:02.227',0.77
'0:02.230',0.96
'0:02.234',1.21
'0:02.238',1.44
'0:02.242',1.8
'0:02.246',2.17
'0:02.250',2.48
'0:02.254',2.87
'0:02.258',3.45
'0:02.262',4.16
'0:02.266',4.78
'0:02.270',5.2
'0:02.273',5.42
'0:02.277',5.52
'0:02.281',5.6
'0:02.285',5.58
'0:02.289',5.49
'0:02.293',5.29
'0:02.297',5
'0:02.301',4.71
'0:02.305',4.43
'0:02.309',4.07
'0:02.313',3.56
'0:02.316',2.96
'0:02.320',2.45
'0:02.324',2.05
'0:02.328',1.75
'0:02.332',1.46
'0:02.336',1.16
'0:02.340',0.95
'0:02.344',1.12
'0:02.348',1.42
'0:02.352',1.62
'0:02.355',1.74
'0:02.359',1.79
'0:02.363',1.78
'0:02.367',1.8
'0:02.371',1.86
'0:02.375',1.94
'0:02.379',1.98
'0:02.383',1.96
'0:02.387',1.78
'0:02.391',1.47
'0:02.395',1.05
'0:02.398',0.49
'0:02.402',0
'0:02.406',-0.53
'0:02.410',-1.08
'0:02.414',-1.52
'0:02.418',-1.87
'0:02.422',-2.26
'0:02.426',-2.49
'0:02.430',-2.3
'0:02.434',-2.09
'0:02.438',-2.02
'0:02.441',-1.73
'0:02.445',-1.59
'0:02.449',-2.02
'0:02.453',-2.58
'0:02.457',-2.98
'0:02.461',-3.06
'0:02.465',-2.89
'0:02.469',-1.57
'0:02.473',1.53
'0:02.477',5.52
'0:02.480',9.64
'0:02.484',12.1
'0:02.488',11.48
'0:02.492',7.88
'0:02.496',2.04
'0:02.500',-3.73
'0:02.504',-7.43
'0:02.508',-9.12
'0:02.512',-9.43
'0:02.516',-8.39
'0:02.520',-6.56
'0:02.523',-4.65
'0:02.527',-3.11
'0:02.531',-1.95
'0:02.535',-1.26
'0:02.539',-0.68
'0:02.543',-0.27
'0:02.547',-0.06
'0:02.551',0.16
'0:02.555',0.48
'0:02.559',0.87
'0:02.563',1.24
'0:02.566',1.65
'0:02.570',2.04
'0:02.574',2.28
'0:02.578',2.37
'0:02.582',2.56
'0:02.586',2.98
'0:02.590',3.48
'0:02.594',3.92
'0:02.598',4.22
'0:02.602',4.59
'0:02.605',4.73
'0:02.609',4.71
'0:02.613',4.67
'0:02.617',4.41
'0:02.621',4.23
'0:02.625',4.09
'0:02.629',3.75
'0:02.633',3.18
'0:02.637',2.23
'0:02.641',1.2
'0:02.645',0.52
'0:02.648',0.17
'0:02.652',-0.18
'0:02.656',-0.49
'0:02.660',-0.67
'0:02.664',-0.67
'0:02.668',-0.7
'0:02.672',-0.8
'0:02.676',-0.87
'0:02.680',-0.79
'0:02.684',-0.6
'0:02.688',-0.53
'0:02.691',-0.53
'0:02.695',-0.53
'0:02.699',-0.48
'0:02.703',-0.51
'0:02.707',-0.64
'0:02.711',-0.78
'0:02.715',-0.72
'0:02.719',-0.68
'0:02.723',-0.76
'0:02.727',-1.24
'0:02.730',-1.98
'0:02.734',-2.76
'0:02.738',-3.3
'0:02.742',-3.67
'0:02.746',-4.01
'0:02.750',-4.31
'0:02.754',-4.43
'0:02.758',-4.47
'0:02.762',-4.38
'0:02.766',-4.38
'0:02.770',-4.54
'0:02.773',-4.69
'0:02.777',-4.74
'0:02.781',-4.84
'0:02.785',-5.02
'0:02.789',-5.28
'0:02.793',-5.22
'0:02.797',-4.24
'0:02.801',-1.82
'0:02.805',1.91
'0:02.809',6
'0:02.813',9.16
'0:02.816',9.68
'0:02.820',6.93
'0:02.824',1.99
'0:02.828',-3.48
'0:02.832',-7.65
'0:02.836',-10
'0:02.840',-10.62
'0:02.844',-9.98
'0:02.848',-8.22
'0:02.852',-6.28
'0:02.855',-4.8
'0:02.859',-3.82
'0:02.863',-3.07
'0:02.867',-2.46
'0:02.871',-1.95
'0:02.875',-1.76
'0:02.879',-1.64
'0:02.883',-1.26
'0:02.887',-0.81
'0:02.891',-0.61
'0:02.895',-0.45
'0:02.898',-0.18
'0:02.902',-0.09
'0:02.906',0.04
'0:02.910',0.52
'0:02.914',1.01
'0:02.918',1.55
'0:02.922',1.99
'0:02.926',2.25
'0:02.930',2.37
'0:02.934',2.39
'0:02.938',2.35
'0:02.941',2.26
'0:02.945',2.1
'0:02.949',2.07
'0:02.953',2.09
'0:02.957',1.91
'0:02.961',1.55
'0:02.965',1.38
'0:02.969',1.15
'0:02.973',0.68
'0:02.977',0.06
'0:02.980',-0.51
'0:02.984',-0.87
'0:02.988',-0.96
'0:02.992',-0.81
'0:02.996',-0.6
'0:03.000',-0.38
'0:03.004',-0.16
'0:03.008',0.09
'0:03.012',0.18
'0:03.016',0.23
'0:03.020',0.45
'0:03.023',0.74
'0:03.027',1.03
'0:03.031',1.15
'0:03.035',1.13
'0:03.039',1.04
'0:03.043',0.91
'0:03.047',0.75
'0:03.051',0.53
'0:03.055',0.08
'0:03.059',-0.46
'0:03.063',-0.98
'0:03.066',-1.45
'0:03.070',-1.73
'0:03.074',-1.93
'0:03.078',-2.21
'0:03.082',-2.36
'0:03.086',-2.28
'0:03.090',-2.12
'0:03.094',-2.07
'0:03.098',-2.05
'0:03.102',-1.9
'0:03.105',-1.75
'0:03.109',-1.93
'0:03.113',-2.36
'0:03.117',-2.7
'0:03.121',-2.27
'0:03.125',-0.96
'0:03.129',1.9
'0:03.133',5.13
'0:03.137',8.35
'0:03.141',10.39
'0:03.145',9.82
'0:03.148',6.71
'0:03.152',1.89
'0:03.156',-2.65
'0:03.160',-5.77
'0:03.164',-7.28
'0:03.168',-7.5
'0:03.172',-6.58
'0:03.176',-4.88
'0:03.180',-3.12
'0:03.184',-1.93
'0:03.188',-0.99
'0:03.191',-0.49
'0:03.195',-0.12
'0:03.199',0.15
'0:03.203',0.65
'0:03.207',1.04
'0:03.211',1.59
'0:03.215',1.93
'0:03.219',1.84
'0:03.223',1.96
'0:03.227',2.11
'0:03.230',2.49
'0:03.234',3.14
'0:03.238',3.99
'0:03.242',4.71
'0:03.246',5.21
'0:03.250',5.6
'0:03.254',5.91
'0:03.258',5.94
'0:03.262',5.65
'0:03.266',5.45
'0:03.270',5.38
'0:03.273',5.22
'0:03.277',4.78
'0:03.281',4.26
'0:03.285',3.84
'0:03.289',3.38
'0:03.293',3.05
'0:03.297',2.53
'0:03.301',1.65
'0:03.305',1.09
'0:03.309',1.09
'0:03.313',0.61
'0:03.316',0.33
'0:03.320',0.65
'0:03.324',0.87
'0:03.328',0.7
'0:03.332',0.4
'0:03.336',0.04
'0:03.340',0.33
'0:03.344',0.59
'0:03.348',0.29
'0:03.352',-0.36
'0:03.355',-0.63
'0:03.359',-0.58
'0:03.363',-0.47
'0:03.367',-0.25
'0:03.371',-0.68
'0:03.375',-1.64
'0:03.379',-2.29
'0:03.383',-2.65
'0:03.387',-2.85
'0:03.391',-3.16
'0:03.395',-3.59
'0:03.398',-4.2
'0:03.402',-4.7
'0:03.406',-4.58
'0:03.410',-4.22
'0:03.414',-4.14
'0:03.418',-4.22
'0:03.422',-4.32
'0:03.426',-4.14
'0:03.430',-4.31
'0:03.434',-4.75
'0:03.438',-5.3
'0:03.441',-5.36
'0:03.445',-4.31
'0:03.449',-1.54
'0:03.453',2.42
'0:03.457',6.71
'0:03.461',10
'0:03.465',10.68
'0:03.469',7.58
'0:03.473',1.82
'0:03.477',-4.43
'0:03.480',-8.76
'0:03.484',-10.66
'0:03.488',-10.74
'0:03.492',-9.38
'0:03.496',-7.43
'0:03.500',-5.33
'0:03.504',-3.7
'0:03.508',-2.81
'0:03.512',-2.16
'0:03.516',-1.65
'0:03.520',-1.22
'0:03.523',-0.81
'0:03.527',-0.39
'0:03.531',0.07
'0:03.535',0.54
'0:03.539',0.94
'0:03.543',1.42
'0:03.547',1.9
'0:03.551',2.31
'0:03.555',2.76
'0:03.559',3.41
'0:03.563',4.08
'0:03.566',4.71
'0:03.570',5.32
'0:03.574',5.77
'0:03.578',6.16
'0:03.582',6.6
'0:03.586',6.95
'0:03.590',7.07
'0:03.594',7.01
'0:03.598',6.73
'0:03.602',6.34
'0:03.605',5.96
'0:03.609',5.53
'0:03.613',4.95
'0:03.617',4.28
'0:03.621',3.66
'0:03.625',3.03
'0:03.629',2.51
'0:03.633',2.07
'0:03.637',1.77
'0:03.641',1.66
'0:03.645',1.46
'0:03.648',1.28
'0:03.652',1.19
'0:03.656',1.05
'0:03.660',1.1
'0:03.664',0.99
'0:03.668',0.79
'0:03.672',0.5
'0:03.676',0.5
'0:03.680',0.62
'0:03.684',0.58
'0:03.688',0.5
'0:03.691',0.45
'0:03.695',0.24
'0:03.699',-0.15
'0:03.703',-0.6
'0:03.707',-1.03
'0:03.711',-1.58
'0:03.715',-2.3
'0:03.719',-2.94
'0:03.723',-3.31
'0:03.727',-3.44
'0:03.730',-3.64
'0:03.734',-3.7
'0:03.738',-4.12
'0:03.742',-4.62
'0:03.746',-4.73
'0:03.750',-4.66
'0:03.754',-4.56
'0:03.758',-4.52
'0:03.762',-4.59
'0:03.766',-4.77
'0:03.770',-4.98
'0:03.773',-5.11
'0:03.777',-3.97
'0:03.781',-1.57
'0:03.785',1.52
'0:03.789',5.19
'0:03.793',8.41
'0:03.797',9.19
'0:03.801',6.73
'0:03.805',2.07
'0:03.809',-3.19
'0:03.813',-7.18
'0:03.816',-9.48
'0:03.820',-10.24
'0:03.824',-10.03
'0:03.828',-9.19
'0:03.832',-7.56
'0:03.836',-5.7
'0:03.840',-4.57
'0:03.844',-3.87
'0:03.848',-3.15
'0:03.852',-2.46
'0:03.855',-2.16
'0:03.859',-1.99
'0:03.863',-1.75
'0:03.867',-1.44
'0:03.871',-1.02
'0:03.875',-0.63
'0:03.879',-0.26
'0:03.883',0.14
'0:03.887',0.56
'0:03.891',0.87
'0:03.895',1.24
'0:03.898',1.71
'0:03.902',2.21
'0:03.906',2.6
'0:03.910',2.87
'0:03.914',3.45
'0:03.918',3.79
'0:03.922',3.91
'0:03.926',3.72
'0:03.930',2.87
'0:03.934',2.36
'0:03.938',2.03
'0:03.941',1.84
'0:03.945',1.67
'0:03.949',1.1
'0:03.953',0.47
'0:03.957',-0.03
'0:03.961',-0.2
'0:03.965',-0.12
'0:03.969',0.25
'0:03.973',0.31
'0:03.977',0.52
'0:03.980',0.97
'0:03.984',1.15
'0:03.988',1.2
'0:03.992',1.29
'0:03.996',1.26
'0:04.000',1.65
'0:04.004',1.86
'0:04.008',1.8
'0:04.012',1.9
'0:04.016',1.74
'0:04.020',1.56
'0:04.023',1.39
'0:04.027',0.83
'0:04.031',0.35
'0:04.035',-0.02
'0:04.039',-0.29
'0:04.043',-0.7
'0:04.047',-0.9
'0:04.051',-1.52
'0:04.055',-2.08
'0:04.059',-2.28
'0:04.063',-2.48
'0:04.066',-2.41
'0:04.070',-2.48
'0:04.074',-2.75
'0:04.078',-2.94
'0:04.082',-3.03
'0:04.086',-3
'0:04.090',-2.81
'0:04.094',-3.23
'0:04.098',-3.29
'0:04.102',-2.64
'0:04.105',-0.96
'0:04.109',1.73
'0:04.113',5.36
'0:04.117',8.92
'0:04.121',10.43
'0:04.125',9.05
'0:04.129',4.91
'0:04.133',-0.87
'0:04.137',-5.49
'0:04.141',-8.1
'0:04.145',-8.98
'0:04.148',-8.44
'0:04.152',-7.27
'0:04.156',-5.68
'0:04.160',-3.8
'0:04.164',-2.53
'0:04.168',-2.02
'0:04.172',-1.98
'0:04.176',-1.87
'0:04.180',-1.1
'0:04.184',-0.32
'0:04.188',0.48
'0:04.191',0.96
'0:04.195',0.79
'0:04.199',0.75
'0:04.203',1.36
'0:04.207',2
'0:04.211',2
'0:04.215',2.25
'0:04.219',2.99
'0:04.223',3.7
'0:04.227',3.77
'0:04.230',3.66
'0:04.234',3.99
'0:04.238',5.04
'0:04.242',5.48
'0:04.246',5.54
'0:04.250',5.43
'0:04.254',5.01
'0:04.258',4.46
'0:04.262',4.01
'0:04.266',3.53
'0:04.270',3.23
'0:04.273',3
'0:04.277',2.61
'0:04.281',2
'0:04.285',1.76
'0:04.289',1.76
'0:04.293',1.68
'0:04.297',2.04
'0:04.301',2.32
'0:04.305',2.26
'0:04.309',2.52
'0:04.313',2.4
'0:04.316',2.06
'0:04.320',1.64
'0:04.324',1.58
'0:04.328',1.7
'0:04.332',2
'0:04.336',2.4
'0:04.340',2.47
'0:04.344',2.26
'0:04.348',1.92
'0:04.352',1.64
'0:04.355',1.26
'0:04.359',0.72
'0:04.363',0.28
'0:04.367',-0.17
'0:04.371',-0.76
'0:04.375',-1.18
'0:04.379',-1.54
'0:04.383',-1.68
'0:04.387',-1.73
'0:04.391',-1.8
'0:04.395',-1.81
'0:04.398',-1.73
'0:04.402',-1.74
'0:04.406',-1.73
'0:04.410',-1.66
'0:04.414',-1.98
'0:04.418',-2.33
'0:04.422',-2.57
'0:04.426',-1.61
'0:04.430',0.1
'0:04.434',2.79
'0:04.438',6.53
'0:04.441',10.13
'0:04.445',11.31
'0:04.449',9.27
'0:04.453',4.87
'0:04.457',-0.76
'0:04.461',-5.54
'0:04.465',-8.37
'0:04.469',-9.31
'0:04.473',-8.69
'0:04.477',-7.12
'0:04.480',-5.38
'0:04.484',-4
'0:04.488',-3.21
'0:04.492',-2.65
'0:04.496',-2.09
'0:04.500',-1.53
'0:04.504',-0.9
'0:04.508',-0.39
'0:04.512',-0.19
'0:04.516',-0.01
'0:04.520',0.27
'0:04.523',0.65
'0:04.527',0.95
'0:04.531',1
'0:04.535',1.38
'0:04.539',1.97
'0:04.543',2.33
'0:04.547',2.49
'0:04.551',2.93
'0:04.555',3.37
'0:04.559',3.51
'0:04.563',3.53
'0:04.566',3.56
'0:04.570',3.49
'0:04.574',3.51
'0:04.578',3.56
'0:04.582',3.22
'0:04.586',2.72
'0:04.590',2.15
'0:04.594',1.49
'0:04.598',0.83
'0:04.602',0.33
'0:04.605',-0.05
'0:04.609',-0.58
'0:04.613',-1.14
'0:04.617',-1.56
'0:04.621',-1.8
'0:04.625',-1.85
'0:04.629',-1.75
'0:04.633',-1.59
'0:04.637',-1.45
'0:04.641',-1.38
'0:04.645',-1.41
'0:04.648',-1.41
'0:04.652',-1.32
'0:04.656',-1.11
'0:04.660',-1.15
'0:04.664',-1.17
'0:04.668',-1.11
'0:04.672',-1.09
'0:04.676',-1.2
'0:04.680',-1.3
'0:04.684',-1.6
'0:04.688',-1.99
'0:04.691',-2.55
'0:04.695',-3.39
'0:04.699',-4.05
'0:04.703',-4.46
'0:04.707',-4.68
'0:04.711',-5
'0:04.715',-5.02
'0:04.719',-4.96
'0:04.723',-4.81
'0:04.727',-4.73
'0:04.730',-4.7
'0:04.734',-4.83
'0:04.738',-4.92
'0:04.742',-4.86
'0:04.746',-4.84
'0:04.750',-5
'0:04.754',-4.9
'0:04.758',-3.55
'0:04.762',-0.84
'0:04.766',2.38
'0:04.770',5.84
'0:04.773',8.41
'0:04.777',8.41
'0:04.781',5.54
'0:04.785',0.81
'0:04.789',-3.83
'0:04.793',-6.95
'0:04.797',-8.72
'0:04.801',-9.43
'0:04.805',-9.01
'0:04.809',-7.58
'0:04.813',-5.95
'0:04.816',-4.65
'0:04.820',-3.75
'0:04.824',-3.13
'0:04.828',-2.54
'0:04.832',-2.21
'0:04.836',-2.04
'0:04.840',-1.9
'0:04.844',-1.57
'0:04.848',-1.23
'0:04.852',-0.65
'0:04.855',-0.14
'0:04.859',0.09
'0:04.863',0.27
'0:04.867',0.7
'0:04.871',1
'0:04.875',1.29
'0:04.879',2.06
'0:04.883',3.23
'0:04.887',3.42
'0:04.891',3.18
'0:04.895',3
'0:04.898',2.96
'0:04.902',3.07
'0:04.906',3.01
'0:04.910',2.56
'0:04.914',2.31
'0:04.918',2.16
'0:04.922',1.67
'0:04.926',1.06
'0:04.930',0.29
'0:04.934',-0.39
'0:04.938',-0.66
'0:04.941',-0.75
'0:04.945',-0.73
'0:04.949',-0.39
'0:04.953',0.07
'0:04.957',0.61
'0:04.961',0.89
'0:04.965',1.04
'0:04.969',1.16
'0:04.973',1.3
'0:04.977',1.3
'0:04.980',0.86
'0:04.984',0.63
'0:04.988',0.69
'0:04.992',0.94
'0:04.996',1.08
'0:05.000',1.03
'0:05.004',1.11
'0:05.008',1.54
'0:05.012',1.52
'0:05.016',0.52
'0:05.020',-0.78
'0:05.023',-2
'0:05.027',-2.77
'0:05.031',-2.91
'0:05.035',-2.77
'0:05.039',-2.55
'0:05.043',-2.57
'0:05.047',-2.43
'0:05.051',-2.39
'0:05.055',-2.48
'0:05.059',-2.51
'0:05.063',-2.65
'0:05.066',-2.82
'0:05.070',-2.71
'0:05.074',-2.87
'0:05.078',-2.73
'0:05.082',-1.93
'0:05.086',0.05
'0:05.090',2.82
'0:05.094',6.11
'0:05.098',8.94
'0:05.102',9.77
'0:05.105',7.74
'0:05.109',3.73
'0:05.113',-0.92
'0:05.117',-4.31
'0:05.121',-6.91
'0:05.125',-8.53
'0:05.129',-8.69
'0:05.133',-7.56
'0:05.137',-5.75
'0:05.141',-4.04
'0:05.145',-2.72
'0:05.148',-1.79
'0:05.152',-1.13
'0:05.156',-0.51
'0:05.160',0.06
'0:05.164',0.53
'0:05.168',0.89
'0:05.172',1.06
'0:05.176',1.38
'0:05.180',1.81
'0:05.184',2.03
'0:05.188',2.25
'0:05.191',2.63
'0:05.195',2.87
'0:05.199',3.21
'0:05.203',3.56
'0:05.207',3.92
'0:05.211',4.31
'0:05.215',4.62
'0:05.219',4.72
'0:05.223',4.86
'0:05.227',5
'0:05.230',4.77
'0:05.234',4.67
'0:05.238',4.52
'0:05.242',4.13
'0:05.246',3.7
'0:05.250',3.27
'0:05.254',2.85
'0:05.258',2.17
'0:05.262',1.48
'0:05.266',0.98
'0:05.270',0.67
'0:05.273',0.61
'0:05.277',0.64
'0:05.281',0.69
'0:05.285',0.68
'0:05.289',0.73
'0:05.293',0.76
'0:05.297',0.71
'0:05.301',0.57
'0:05.305',0.55
'0:05.309',0.83
'0:05.313',1.09
'0:05.316',1.3
'0:05.320',1.31
'0:05.324',1.12
'0:05.328',0.99
'0:05.332',0.75
'0:05.336',0.4
'0:05.340',-0.08
'0:05.344',-0.61
'0:05.348',-1.22
'0:05.352',-1.87
'0:05.355',-2.23
'0:05.359',-2.49
'0:05.363',-2.64
'0:05.367',-2.77
'0:05.371',-2.9
'0:05.375',-2.97
'0:05.379',-2.93
'0:05.383',-2.79
'0:05.387',-2.66
'0:05.391',-2.71
'0:05.395',-2.93
'0:05.398',-3.15
'0:05.402',-3.32
'0:05.406',-3.31
'0:05.410',-2.67
'0:05.414',-0.8
'0:05.418',2.09
'0:05.422',5.6
'0:05.426',8.94
'0:05.430',10.43
'0:05.434',8.87
'0:05.438',5.01
'0:05.441',0.04
'0:05.445',-4.2
'0:05.449',-6.96
'0:05.453',-8.18
'0:05.457',-8.08
'0:05.461',-7.09
'0:05.465',-5.57
'0:05.469',-4.04
'0:05.473',-2.92
'0:05.477',-2.09
'0:05.480',-1.48
'0:05.484',-0.93
'0:05.488',-0.43
'0:05.492',-0.14
'0:05.496',0
'0:05.500',0.21
'0:05.504',0.53
'0:05.508',0.97
'0:05.512',1.33
'0:05.516',1.61
'0:05.520',1.96
'0:05.523',2.26
'0:05.527',2.63
'0:05.531',3.02
'0:05.535',3.32
'0:05.539',3.66
'0:05.543',3.94
'0:05.547',4.14
'0:05.551',4.09
'0:05.555',4
'0:05.559',3.95
'0:05.563',3.76
'0:05.566',3.27
'0:05.570',2.69
'0:05.574',2.31
'0:05.578',1.9
'0:05.582',1.47
'0:05.586',1.08
'0:05.590',0.53
'0:05.594',0.04
'0:05.598',-0.27
'0:05.602',-0.38
'0:05.605',-0.39
'0:05.609',-0.36
'0:05.613',-0.33
'0:05.617',-0.22
'0:05.621',-0.09
'0:05.625',0.09
'0:05.629',0.32
'0:05.633',0.66
'0:05.637',0.96
'0:05.641',1.13
'0:05.645',1.3
'0:05.648',1.29
'0:05.652',1.09
'0:05.656',0.78
'0:05.660',0.56
'0:05.664',0.3
'0:05.668',-0.31
'0:05.672',-1.02
'0:05.676',-1.73
'0:05.680',-2.22
'0:05.684',-2.75
'0:05.688',-3.22
'0:05.691',-3.5
'0:05.695',-3.28
'0:05.699',-3.16
'0:05.703',-3.05
'0:05.707',-2.81
'0:05.711',-2.49
'0:05.715',-2.62
'0:05.719',-2.99
'0:05.723',-3.35
'0:05.727',-3.88
'0:05.730',-4.23
'0:05.734',-3.73
'0:05.738',-2.17
'0:05.742',0.56
'0:05.746',4.01
'0:05.750',7.35
'0:05.754',9.32
'0:05.758',8.57
'0:05.762',4.72
'0:05.766',-1.34
'0:05.770',-6.32
'0:05.773',-9.27
'0:05.777',-10.28
'0:05.781',-9.81
'0:05.785',-8.21
'0:05.789',-6.45
'0:05.793',-5.08
'0:05.797',-4.19
'0:05.801',-3.33
'0:05.805',-2.44
'0:05.809',-1.96
'0:05.813',-1.5
'0:05.816',-1.01
'0:05.820',-0.99
'0:05.824',-0.98
'0:05.828',-0.46
'0:05.832',0.07
'0:05.836',0.34
'0:05.840',0.57
'0:05.844',0.87
'0:05.848',1.26
'0:05.852',1.6
'0:05.855',2.27
'0:05.859',2.67
'0:05.863',2.62
'0:05.867',2.56
'0:05.871',2.8
'0:05.875',3.26
'0:05.879',3.76
'0:05.883',3.75
'0:05.887',3.58
'0:05.891',3.29
'0:05.895',3.03
'0:05.898',2.61
'0:05.902',1.94
'0:05.906',1.3
'0:05.910',0.65
'0:05.914',0.3
'0:05.918',0.5
'0:05.922',0.48
'0:05.926',0.3
'0:05.930',0.34
'0:05.934',0.43
'0:05.938',0.66
'0:05.941',0.78
'0:05.945',0.65
'0:05.949',0.73
'0:05.953',1.06
'0:05.957',1.46
'0:05.961',1.81
'0:05.965',2.06
'0:05.969',2.2
'0:05.973',2.04
'0:05.977',1.93
'0:05.980',1.76
'0:05.984',1.46
'0:05.988',1.18
'0:05.992',0.7
'0:05.996',0.11
'0:06.000',-0.56
'0:06.004',-0.88
'0:06.008',-1.11
'0:06.012',-1.63
'0:06.016',-2.18
'0:06.020',-2.56
'0:06.023',-2.63
'0:06.027',-2.49
'0:06.031',-2.13
'0:06.035',-1.91
'0:06.039',-1.68
'0:06.043',-1.55
'0:06.047',-1.79
'0:06.051',-2.29
'0:06.055',-2.58
'0:06.059',-2.37
'0:06.063',-1.69
'0:06.066',0.06
'0:06.070',2.84
'0:06.074',6.09
'0:06.078',9.52
'0:06.082',11.6
'0:06.086',10.71
'0:06.090',7.22
'0:06.094',1.61
'0:06.098',-3.45
'0:06.102',-6.54
'0:06.105',-7.43
'0:06.109',-6.49
'0:06.113',-4.68
'0:06.117',-2.8
'0:06.121',-1.33
'0:06.125',-0.38
'0:06.129',0.21
'0:06.133',0.63
'0:06.137',0.98
'0:06.141',1.16
'0:06.145',1.3
'0:06.148',1.63
'0:06.152',1.97
'0:06.156',2.31
'0:06.160',2.57
'0:06.164',2.79
'0:06.168',2.96
'0:06.172',3.06
'0:06.176',3.23
'0:06.180',3.56
'0:06.184',4.06
'0:06.188',4.48
'0:06.191',4.85
'0:06.195',5.22
'0:06.199',5.47
'0:06.203',5.53
'0:06.207',5.45
'0:06.211',5.18
'0:06.215',4.81
'0:06.219',4.4
'0:06.223',4.07
'0:06.227',3.81
'0:06.230',3.42
'0:06.234',2.97
'0:06.238',2.46
'0:06.242',1.9
'0:06.246',1.39
'0:06.250',0.98
'0:06.254',0.73
'0:06.258',0.58
'0:06.262',0.42
'0:06.266',0.35
'0:06.270',0.32
'0:06.273',0.21
'0:06.277',0.15
'0:06.281',0.11
'0:06.285',0.1
'0:06.289',0.23
'0:06.293',0.45
'0:06.297',0.6
'0:06.301',0.64
'0:06.305',0.53
'0:06.309',0.31
'0:06.313',0.02
'0:06.316',-0.2
'0:06.320',-0.5
'0:06.324',-0.95
'0:06.328',-1.56
'0:06.332',-2.15
'0:06.336',-2.74
'0:06.340',-3.18
'0:06.344',-3.46
'0:06.348',-3.59
'0:06.352',-3.63
'0:06.355',-3.68
'0:06.359',-3.73
'0:06.363',-3.77
'0:06.367',-3.77
'0:06.371',-3.74
'0:06.375',-3.75
'0:06.379',-4.01
'0:06.383',-4.33
'0:06.387',-4.68
'0:06.391',-4.46
'0:06.395',-2.68
'0:06.398',0.67
'0:06.402',4.73
'0:06.406',8.07
'0:06.410',9.86
'0:06.414',8.76
'0:06.418',4.92
'0:06.422',-0.65
'0:06.426',-5.83
'0:06.430',-9.26
'0:06.434',-10.91
'0:06.438',-11.14
'0:06.441',-9.98
'0:06.445',-8.26
'0:06.449',-6.55
'0:06.453',-5.18
'0:06.457',-4.25
'0:06.461',-3.58
'0:06.465',-3.02
'0:06.469',-2.56
'0:06.473',-2.15
'0:06.477',-1.84
'0:06.480',-1.49
'0:06.484',-1.07
'0:06.488',-0.85
'0:06.492',-0.56
'0:06.496',-0.19
'0:06.500',0.27
'0:06.504',0.71
'0:06.508',1.19
'0:06.512',1.65
'0:06.516',2
'0:06.520',2.32
'0:06.523',2.68
'0:06.527',3.08
'0:06.531',3.22
'0:06.535',3.2
'0:06.539',3.04
'0:06.543',2.82
'0:06.547',2.62
'0:06.551',2.38
'0:06.555',2
'0:06.559',1.44
'0:06.563',0.8
'0:06.566',0.14
'0:06.570',-0.23
'0:06.574',-0.37
'0:06.578',-0.57
'0:06.582',-0.82
'0:06.586',-1.07
'0:06.590',-1.06
'0:06.594',-1.09
'0:06.598',-1.23
'0:06.602',-1.28
'0:06.605',-1.1
'0:06.609',-1.16
'0:06.613',-1.25
'0:06.617',-1.38
'0:06.621',-1.48
'0:06.625',-1.39
'0:06.629',-1.08
'0:06.633',-0.51
'0:06.637',-0.37
'0:06.641',-0.74
'0:06.645',-1.12
'0:06.648',-1.5
'0:06.652',-1.95
'0:06.656',-2.49
'0:06.660',-3.03
'0:06.664',-3.38
'0:06.668',-3.77
'0:06.672',-4.05
'0:06.676',-4.15
'0:06.680',-4.34
'0:06.684',-4.51
'0:06.688',-4.6
'0:06.691',-4.67
'0:06.695',-4.62
'0:06.699',-4.47
'0:06.703',-4.25
'0:06.707',-4.16
'0:06.711',-4.18
'0:06.715',-4.67
'0:06.719',-5.24
'0:06.723',-4.62
'0:06.727',-2.27
'0:06.730',0.87
'0:06.734',4.27
'0:06.738',7.58
'0:06.742',8.73
'0:06.746',6.73
'0:06.750',2.41
'0:06.754',-2.33
'0:06.758',-6.07
'0:06.762',-8.71
'0:06.766',-10.11
'0:06.770',-10.25
'0:06.773',-9.43
'0:06.777',-7.85
'0:06.781',-6.07
'0:06.785',-4.54
'0:06.789',-3.54
'0:06.793',-2.76
'0:06.797',-2.1
'0:06.801',-1.48
'0:06.805',-0.98
'0:06.809',-0.62
'0:06.813',-0.42
'0:06.816',-0.33
'0:06.820',-0.08
'0:06.824',0.3
'0:06.828',0.75
'0:06.832',1.22
'0:06.836',1.5
'0:06.840',1.7
'0:06.844',2.06
'0:06.848',2.64
'0:06.852',3.16
'0:06.855',3.58
'0:06.859',3.91
'0:06.863',4.18
'0:06.867',4.41
'0:06.871',4.63
'0:06.875',4.67
'0:06.879',4.44
'0:06.883',4.16
'0:06.887',4.08
'0:06.891',3.85
'0:06.895',3.49
'0:06.898',3.13
'0:06.902',2.67
'0:06.906',2.25
'0:06.910',1.97
'0:06.914',1.79
'0:06.918',1.86
'0:06.922',2.03
'0:06.926',2.32
'0:06.930',2.66
'0:06.934',2.82
'0:06.938',2.9
'0:06.941',2.99
'0:06.945',3.1
'0:06.949',3.04
'0:06.953',2.98
'0:06.957',3.02
'0:06.961',2.94
'0:06.965',2.93
'0:06.969',2.67
'0:06.973',2.17
'0:06.977',1.79
'0:06.980',1.25
'0:06.984',0.61
'0:06.988',0
'0:06.992',-0.56
'0:06.996',-0.95
'0:07.000',-1.11
'0:07.004',-1.23
'0:07.008',-1.34
'0:07.012',-1.45
'0:07.016',-1.55
'0:07.020',-1.62
'0:07.023',-1.64
'0:07.027',-1.54
'0:07.031',-1.44
'0:07.035',-1.52
'0:07.039',-1.76
'0:07.043',-2.21
'0:07.047',-2.42
'0:07.051',-1.62
'0:07.055',0.58
'0:07.059',3.72
'0:07.063',7.45
'0:07.066',10.56
'0:07.070',11.34
'0:07.074',9.55
'0:07.078',5.49
'0:07.082',0.21
'0:07.086',-3.99
'0:07.090',-6.54
'0:07.094',-7.66
'0:07.098',-7.66
'0:07.102',-6.61
'0:07.105',-4.95
'0:07.109',-3.25
'0:07.113',-1.89
'0:07.117',-0.95
'0:07.121',-0.29
'0:07.125',0.12
'0:07.129',0.37
'0:07.133',0.68
'0:07.137',0.97
'0:07.141',1.29
'0:07.145',1.52
'0:07.148',1.74
'0:07.152',1.97
'0:07.156',2.22
'0:07.160',2.66
'0:07.164',3.07
'0:07.168',3.44
'0:07.172',3.88
'0:07.176',4.44
'0:07.180',4.99
'0:07.184',5.35
'0:07.188',5.55
'0:07.191',5.79
'0:07.195',5.81
'0:07.199',5.76
'0:07.203',5.46
'0:07.207',4.92
'0:07.211',4.3
'0:07.215',3.53
'0:07.219',2.97
'0:07.223',2.34
'0:07.227',1.81
'0:07.230',1.39
'0:07.234',0.78
'0:07.238',0.26
'0:07.242',-0.06
'0:07.246',-0.2
'0:07.250',-0.19
'0:07.254',-0.18
'0:07.258',-0.26
'0:07.262',-0.36
'0:07.266',-0.4
'0:07.270',-0.48
'0:07.273',-0.6
'0:07.277',-0.46
'0:07.281',-0.28
'0:07.285',-0.24
'0:07.289',-0.24
'0:07.293',-0.35
'0:07.297',-0.56
'0:07.301',-0.92
'0:07.305',-1.15
'0:07.309',-1.49
'0:07.313',-2.03
'0:07.316',-2.6
'0:07.320',-3.27
'0:07.324',-3.79
'0:07.328',-4.17
'0:07.332',-4.59
'0:07.336',-4.88
'0:07.340',-4.9
'0:07.344',-4.61
'0:07.348',-4.44
'0:07.352',-4.25
'0:07.355',-4.05
'0:07.359',-4.05
'0:07.363',-4.53
'0:07.367',-5.25
'0:07.371',-5.78
'0:07.375',-5.35
'0:07.379',-3.61
'0:07.383',-0.44
'0:07.387',3.43
'0:07.391',7.49
'0:07.395',9.73
'0:07.398',8.97
'0:07.402',5.56
'0:07.406',0.29
'0:07.410',-5.27
'0:07.414',-9.11
'0:07.418',-11.08
'0:07.422',-11.23
'0:07.426',-10.15
'0:07.430',-8.33
'0:07.434',-6.38
'0:07.438',-4.62
'0:07.441',-3.54
'0:07.445',-2.86
'0:07.449',-2.07
'0:07.453',-1.64
'0:07.457',-1.4
'0:07.461',-1.14
'0:07.465',-0.79
'0:07.469',-0.44
'0:07.473',-0.06
'0:07.477',0.36
'0:07.480',0.66
'0:07.484',1.07
'0:07.488',1.51
'0:07.492',1.82
'0:07.496',2.19
'0:07.500',2.85
'0:07.504',3.46
'0:07.508',3.9
'0:07.512',4.07
'0:07.516',4.17
'0:07.520',4.21
'0:07.523',4.06
'0:07.527',3.84
'0:07.531',3.54
'0:07.535',3.2
'0:07.539',2.83
'0:07.543',2.31
'0:07.547',1.72
'0:07.551',1.02
'0:07.555',0.65
'0:07.559',0.38
'0:07.563',-0.09
'0:07.566',-0.45
'0:07.570',-0.69
'0:07.574',-0.83
'0:07.578',-0.87
'0:07.582',-0.95
'0:07.586',-0.68
'0:07.590',-0.37
'0:07.594',-0.49
'0:07.598',-0.38
'0:07.602',-0.51
'0:07.605',-0.71
'0:07.609',-0.62
'0:07.613',-0.62
'0:07.617',-0.77
'0:07.621',-0.67
'0:07.625',-0.3
'0:07.629',-0.22
'0:07.633',-0.49
'0:07.637',-0.72
'0:07.641',-1.09
'0:07.645',-1.62
'0:07.648',-2.41
'0:07.652',-3.2
'0:07.656',-3.83
'0:07.660',-4.22
'0:07.664',-4.33
'0:07.668',-4.2
'0:07.672',-4.09
'0:07.676',-4.19
'0:07.680',-4.2
'0:07.684',-4.09
'0:07.688',-4.04
'0:07.691',-3.99
'0:07.695',-3.92
'0:07.699',-4
'0:07.703',-4.05
'0:07.707',-3.61
'0:07.711',-2.28
'0:07.715',0.14
'0:07.719',3.37
'0:07.723',7.01
'0:07.727',9.72
'0:07.730',9.87
'0:07.734',7.15
'0:07.738',2.46
'0:07.742',-2.35
'0:07.746',-5.78
'0:07.750',-7.75
'0:07.754',-8.39
'0:07.758',-8.08
'0:07.762',-6.79
'0:07.766',-5
'0:07.770',-3.3
'0:07.773',-2.01
'0:07.777',-1.08
'0:07.781',-0.43
'0:07.785',0.1
'0:07.789',0.48
'0:07.793',0.8
'0:07.797',0.93
'0:07.801',1.06
'0:07.805',1.28
'0:07.809',1.58
'0:07.813',1.98
'0:07.816',2.29
'0:07.820',2.69
'0:07.824',3.2
'0:07.828',3.79
'0:07.832',4.41
'0:07.836',4.85
'0:07.840',5.18
'0:07.844',5.4
'0:07.848',5.46
'0:07.852',5.42
'0:07.855',5.34
'0:07.859',5.18
'0:07.863',4.83
'0:07.867',4.42
'0:07.871',3.92
'0:07.875',3.32
'0:07.879',2.75
'0:07.883',2.37
'0:07.887',2.2
'0:07.891',1.94
'0:07.895',1.74
'0:07.898',1.58
'0:07.902',1.51
'0:07.906',1.65
'0:07.910',1.88
'0:07.914',1.88
'0:07.918',1.79
'0:07.922',1.78
'0:07.926',1.8
'0:07.930',1.88
'0:07.934',1.88
'0:07.938',1.96
'0:07.941',1.91
'0:07.945',1.95
'0:07.949',1.94
'0:07.953',1.75
'0:07.957',1.45
'0:07.961',1.08
'0:07.965',0.69
'0:07.969',0.28
'0:07.973',-0.2
'0:07.977',-0.8
'0:07.980',-1.34
'0:07.984',-1.74
'0:07.988',-1.96
'0:07.992',-2.11
'0:07.996',-2.21
'0:08.000',-2.24
'0:08.004',-2.37
'0:08.008',-2.43
'0:08.012',-2.52
'0:08.016',-2.69
'0:08.020',-2.92
'0:08.023',-3.28
'0:08.027',-3.75
'0:08.031',-3.79
'0:08.035',-3.09
'0:08.039',-0.94
'0:08.043',2.44
'0:08.047',6.44
'0:08.051',10.4
'0:08.055',11.95
'0:08.059',10.3
'0:08.063',6.18
'0:08.066',0.13
'0:08.070',-4.94
'0:08.074',-7.9
'0:08.078',-9.12
'0:08.082',-8.82
'0:08.086',-7.8
'0:08.090',-6.39
'0:08.094',-4.9
'0:08.098',-3.61
'0:08.102',-2.63
'0:08.105',-1.83
'0:08.109',-1.32
'0:08.113',-0.99
'0:08.117',-0.68
'0:08.121',-0.2
'0:08.125',0.09
'0:08.129',0.28
'0:08.133',0.55
'0:08.137',1.09
'0:08.141',1.74
'0:08.145',2.19
'0:08.148',2.5
'0:08.152',2.64
'0:08.156',2.91
'0:08.160',3.27
'0:08.164',3.79
'0:08.168',4.31
'0:08.172',4.59
'0:08.176',4.84
'0:08.180',4.95
'0:08.184',4.82
'0:08.188',4.4
'0:08.191',3.93
'0:08.195',3.34
'0:08.199',2.65
'0:08.203',2.17
'0:08.207',1.66
'0:08.211',0.95
'0:08.215',0.45
'0:08.219',0.13
'0:08.223',-0.29
'0:08.227',-0.59
'0:08.230',-0.81
'0:08.234',-0.85
'0:08.238',-0.72
'0:08.242',-0.51
'0:08.246',-0.33
'0:08.250',-0.37
'0:08.254',-0.58
'0:08.258',-0.52
'0:08.262',-0.47
'0:08.266',-0.35
'0:08.270',-0.19
'0:08.273',-0.06
'0:08.277',0.1
'0:08.281',0.11
'0:08.285',-0.05
'0:08.289',-0.23
'0:08.293',-0.44
'0:08.297',-0.94
'0:08.301',-1.83
'0:08.305',-2.64
'0:08.309',-3.06
'0:08.313',-3.32
'0:08.316',-3.49
'0:08.320',-3.78
'0:08.324',-3.92
'0:08.328',-3.9
'0:08.332',-3.79
'0:08.336',-3.67
'0:08.340',-3.54
'0:08.344',-3.43
'0:08.348',-3.63
'0:08.352',-4.16
'0:08.355',-4.6
'0:08.359',-4.82
'0:08.363',-4.39
'0:08.367',-2.77
'0:08.371',0.31
'0:08.375',4.23
'0:08.379',8.33
'0:08.383',11.34
'0:08.387',11.05
'0:08.391',7.37
'0:08.395',1.73
'0:08.398',-3.96
'0:08.402',-7.96
'0:08.406',-10.07
'0:08.410',-10.31
'0:08.414',-9.19
'0:08.418',-7.59
'0:08.422',-6.03
'0:08.426',-4.48
'0:08.430',-3.4
'0:08.434',-2.85
'0:08.438',-2.38
'0:08.441',-2.07
'0:08.445',-1.57
'0:08.449',-1.01
'0:08.453',-0.55
'0:08.457',-0.51
'0:08.461',-0.29
'0:08.465',0.09
'0:08.469',0.31
'0:08.473',0.45
'0:08.477',0.71
'0:08.480',1.13
'0:08.484',1.68
'0:08.488',2.14
'0:08.492',2.61
'0:08.496',2.69
'0:08.500',2.43
'0:08.504',2.3
'0:08.508',2.4
'0:08.512',2.56
'0:08.516',2.43
'0:08.520',2.21
'0:08.523',2.06
'0:08.527',1.87
'0:08.531',1.43
'0:08.535',0.93
'0:08.539',0.64
'0:08.543',0.42
'0:08.547',-0.06
'0:08.551',-0.63
'0:08.555',-1.19
'0:08.559',-1.43
'0:08.563',-1.28
'0:08.566',-0.89
'0:08.570',-0.52
'0:08.574',-0.54
'0:08.578',-0.69
'0:08.582',-0.73
'0:08.586',-0.51
'0:08.590',-0.21
'0:08.594',0.11
'0:08.598',0.31
'0:08.602',0.48
'0:08.605',0.7
'0:08.609',0.72
'0:08.613',0.53
'0:08.617',0.24
'0:08.621',0.05
'0:08.625',-0.24
'0:08.629',-0.6
'0:08.633',-1.08
'0:08.637',-1.69
'0:08.641',-2.15
'0:08.645',-2.37
'0:08.648',-2.47
'0:08.652',-2.55
'0:08.656',-2.65
'0:08.660',-2.75
'0:08.664',-2.82
'0:08.668',-2.8
'0:08.672',-2.66
'0:08.676',-2.67
'0:08.680',-3.05
'0:08.684',-3.82
'0:08.688',-4.32
'0:08.691',-4.39
'0:08.695',-3.87
'0:08.699',-1.8
'0:08.703',1.25
'0:08.707',4.73
'0:08.711',8.34
'0:08.715',10.27
'0:08.719',9.39
'0:08.723',5.88
'0:08.727',0.57
'0:08.730',-3.99
'0:08.734',-6.9
'0:08.738',-8.01
'0:08.742',-7.74
'0:08.746',-6.66
'0:08.750',-5.23
'0:08.754',-3.79
'0:08.758',-2.54
'0:08.762',-1.39
'0:08.766',-0.5
'0:08.770',-0.16
'0:08.773',0.09
'0:08.777',0.81
'0:08.781',1.7
'0:08.785',2.33
'0:08.789',2.75
'0:08.793',3.11
'0:08.797',3.11
'0:08.801',3.18
'0:08.805',3.58
'0:08.809',4.11
'0:08.813',4.55
'0:08.816',4.87
'0:08.820',5.4
'0:08.824',5.86
'0:08.828',5.8
'0:08.832',5.52
'0:08.836',5.58
'0:08.840',5.51
'0:08.844',4.92
'0:08.848',4.44
'0:08.852',4.08
'0:08.855',3.8
'0:08.859',3.19
'0:08.863',2.54
'0:08.867',1.95
'0:08.871',1.23
'0:08.875',0.71
'0:08.879',0.23
'0:08.883',-0.15
'0:08.887',-0.09
'0:08.891',0.29
'0:08.895',0.23
'0:08.898',0.33
'0:08.902',0.43
'0:08.906',0.38
'0:08.910',0.2
'0:08.914',0.14
'0:08.918',-0.19
'0:08.922',-0.23
'0:08.926',0.14
'0:08.930',0.22
'0:08.934',0.16
'0:08.938',0.04
'0:08.941',0
'0:08.945',0.07
'0:08.949',-0.29
'0:08.953',-0.86
'0:08.957',-1.82
'0:08.961',-2.41
'0:08.965',-2.67
'0:08.969',-2.51
'0:08.973',-2.99
'0:08.977',-3.59
'0:08.980',-3.75
'0:08.984',-3.8
'0:08.988',-3.61
'0:08.992',-3.36
'0:08.996',-3.16
'0:09.000',-3
'0:09.004',-2.79
'0:09.008',-2.64
'0:09.012',-2.92
'0:09.016',-3.32
'0:09.020',-3.44
'0:09.023',-2.37
'0:09.027',0.74
'0:09.031',4.75
'0:09.035',8.82
'0:09.039',11.83
'0:09.043',12.09
'0:09.047',9.03
'0:09.051',3.35
'0:09.055',-2.71
'0:09.059',-6.73
'0:09.063',-8.69
'0:09.066',-8.98
'0:09.070',-7.98
'0:09.074',-6.14
'0:09.078',-4.32
'0:09.082',-2.76
'0:09.086',-1.73
'0:09.090',-1.07
'0:09.094',-0.64
'0:09.098',-0.36
'0:09.102',-0.29
'0:09.105',-0.22
'0:09.109',-0.01
'0:09.113',0.37
'0:09.117',0.85
'0:09.121',1.29
'0:09.125',1.8
'0:09.129',2.32
'0:09.133',2.77
'0:09.137',3.06
'0:09.141',3.21
'0:09.145',3.65
'0:09.148',4.12
'0:09.152',4.61
'0:09.156',4.98
'0:09.160',5.32
'0:09.164',5.58
'0:09.168',5.51
'0:09.172',5.37
'0:09.176',5.02
'0:09.180',4.73
'0:09.184',4.35
'0:09.188',3.84
'0:09.191',3.18
'0:09.195',2.65
'0:09.199',2.13
'0:09.203',1.53
'0:09.207',0.98
'0:09.211',0.53
'0:09.215',0.18
'0:09.219',-0.1
'0:09.223',-0.06
'0:09.227',0.07
'0:09.230',-0.05
'0:09.234',-0.23
'0:09.238',-0.29
'0:09.242',-0.53
'0:09.246',-0.79
'0:09.250',-0.86
'0:09.254',-0.62
'0:09.258',-0.47
'0:09.262',-0.28
'0:09.266',-0.3
'0:09.270',-0.56
'0:09.273',-0.76
'0:09.277',-0.85
'0:09.281',-0.89
'0:09.285',-1.3
'0:09.289',-2.04
'0:09.293',-2.85
'0:09.297',-3.48
'0:09.301',-3.99
'0:09.305',-4.32
'0:09.309',-4.63
'0:09.313',-4.93
'0:09.316',-5.02
'0:09.320',-4.57
'0:09.324',-4.18
'0:09.328',-4.08
'0:09.332',-3.64
'0:09.336',-3.19
'0:09.340',-3.38
'0:09.344',-3.96
'0:09.348',-4.55
'0:09.352',-4.71
'0:09.355',-4.1
'0:09.359',-2.17
'0:09.363',1.06
'0:09.367',5.1
'0:09.371',8.89
'0:09.375',10.58
'0:09.379',9.17
'0:09.383',5.3
'0:09.387',-0.33
'0:09.391',-5.48
'0:09.395',-8.56
'0:09.398',-9.76
'0:09.402',-9.76
'0:09.406',-8.87
'0:09.410',-7.21
'0:09.414',-5.54
'0:09.418',-4.23
'0:09.422',-3.29
'0:09.426',-2.61
'0:09.430',-2.03
'0:09.434',-1.44
'0:09.438',-1.13
'0:09.441',-1.09
'0:09.445',-1.01
'0:09.449',-0.66
'0:09.453',-0.31
'0:09.457',0.02
'0:09.461',0.13
'0:09.465',0.28
'0:09.469',0.64
'0:09.473',1.19
'0:09.477',1.74
'0:09.480',2.18
'0:09.484',2.6
'0:09.488',3.1
'0:09.492',3.2
'0:09.496',2.97
'0:09.500',2.77
'0:09.504',2.67
'0:09.508',2.23
'0:09.512',2
'0:09.516',1.79
'0:09.520',1.73
'0:09.523',1.65
'0:09.527',1.12
'0:09.531',0.55
'0:09.535',0.45
'0:09.539',0.13
'0:09.543',-0.12
'0:09.547',-0.01
'0:09.551',0.14
'0:09.555',0.03
'0:09.559',0.16
'0:09.563',0.49
'0:09.566',0.72
'0:09.570',0.62
'0:09.574',0.54
'0:09.578',1.03
'0:09.582',1.38
'0:09.586',0.95
'0:09.590',0.72
'0:09.594',0.81
'0:09.598',0.98
'0:09.602',1.09
'0:09.605',1.42
'0:09.609',1.19
'0:09.613',0.33
'0:09.617',-0.41
'0:09.621',-0.76
'0:09.625',-1.11
'0:09.629',-1.81
'0:09.633',-2.6
'0:09.637',-3.01
'0:09.641',-2.92
'0:09.645',-2.91
'0:09.648',-2.86
'0:09.652',-2.82
'0:09.656',-2.82
'0:09.660',-2.84
'0:09.664',-2.73
'0:09.668',-2.72
'0:09.672',-3.2
'0:09.676',-3.65
'0:09.680',-4.12
'0:09.684',-4.18
'0:09.688',-2.96
'0:09.691',-0.04
'0:09.695',3.77
'0:09.699',7.58
'0:09.703',9.98
'0:09.707',9.46
'0:09.711',6.09
'0:09.715',0.61
'0:09.719',-4.34
'0:09.723',-7.21
'0:09.727',-8.44
'0:09.730',-8.76
'0:09.734',-7.75
'0:09.738',-5.72
'0:09.742',-3.45
'0:09.746',-1.65
'0:09.750',-0.89
'0:09.754',-0.62
'0:09.758',-0.16
'0:09.762',0.31
'0:09.766',0.54
'0:09.770',1.24
'0:09.773',1.69
'0:09.777',1.95
'0:09.781',1.99
'0:09.785',2.42
'0:09.789',2.76
'0:09.793',2.87
'0:09.797',3.22
'0:09.801',3.91
'0:09.805',4.5
'0:09.809',4.59
'0:09.813',4.59
'0:09.816',5.16
'0:09.820',5.73
'0:09.824',6.1
'0:09.828',6.27
'0:09.832',6.29
'0:09.836',6.05
'0:09.840',5.44
'0:09.844',4.97
'0:09.848',4.58
'0:09.852',4.15
'0:09.855',3.57
'0:09.859',3.23
'0:09.863',3
'0:09.867',2.42
'0:09.871',1.9
'0:09.875',1.44
'0:09.879',1.4
'0:09.883',1.83
'0:09.887',2.08
'0:09.891',2.08
'0:09.895',2.01
'0:09.898',1.73
'0:09.902',1.6
'0:09.906',1.97
'0:09.910',1.88
'0:09.914',1.62
'0:09.918',1.35
'0:09.922',1.29
'0:09.926',1.33
'0:09.930',1.13
'0:09.934',0.96
'0:09.938',0.75
'0:09.941',0.37
'0:09.945',-0.32
'0:09.949',-1.03
'0:09.953',-1.69
'0:09.957',-2.17
'0:09.961',-2.41
'0:09.965',-2.41
'0:09.969',-2.48
'0:09.973',-2.48
'0:09.977',-2.59
'0:09.980',-2.77
'0:09.984',-2.8
'0:09.988',-2.75
'0:09.992',-2.82
'0:09.996',-2.92
'0:10.000',-2.92
'0:10.004',-2.99
'0:10.008',-2.86
'0:10.012',-1.85
'0:10.016',0.83
'0:10.020',4.57
'0:10.023',8.82
'0:10.027',12.09
'0:10.031',12.44
'0:10.035',9.44
'0:10.039',3.9
'0:10.043',-2.45
'0:10.047',-7.33
'0:10.051',-9.99
'0:10.055',-10.74
'0:10.059',-9.81
'0:10.063',-7.94
'0:10.066',-5.95
'0:10.070',-4.36
'0:10.074',-3.37
'0:10.078',-2.74
'0:10.082',-2.2
'0:10.086',-1.79
'0:10.090',-1.42
'0:10.094',-1.2
'0:10.098',-0.84
'0:10.102',-0.45
'0:10.105',-0.22
'0:10.109',0
'0:10.113',0.08
'0:10.117',0.12
'0:10.121',0.38
'0:10.125',0.87
'0:10.129',1.44
'0:10.133',2.09
'0:10.137',2.59
'0:10.141',2.98
'0:10.145',3.28
'0:10.148',3.35
'0:10.152',3.25
'0:10.156',3.17
'0:10.160',3.24
'0:10.164',3.35
'0:10.168',2.9
'0:10.172',2.34
'0:10.176',1.9
'0:10.180',1.43
'0:10.184',0.99
'0:10.188',0.47
'0:10.191',-0.12
'0:10.195',-0.81
'0:10.199',-1.23
'0:10.203',-1.43
'0:10.207',-1.51
'0:10.211',-1.53
'0:10.215',-1.55
'0:10.219',-1.4
'0:10.223',-1.14
'0:10.227',-1.16
'0:10.230',-1.38
'0:10.234',-1.51
'0:10.238',-1.62
'0:10.242',-1.58
'0:10.246',-1.35
'0:10.250',-0.93
'0:10.254',-0.82
'0:10.258',-0.84
'0:10.262',-1.06
'0:10.266',-1.23
'0:10.270',-1.24
'0:10.273',-1.56
'0:10.277',-2.22
'0:10.281',-2.89
'0:10.285',-3.64
'0:10.289',-4.19
'0:10.293',-4.47
'0:10.297',-4.55
'0:10.301',-4.57
'0:10.305',-4.76
'0:10.309',-4.96
'0:10.313',-4.98
'0:10.316',-4.97
'0:10.320',-4.83
'0:10.324',-4.66
'0:10.328',-4.83
'0:10.332',-5.41
'0:10.336',-5.76
'0:10.340',-5.64
'0:10.344',-4.76
'0:10.348',-2.41
'0:10.352',0.93
'0:10.355',4.69
'0:10.359',8.12
'0:10.363',9.6
'0:10.367',7.71
'0:10.371',3.45
'0:10.375',-1.78
'0:10.379',-5.99
'0:10.383',-8.8
'0:10.387',-10.05
'0:10.391',-10.05
'0:10.395',-9.18
'0:10.398',-7.75
'0:10.402',-6.21
'0:10.406',-4.8
'0:10.410',-3.45
'0:10.414',-2.39
'0:10.418',-1.89
'0:10.422',-1.6
'0:10.426',-1.37
'0:10.430',-0.9
'0:10.434',-0.45
'0:10.438',-0.36
'0:10.441',-0.43
'0:10.445',-0.21
'0:10.449',0.33
'0:10.453',1
'0:10.457',1.78
'0:10.461',2.21
'0:10.465',2.4
'0:10.469',2.7
'0:10.473',2.99
'0:10.477',3.51
'0:10.480',3.75
'0:10.484',3.81
'0:10.488',3.83
'0:10.492',3.94
'0:10.496',3.67
'0:10.500',3.38
'0:10.504',3.23
'0:10.508',2.87
'0:10.512',2.37
'0:10.516',1.89
'0:10.520',1.46
'0:10.523',0.88
'0:10.527',0.64
'0:10.531',0.4
'0:10.535',0.27
'0:10.539',0.39
'0:10.543',0.76
'0:10.547',1.35
'0:10.551',1.7
'0:10.555',1.83
'0:10.559',1.74
'0:10.563',1.68
'0:10.566',1.9
'0:10.570',1.74
'0:10.574',2.03
'0:10.578',2.41
'0:10.582',2.89
'0:10.586',3.03
'0:10.590',2.61
'0:10.594',2.23
'0:10.598',2.14
'0:10.602',2.02
'0:10.605',1.25
'0:10.609',0.45
'0:10.613',-0.14
'0:10.617',-0.66
'0:10.621',-0.8
'0:10.625',-0.9
'0:10.629',-1.55
'0:10.633',-2.12
'0:10.637',-2.38
'0:10.641',-2.37
'0:10.645',-2.18
'0:10.648',-1.77
'0:10.652',-1.13
'0:10.656',-0.73
'0:10.660',-0.81
'0:10.664',-1.25
'0:10.668',-1.9
'0:10.672',-1.95
'0:10.676',-0.82
'0:10.680',1.9
'0:10.684',5.4
'0:10.688',9.39
'0:10.691',12.25
'0:10.695',11.86
'0:10.699',8.46
'0:10.703',3.06
'0:10.707',-2
'0:10.711',-5.06
'0:10.715',-6.7
'0:10.719',-7.09
'0:10.723',-6.19
'0:10.727',-4.7
'0:10.730',-3.23
'0:10.734',-2.03
'0:10.738',-1.12
'0:10.742',-0.38
'0:10.746',0.43
'0:10.750',0.95
'0:10.754',1.07
'0:10.758',0.91
'0:10.762',0.9
'0:10.766',1.07
'0:10.770',1.54
'0:10.773',2.33
'0:10.777',3.12
'0:10.781',3.91
'0:10.785',4.41
'0:10.789',4.49
'0:10.793',4.49
'0:10.797',4.6
'0:10.801',4.91
'0:10.805',5.47
'0:10.809',6.03
'0:10.813',6.31
'0:10.816',6.17
'0:10.820',5.93
'0:10.824',5.62
'0:10.828',5.25
'0:10.832',4.73
'0:10.836',4.23
'0:10.840',3.74
'0:10.844',3.22
'0:10.848',2.66
'0:10.852',2.02
'0:10.855',1.5
'0:10.859',1.18
'0:10.863',0.99
'0:10.867',0.67
'0:10.871',0.49
'0:10.875',0.33
'0:10.879',0.2
'0:10.883',-0.05
'0:10.887',-0.49
'0:10.891',-0.89
'0:10.895',-0.93
'0:10.898',-0.78
'0:10.902',-0.47
'0:10.906',-0.06
'0:10.910',0.08
'0:10.914',0.15
'0:10.918',0.15
'0:10.922',0.08
'0:10.926',-0.08
'0:10.930',-0.27
'0:10.934',-0.71
'0:10.938',-1.42
'0:10.941',-2.01
'0:10.945',-2.51
'0:10.949',-2.84
'0:10.953',-3.1
'0:10.957',-3.42
'0:10.961',-3.6
'0:10.965',-3.63
'0:10.969',-3.65
'0:10.973',-3.52
'0:10.977',-3.26
'0:10.980',-3
'0:10.984',-3.04
'0:10.988',-3.41
'0:10.992',-3.88
'0:10.996',-4.11
'0:11.000',-3.65
'0:11.004',-2.57
'0:11.008',-0.11
'0:11.012',3.45
'0:11.016',7.44
'0:11.020',10.65
'0:11.023',10.9
'0:11.027',8.33
'0:11.031',4.09
'0:11.035',-1.47
'0:11.039',-6.07
'0:11.043',-8.98
'0:11.047',-10.4
'0:11.051',-10.15
'0:11.055',-8.67
'0:11.059',-6.82
'0:11.063',-5.35
'0:11.066',-4.02
'0:11.070',-2.89
'0:11.074',-2.72
'0:11.078',-2.59
'0:11.082',-2.2
'0:11.086',-1.93
'0:11.090',-1.89
'0:11.094',-2.04
'0:11.098',-1.9
'0:11.102',-1.29
'0:11.105',-0.85
'0:11.109',-0.52
'0:11.113',0.13
'0:11.117',0.62
'0:11.121',0.99
'0:11.125',1.52
'0:11.129',1.94
'0:11.133',2.28
'0:11.137',2.28
'0:11.141',2.01
'0:11.145',1.74
'0:11.148',1.57
'0:11.152',1.33
'0:11.156',1.2
'0:11.160',0.85
'0:11.164',0.68
'0:11.168',0.24
'0:11.172',-0.18
'0:11.176',-0.41
'0:11.180',-0.72
'0:11.184',-1.45
'0:11.188',-2.15
'0:11.191',-2.51
'0:11.195',-2.49
'0:11.199',-2.17
'0:11.203',-1.71
'0:11.207',-1.46
'0:11.211',-1.76
'0:11.215',-1.96
'0:11.219',-1.4
'0:11.223',-1.08
'0:11.227',-1.59
'0:11.230',-1.59
'0:11.234',-1.22
'0:11.238',-1.06
'0:11.242',-1.42
'0:11.246',-1.58
'0:11.250',-1.27
'0:11.254',-0.97
'0:11.258',-0.92
'0:11.262',-1.12
'0:11.266',-1.61
'0:11.270',-2.27
'0:11.273',-2.69
'0:11.277',-2.78
'0:11.281',-2.91
'0:11.285',-3.58
'0:11.289',-4.14
'0:11.293',-4.16
'0:11.297',-4.33
'0:11.301',-4.78
'0:11.305',-4.73
'0:11.309',-4.23
'0:11.313',-3.66
'0:11.316',-3.29
'0:11.320',-3
'0:11.324',-2.99
'0:11.328',-3.23
'0:11.332',-3.74
'0:11.336',-3.57
'0:11.340',-2.07
'0:11.344',0.65
'0:11.348',4.25
'0:11.352',8.13
'0:11.355',10.96
'0:11.359',11.02
'0:11.363',8.01
'0:11.367',3.29
'0:11.371',-1
'0:11.375',-4.38
'0:11.379',-6.6
'0:11.383',-7.25
'0:11.387',-6.53
'0:11.391',-4.79
'0:11.395',-2.92
'0:11.398',-1.63
'0:11.402',-0.8
'0:11.406',0.08
'0:11.410',0.85
'0:11.414',1.34
'0:11.418',1.54
'0:11.422',2.09
'0:11.426',2.43
'0:11.430',2.82
'0:11.434',3.12
'0:11.438',3.24
'0:11.441',3.19
'0:11.445',3.17
'0:11.449',3.62
'0:11.453',4.4
'0:11.457',4.61
'0:11.461',4.82
'0:11.465',5.23
'0:11.469',5.74
'0:11.473',6.25
'0:11.477',6.53
'0:11.480',6.61
'0:11.484',6.48
'0:11.488',6.1
'0:11.492',5.55
'0:11.496',5.1
'0:11.500',5.17
'0:11.504',5.12
'0:11.508',4.25
'0:11.512',3.08
'0:11.516',2
'0:11.520',1.16
'0:11.523',1.03
'0:11.527',1.08
'0:11.531',1.13
'0:11.535',1.14
'0:11.539',1.06
'0:11.543',1.24
'0:11.547',1.56
'0:11.551',1.73
'0:11.555',1.91
'0:11.559',1.86
'0:11.563',1.55
'0:11.566',1.35
'0:11.570',1.65
'0:11.574',2.04
'0:11.578',2.2
'0:11.582',2.29
'0:11.586',2.32
'0:11.590',2.15
'0:11.594',1.88
'0:11.598',1.31
'0:11.602',0.25
'0:11.605',-0.76
'0:11.609',-1.46
'0:11.613',-1.8
'0:11.617',-1.92
'0:11.621',-1.95
'0:11.625',-1.94
'0:11.629',-1.9
'0:11.633',-1.95
'0:11.637',-1.92
'0:11.641',-1.97
'0:11.645',-2.09
'0:11.648',-2.38
'0:11.652',-2.79
'0:11.656',-3.02
'0:11.660',-3.11
'0:11.664',-2.76
'0:11.668',-1.25
'0:11.672',1.92
'0:11.676',6.02
'0:11.680',10.28
'0:11.684',12.89
'0:11.688',12.08
'0:11.691',8.31
'0:11.695',2.6
'0:11.699',-3.1
'0:11.703',-6.97
'0:11.707',-8.87
'0:11.711',-9.09
'0:11.715',-7.99
'0:11.719',-6.2
'0:11.723',-4.24
'0:11.727',-2.63
'0:11.730',-1.64
'0:11.734',-0.98
'0:11.738',-0.51
'0:11.742',-0.15
'0:11.746',0.36
'0:11.750',0.78
'0:11.754',1.02
'0:11.758',1.24
'0:11.762',1.44
'0:11.766',1.55
'0:11.770',1.71
'0:11.773',1.98
'0:11.777',2.38
'0:11.781',2.78
'0:11.785',3.14
'0:11.789',3.68
'0:11.793',4.23
'0:11.797',4.73
'0:11.801',5.13
'0:11.805',5.24
'0:11.809',5.13
'0:11.813',5.05
'0:11.816',4.93
'0:11.820',4.59
'0:11.824',3.92
'0:11.828',3.37
'0:11.832',2.97
'0:11.836',2.09
'0:11.840',1.14
'0:11.844',0.57
'0:11.848',0.18
'0:11.852',-0.28
'0:11.855',-0.47
'0:11.859',-0.93
'0:11.863',-1.47
'0:11.867',-1.79
'0:11.871',-1.89
'0:11.875',-2.09
'0:11.879',-2.23
'0:11.883',-2.41
'0:11.887',-2.21
'0:11.891',-2.19
'0:11.895',-2.29
'0:11.898',-2.19
'0:11.902',-2.09
'0:11.906',-2.05
'0:11.910',-2.01
'0:11.914',-1.75
'0:11.918',-1.84
'0:11.922',-2.42
'0:11.926',-2.67
'0:11.930',-3.13
'0:11.934',-3.62
'0:11.938',-4.27
'0:11.941',-4.75
'0:11.945',-5.06
'0:11.949',-5.26
'0:11.953',-5.64
'0:11.957',-6.13
'0:11.961',-6.54
'0:11.965',-6.6
'0:11.969',-6.29
'0:11.973',-6.06
'0:11.977',-6.01
'0:11.980',-5.95
'0:11.984',-6.09
'0:11.988',-6.47
'0:11.992',-6.66
'0:11.996',-6.58
'0:12.000',-6.05
'0:12.004',-4.08
'0:12.008',-0.47
'0:12.012',3.59
'0:12.016',7.49
'0:12.020',9.32
'0:12.023',7.53
'0:12.027',3.58
'0:12.031',-2.02
'0:12.035',-7.05
'0:12.039',-10.48
'0:12.043',-12.04
'0:12.047',-11.61
'0:12.051',-10.49
'0:12.055',-9.03
'0:12.059',-7.26
'0:12.063',-5.72
'0:12.066',-4.54
'0:12.070',-3.61
'0:12.074',-3.07
'0:12.078',-3.02
'0:12.082',-2.46
'0:12.086',-1.9
'0:12.090',-1.77
'0:12.094',-1.8
'0:12.098',-1.41
'0:12.102',-0.95
'0:12.105',-0.67
'0:12.109',-0.34
'0:12.113',-0.14
'0:12.117',0.34
'0:12.121',1.4
'0:12.125',2.3
'0:12.129',2.68
'0:12.133',2.61
'0:12.137',2.9
'0:12.141',3.15
'0:12.145',3.12
'0:12.148',3.07
'0:12.152',3.09
'0:12.156',2.62
'0:12.160',2.1
'0:12.164',2.24
'0:12.168',2.52
'0:12.172',2.37
'0:12.176',1.89
'0:12.180',1.19
'0:12.184',0.79
'0:12.188',0.93
'0:12.191',0.86
'0:12.195',0.57
'0:12.199',0.47
'0:12.203',0.64
'0:12.207',0.66
'0:12.211',1.14
'0:12.215',1.75
'0:12.219',2.28
'0:12.223',2.8
'0:12.227',3.16
'0:12.230',2.73
'0:12.234',2.35
'0:12.238',2.29
'0:12.242',2.6
'0:12.246',2.71
'0:12.250',2.39
'0:12.254',2.01
'0:12.258',1.88
'0:12.262',1.7
'0:12.266',1.33
'0:12.270',0.57
'0:12.273',-0.34
'0:12.277',-0.98
'0:12.281',-1.17
'0:12.285',-1.28
'0:12.289',-1.31
'0:12.293',-1.03
'0:12.297',-0.9
'0:12.301',-1.02
'0:12.305',-1.24
'0:12.309',-1.55
'0:12.313',-1.32
'0:12.316',-1.14
'0:12.320',-1.93
'0:12.324',-2.63
'0:12.328',-3.03
'0:12.332',-2.9
'0:12.336',-1.69
'0:12.340',0.97
'0:12.344',4.52
'0:12.348',8.42
'0:12.352',11.13
'0:12.355',11.58
'0:12.359',9.12
'0:12.363',4.11
'0:12.367',-1.1
'0:12.371',-4.88
'0:12.375',-6.97
'0:12.379',-7.6
'0:12.383',-6.88
'0:12.387',-5.06
'0:12.391',-2.91
'0:12.395',-1.38
'0:12.398',-0.61
'0:12.402',-0.02
'0:12.406',0.32
'0:12.410',0.37
'0:12.414',0.56
'0:12.418',0.88
'0:12.422',1.26
'0:12.426',1.68
'0:12.430',2.39
'0:12.434',3.09
'0:12.438',3.34
'0:12.441',3.29
'0:12.445',3.22
'0:12.449',3.43
'0:12.453',3.75
'0:12.457',4.12
'0:12.461',4.65
'0:12.465',5.21
'0:12.469',5.49
'0:12.473',5.56
'0:12.477',5.68
'0:12.480',5.77
'0:12.484',5.77
'0:12.488',5.57
'0:12.492',5.24
'0:12.496',4.69
'0:12.500',4.19
'0:12.504',3.69
'0:12.508',3.1
'0:12.512',2.43
'0:12.516',1.79
'0:12.520',1.45
'0:12.523',1.25
'0:12.527',1.12
'0:12.531',1.19
'0:12.535',1.28
'0:12.539',1.35
'0:12.543',1.42
'0:12.547',1.52
'0:12.551',1.85
'0:12.555',1.86
'0:12.559',1.86
'0:12.563',2.16
'0:12.566',2.18
'0:12.570',2
'0:12.574',1.92
'0:12.578',1.74
'0:12.582',1.27
'0:12.586',0.87
'0:12.590',0.44
'0:12.594',-0.09
'0:12.598',-0.56
'0:12.602',-1.04
'0:12.605',-1.29
'0:12.609',-1.62
'0:12.613',-2.22
'0:12.617',-2.79
'0:12.621',-3.14
'0:12.625',-3.44
'0:12.629',-3.38
'0:12.633',-3.38
'0:12.637',-3.19
'0:12.641',-3.07
'0:12.645',-3.09
'0:12.648',-3.38
'0:12.652',-3.84
'0:12.656',-4.45
'0:12.660',-4.57
'0:12.664',-3.36
'0:12.668',-0.55
'0:12.672',3.26
'0:12.676',7.71
'0:12.680',10.39
'0:12.684',9.85
'0:12.688',6.63
'0:12.691',1.63
'0:12.695',-4.11
'0:12.699',-8.44
'0:12.703',-10.63
'0:12.707',-11.25
'0:12.711',-10.51
'0:12.715',-9.02
'0:12.719',-7.29
'0:12.723',-5.59
'0:12.727',-4.46
'0:12.730',-3.82
'0:12.734',-3.19
'0:12.738',-2.73
'0:12.742',-2.58
'0:12.746',-2.33
'0:12.750',-1.58
'0:12.754',-1.39
'0:12.758',-1.37
'0:12.762',-0.9
'0:12.766',-0.61
'0:12.770',-0.41
'0:12.773',0.07
'0:12.777',0.4
'0:12.781',0.71
'0:12.785',1.44
'0:12.789',2.12
'0:12.793',2.54
'0:12.797',2.82
'0:12.801',2.84
'0:12.805',2.81
'0:12.809',2.66
'0:12.813',2.43
'0:12.816',2.3
'0:12.820',1.91
'0:12.824',1.54
'0:12.828',1.03
'0:12.832',0.5
'0:12.836',0.24
'0:12.840',-0.06
'0:12.844',-0.63
'0:12.848',-1.23
'0:12.852',-2.19
'0:12.855',-2.46
'0:12.859',-2.24
'0:12.863',-1.68
'0:12.867',-1.13
'0:12.871',-1.43
'0:12.875',-1.96
'0:12.879',-2.19
'0:12.883',-2.11
'0:12.887',-1.7
'0:12.891',-1.3
'0:12.895',-1.17
'0:12.898',-1.43
'0:12.902',-1.36
'0:12.906',-0.97
'0:12.910',-0.48
'0:12.914',-0.52
'0:12.918',-0.82
'0:12.922',-1.31
'0:12.926',-1.8
'0:12.930',-2.3
'0:12.934',-3.05
'0:12.938',-3.53
'0:12.941',-3.94
'0:12.945',-3.88
'0:12.949',-3.8
'0:12.953',-3.92
'0:12.957',-3.99
'0:12.961',-4.35
'0:12.965',-4.4
'0:12.969',-4.16
'0:12.973',-4.04
'0:12.977',-3.99
'0:12.980',-4.07
'0:12.984',-3.87
'0:12.988',-3.61
'0:12.992',-3.6
'0:12.996',-3.36
'0:13.000',-2.41
'0:13.004',-0.57
'0:13.008',2.37
'0:13.012',6.02
'0:13.016',9.48
'0:13.020',10.82
'0:13.023',8.78
'0:13.027',4.22
'0:13.031',-0.64
'0:13.035',-4.58
'0:13.039',-6.69
'0:13.043',-7.79
'0:13.047',-8.31
'0:13.051',-7.76
'0:13.055',-6.12
'0:13.059',-4.29
'0:13.063',-2.74
'0:13.066',-1.61
'0:13.070',-1
'0:13.074',-0.24
'0:13.078',0.73
'0:13.082',1.3
'0:13.086',1.66
'0:13.090',1.57
'0:13.094',1.41
'0:13.098',1.17
'0:13.102',1.25
'0:13.105',1.56
'0:13.109',2.03
'0:13.113',2.76
'0:13.117',3.56
'0:13.121',4.09
'0:13.125',4.35
'0:13.129',4.61
'0:13.133',4.72
'0:13.137',4.56
'0:13.141',4.6
'0:13.145',4.85
'0:13.148',5.19
'0:13.152',5.26
'0:13.156',4.83
'0:13.160',4.15
'0:13.164',3.47
'0:13.168',2.93
'0:13.172',2.38
'0:13.176',2.08
'0:13.180',1.96
'0:13.184',1.93
'0:13.188',1.88
'0:13.191',1.82
'0:13.195',1.55
'0:13.199',1.18
'0:13.203',1.3
'0:13.207',1.66
'0:13.211',1.71
'0:13.215',1.76
'0:13.219',2.05
'0:13.223',2.41
'0:13.227',2.48
'0:13.230',2.37
'0:13.234',2.35
'0:13.238',2.28
'0:13.242',2.21
'0:13.246',2.14
'0:13.250',2
'0:13.254',1.78
'0:13.258',1.35
'0:13.262',1.01
'0:13.266',0.47
'0:13.270',-0.27
'0:13.273',-0.84
'0:13.277',-1.21
'0:13.281',-1.53
'0:13.285',-1.83
'0:13.289',-1.92
'0:13.293',-1.9
'0:13.297',-1.85
'0:13.301',-1.83
'0:13.305',-1.77
'0:13.309',-1.63
'0:13.313',-1.38
'0:13.316',-1.24
'0:13.320',-1.48
'0:13.324',-1.89
'0:13.328',-1.73
'0:13.332',-0.65
'0:13.336',1.63
'0:13.340',4.81
'0:13.344',8.42
'0:13.348',11.26
'0:13.352',11.52
'0:13.355',8.91
'0:13.359',4.32
'0:13.363',-1.04
'0:13.367',-5.1
'0:13.371',-7.17
'0:13.375',-7.95
'0:13.379',-7.64
'0:13.383',-6.17
'0:13.387',-4.51
'0:13.391',-3.22
'0:13.395',-2.06
'0:13.398',-1.26
'0:13.402',-0.83
'0:13.406',-0.51
'0:13.410',-0.43
'0:13.414',-0.19
'0:13.418',0.39
'0:13.422',0.88
'0:13.426',1.1
'0:13.430',1.36
'0:13.434',1.49
'0:13.438',1.65
'0:13.441',1.78
'0:13.445',1.97
'0:13.449',2.46
'0:13.453',3.07
'0:13.457',3.82
'0:13.461',4.27
'0:13.465',4.53
'0:13.469',4.85
'0:13.473',4.99
'0:13.477',4.85
'0:13.480',4.44
'0:13.484',3.92
'0:13.488',3.44
'0:13.492',3.22
'0:13.496',2.76
'0:13.500',1.89
'0:13.504',1.13
'0:13.508',0.72
'0:13.512',0.43
'0:13.516',0.11
'0:13.520',-0.02
'0:13.523',-0.1
'0:13.527',-0.5
'0:13.531',-0.56
'0:13.535',-0.7
'0:13.539',-0.82
'0:13.543',-1.03
'0:13.547',-1.22
'0:13.551',-1.22
'0:13.555',-1.24
'0:13.559',-1.21
'0:13.563',-1.02
'0:13.566',-0.95
'0:13.570',-1.01
'0:13.574',-1.06
'0:13.578',-1.25
'0:13.582',-1.41
'0:13.586',-1.26
'0:13.590',-1.19
'0:13.594',-1.16
'0:13.598',-1.58
'0:13.602',-2.6
'0:13.605',-3.84
'0:13.609',-4.23
'0:13.613',-4.58
'0:13.617',-5.11
'0:13.621',-5.33
'0:13.625',-5.24
'0:13.629',-4.83
'0:13.633',-4.63
'0:13.637',-4.7
'0:13.641',-4.84
'0:13.645',-4.83
'0:13.648',-4.87
'0:13.652',-5.02
'0:13.656',-5.43
'0:13.660',-5.84
'0:13.664',-4.99
'0:13.668',-2.35
'0:13.672',1.42
'0:13.676',5.59
'0:13.680',9.21
'0:13.684',10.22
'0:13.688',8.2
'0:13.691',3.99
'0:13.695',-1.59
'0:13.699',-6.43
'0:13.703',-9.84
'0:13.707',-11.36
'0:13.711',-11.15
'0:13.715',-9.5
'0:13.719',-7.58
'0:13.723',-5.57
'0:13.727',-3.91
'0:13.730',-2.78
'0:13.734',-2.31
'0:13.738',-2.02
'0:13.742',-1.7
'0:13.746',-1.15
'0:13.750',-0.61
'0:13.754',-0.09
'0:13.758',0.13
'0:13.762',0.25
'0:13.766',0.73
'0:13.770',1.15
'0:13.773',1.69
'0:13.777',2.5
'0:13.781',2.67
'0:13.785',2.93
'0:13.789',3.22
'0:13.793',3.92
'0:13.797',4.48
'0:13.801',4.51
'0:13.805',4.19
'0:13.809',3.68
'0:13.813',3.01
'0:13.816',2.67
'0:13.820',2.61
'0:13.824',2.37
'0:13.828',2.12
'0:13.832',1.57
'0:13.836',0.62
'0:13.840',-0.19
'0:13.844',-0.43
'0:13.848',-0.43
'0:13.852',-0.5
'0:13.855',-0.62
'0:13.859',-0.65
'0:13.863',-0.51
'0:13.867',-0.16
'0:13.871',0.46
'0:13.875',0.83
'0:13.879',0.74
'0:13.883',0.54
'0:13.887',0.42
'0:13.891',0.4
'0:13.895',0.42
'0:13.898',0.52
'0:13.902',0.4
'0:13.906',0.03
'0:13.910',-0.29
'0:13.914',-0.32
'0:13.918',-0.15
'0:13.922',-0.02
'0:13.926',-0.02
'0:13.930',-0.26
'0:13.934',-0.72
'0:13.938',-1.46
'0:13.941',-2.29
'0:13.945',-2.8
'0:13.949',-2.77
'0:13.953',-2.58
'0:13.957',-2.45
'0:13.961',-2.38
'0:13.965',-2.33
'0:13.969',-2.43
'0:13.973',-2.44
'0:13.977',-2.28
'0:13.980',-2.28
'0:13.984',-2.33
'0:13.988',-2.36
'0:13.992',-2.31
'0:13.996',-1.53
'0:14.000',0.75
'0:14.004',4.17
'0:14.008',7.92
'0:14.012',10.68
'0:14.016',10.86
'0:14.020',8.39
'0:14.023',4.05
'0:14.027',-0.68
'0:14.031',-4.41
'0:14.035',-6.66
'0:14.039',-7.69
'0:14.043',-7.55
'0:14.047',-6.36
'0:14.051',-4.66
'0:14.055',-3.1
'0:14.059',-1.95
'0:14.063',-1.04
'0:14.066',-0.25
'0:14.070',0.22
'0:14.074',0.39
'0:14.078',0.45
'0:14.082',0.58
'0:14.086',0.91
'0:14.090',1.49
'0:14.094',2.11
'0:14.098',2.64
'0:14.102',3.02
'0:14.105',3.28
'0:14.109',3.56
'0:14.113',4
'0:14.117',4.49
'0:14.121',4.9
'0:14.125',5.15
'0:14.129',5.35
'0:14.133',5.56
'0:14.137',5.68
'0:14.141',5.58
'0:14.145',5.17
'0:14.148',4.78
'0:14.152',4.35
'0:14.156',3.98
'0:14.160',3.56
'0:14.164',2.86
'0:14.168',2.2
'0:14.172',1.91
'0:14.176',1.57
'0:14.180',1.25
'0:14.184',0.84
'0:14.188',0.64
'0:14.191',0.23
'0:14.195',-0.02
'0:14.199',-0.04
'0:14.203',0.02
'0:14.207',-0.16
'0:14.211',-0.31
'0:14.215',-0.43
'0:14.219',-0.39
'0:14.223',-0.17
'0:14.227',0.2
'0:14.230',0.33
'0:14.234',0.38
'0:14.238',0.52
'0:14.242',0.3
'0:14.246',0.05
'0:14.250',-0.14
'0:14.254',-0.58
'0:14.258',-1.38
'0:14.262',-2.21
'0:14.266',-2.94
'0:14.270',-3.52
'0:14.273',-3.8
'0:14.277',-3.91
'0:14.281',-4.07
'0:14.285',-4.11
'0:14.289',-4.1
'0:14.293',-4.04
'0:14.297',-4.06
'0:14.301',-3.73
'0:14.305',-3.63
'0:14.309',-3.78
'0:14.313',-4.15
'0:14.316',-4.72
'0:14.320',-5.04
'0:14.324',-4.35
'0:14.328',-1.93
'0:14.332',1.87
'0:14.336',6.51
'0:14.340',10.77
'0:14.344',12.49
'0:14.348',10.8
'0:14.352',6.38
'0:14.355',0.21
'0:14.359',-5.16
'0:14.363',-8.27
'0:14.367',-9.85
'0:14.371',-9.71
'0:14.375',-8.55
'0:14.379',-7.09
'0:14.383',-5.46
'0:14.387',-3.92
'0:14.391',-3.15
'0:14.395',-2.73
'0:14.398',-2.46
'0:14.402',-2
'0:14.406',-1.7
'0:14.410',-1.51
'0:14.414',-1.17
'0:14.418',-0.68
'0:14.422',-0.03
'0:14.426',0.28
'0:14.430',0.4
'0:14.434',0.47
'0:14.438',0.97
'0:14.441',1.39
'0:14.445',1.83
'0:14.449',2.56
'0:14.453',3.24
'0:14.457',3.7
'0:14.461',3.86
'0:14.465',3.9
'0:14.469',3.94
'0:14.473',4.2
'0:14.477',4.29
'0:14.480',3.64
'0:14.484',2.69
'0:14.488',1.98
'0:14.492',1.59
'0:14.496',1.1
'0:14.500',0.76
'0:14.504',0.44
'0:14.508',0.05
'0:14.512',-0.34
'0:14.516',-0.63
'0:14.520',-0.68
'0:14.523',-0.71
'0:14.527',-0.78
'0:14.531',-0.68
'0:14.535',-0.46
'0:14.539',-0.24
'0:14.543',-0.17
'0:14.547',-0.26
'0:14.551',-0.24
'0:14.555',-0.21
'0:14.559',-0.04
'0:14.563',0.03
'0:14.566',0.08
'0:14.570',0.13
'0:14.574',0.13
'0:14.578',-0.04
'0:14.582',-0.31
'0:14.586',-0.43
'0:14.590',-0.55
'0:14.594',-1.1
'0:14.598',-1.75
'0:14.602',-2.28
'0:14.605',-2.99
'0:14.609',-3.58
'0:14.613',-3.92
'0:14.617',-4.06
'0:14.621',-3.85
'0:14.625',-3.63
'0:14.629',-3.84
'0:14.633',-3.83
'0:14.637',-3.72
'0:14.641',-3.79
'0:14.645',-3.76
'0:14.648',-3.92
'0:14.652',-4.36
'0:14.656',-4.57
'0:14.660',-4.09
'0:14.664',-2.76
'0:14.668',-0.12
'0:14.672',3.38
'0:14.676',7.3
'0:14.680',10.51
'0:14.684',11.13
'0:14.688',8.45
'0:14.691',3.55
'0:14.695',-1.8
'0:14.699',-6.06
'0:14.703',-8.71
'0:14.707',-9.81
'0:14.711',-9.45
'0:14.715',-8.13
'0:14.719',-6.6
'0:14.723',-5.05
'0:14.727',-3.73
'0:14.730',-2.58
'0:14.734',-1.73
'0:14.738',-1.07
'0:14.742',-0.67
'0:14.746',-0.31
'0:14.750',0.06
'0:14.754',0.39
'0:14.758',0.72
'0:14.762',1.02
'0:14.766',1.32
'0:14.770',1.86
'0:14.773',2.22
'0:14.777',2.37
'0:14.781',2.78
'0:14.785',3.27
'0:14.789',3.71
'0:14.793',4.06
'0:14.797',4.26
'0:14.801',4.52
'0:14.805',4.92
'0:14.809',5.1
'0:14.813',5.02
'0:14.816',4.85
'0:14.820',4.64
'0:14.824',4.14
'0:14.828',3.7
'0:14.832',3.27
'0:14.836',2.96
'0:14.840',2.64
'0:14.844',2.32
'0:14.848',2.03
'0:14.852',1.91
'0:14.855',1.76
'0:14.859',1.57
'0:14.863',1.56
'0:14.867',1.76
'0:14.871',2
'0:14.875',2.15
'0:14.879',2.32
'0:14.883',2.43
'0:14.887',2.49
'0:14.891',2.68
'0:14.895',2.91
'0:14.898',3.05
'0:14.902',2.92
'0:14.906',2.63
'0:14.910',2.56
'0:14.914',2.44
'0:14.918',2.15
'0:14.922',1.66
'0:14.926',1.15
'0:14.930',0.68
'0:14.934',-0.23
'0:14.938',-1.06
'0:14.941',-1.72
'0:14.945',-2.16
'0:14.949',-2.22
'0:14.953',-2.6
'0:14.957',-2.73
'0:14.961',-2.89
'0:14.965',-2.87
'0:14.969',-2.82
'0:14.973',-2.71
'0:14.977',-2.56
'0:14.980',-2.67
'0:14.984',-3.04
'0:14.988',-3.54
'0:14.992',-3.8
'0:14.996',-3.31
'0:15.000',-1.51
'0:15.004',1.16
'0:15.008',4.43
'0:15.012',8.05
'0:15.016',9.86
'0:15.020',8.75
'0:15.023',5.2
'0:15.027',0.05
'0:15.031',-4.68
'0:15.035',-7.74
'0:15.039',-8.91
'0:15.043',-8.63
'0:15.047',-7.48
'0:15.051',-6.16
'0:15.055',-4.86
'0:15.059',-3.67
'0:15.063',-2.68
'0:15.066',-2.05
'0:15.070',-1.56
'0:15.074',-1.02
'0:15.078',-0.51
'0:15.082',-0.14
'0:15.086',0.27
'0:15.090',0.36
'0:15.094',0.47
'0:15.098',0.59
'0:15.102',0.92
'0:15.105',1.55
'0:15.109',2.24
'0:15.113',2.98
'0:15.117',3.58
'0:15.121',3.98
'0:15.125',4.36
'0:15.129',4.68
'0:15.133',4.85
'0:15.137',4.87
'0:15.141',4.77
'0:15.145',4.51
'0:15.148',4.05
'0:15.152',3.78
'0:15.156',3.39
'0:15.160',2.89
'0:15.164',2.8
'0:15.168',2.06
'0:15.172',0.86
'0:15.176',0.04
'0:15.180',-0.31
'0:15.184',-0.53
'0:15.188',-0.73
'0:15.191',-0.82
'0:15.195',-0.65
'0:15.199',-0.43
'0:15.203',-0.38
'0:15.207',-0.46
'0:15.211',-0.39
'0:15.215',-0.32
'0:15.219',-0.51
'0:15.223',-0.36
'0:15.227',-0.28
'0:15.230',-0.4
'0:15.234',-0.33
'0:15.238',-0.38
'0:15.242',-0.57
'0:15.246',-0.63
'0:15.250',-1.02
'0:15.254',-1.53
'0:15.258',-1.9
'0:15.262',-2.24
'0:15.266',-2.68
'0:15.270',-2.98
'0:15.273',-3.26
'0:15.277',-3.24
'0:15.281',-3.07
'0:15.285',-3.38
'0:15.289',-3.74
'0:15.293',-3.8
'0:15.297',-3.55
'0:15.301',-3.36
'0:15.305',-3.14
'0:15.309',-2.86
'0:15.313',-2.97
'0:15.316',-3.49
'0:15.320',-3.96
'0:15.324',-4.3
'0:15.328',-3.81
'0:15.332',-1.75
'0:15.336',1.79
'0:15.340',5.97
'0:15.344',10
'0:15.348',12.25
'0:15.352',11.15
'0:15.355',6.76
'0:15.359',0.52
'0:15.363',-5.23
'0:15.367',-8.95
'0:15.371',-10.59
'0:15.375',-10.59
'0:15.379',-9.45
'0:15.383',-7.55
'0:15.387',-5.48
'0:15.391',-3.75
'0:15.395',-2.71
'0:15.398',-1.87
'0:15.402',-1.19
'0:15.406',-0.72
'0:15.410',-0.47
'0:15.414',-0.19
'0:15.418',0.08
'0:15.422',0.63
'0:15.426',0.93
'0:15.430',1.19
'0:15.434',1.36
'0:15.438',1.34
'0:15.441',1.15
'0:15.445',1.32
'0:15.449',2.07
'0:15.453',2.85
'0:15.457',3.36
'0:15.461',3.68
'0:15.465',3.85
'0:15.469',3.83
'0:15.473',3.9
'0:15.477',3.97
'0:15.480',3.9
'0:15.484',3.93
'0:15.488',3.42
'0:15.492',2.8
'0:15.496',2.17
'0:15.500',1.59
'0:15.504',1.14
'0:15.508',0.69
'0:15.512',0.13
'0:15.516',-0.23
'0:15.520',-0.26
'0:15.523',-0.09
'0:15.527',-0.26
'0:15.531',-0.51
'0:15.535',-0.61
'0:15.539',-0.59
'0:15.543',-0.42
'0:15.547',-0.38
'0:15.551',-0.41
'0:15.555',-0.43
'0:15.559',-0.4
'0:15.563',-0.46
'0:15.566',-0.73
'0:15.570',-0.84
'0:15.574',-0.83
'0:15.578',-0.78
'0:15.582',-0.82
'0:15.586',-0.94
'0:15.590',-0.76
'0:15.594',-0.85
'0:15.598',-1.29
'0:15.602',-1.85
'0:15.605',-2.52
'0:15.609',-3.11
'0:15.613',-3.4
'0:15.617',-3.47
'0:15.621',-3.46
'0:15.625',-3.41
'0:15.629',-3.41
'0:15.633',-3.31
'0:15.637',-3.02
'0:15.641',-2.66
'0:15.645',-2.5
'0:15.648',-2.44
'0:15.652',-2.57
'0:15.656',-2.67
'0:15.660',-2.73
'0:15.664',-2.58
'0:15.668',-1.67
'0:15.672',0.66
'0:15.676',3.83
'0:15.680',7.5
'0:15.684',10.71
'0:15.688',11.51
'0:15.691',9.24
'0:15.695',4.95
'0:15.699',0.07
'0:15.703',-3.69
'0:15.707',-6.01
'0:15.711',-6.91
'0:15.715',-6.78
'0:15.719',-5.8
'0:15.723',-4.29
'0:15.727',-2.78
'0:15.730',-1.92
'0:15.734',-1.31
'0:15.738',-0.51
'0:15.742',0.18
'0:15.746',0.66
'0:15.750',0.95
'0:15.754',0.86
'0:15.758',0.95
'0:15.762',0.97
'0:15.766',1.05
'0:15.770',1.18
'0:15.773',1.39
'0:15.777',1.9
'0:15.781',2.35
'0:15.785',2.71
'0:15.789',3.13
'0:15.793',3.66
'0:15.797',3.91
'0:15.801',4.29
'0:15.805',4.31
'0:15.809',4.1
'0:15.813',3.99
'0:15.816',3.95
'0:15.820',3.8
'0:15.824',3.44
'0:15.828',3.17
'0:15.832',2.63
'0:15.836',2.02
'0:15.840',1.49
'0:15.844',1.2
'0:15.848',1.07
'0:15.852',0.71
'0:15.855',0.42
'0:15.859',0.13
'0:15.863',0.03
'0:15.867',0.1
'0:15.871',0.27
'0:15.875',0.42
'0:15.879',0.66
'0:15.883',0.73
'0:15.887',0.39
'0:15.891',0.12
'0:15.895',0.13
'0:15.898',0.2
'0:15.902',0.39
'0:15.906',0.54
'0:15.910',0.52
'0:15.914',0.56
'0:15.918',0.51
'0:15.922',0.2
'0:15.926',-0.16
'0:15.930',-0.66
'0:15.934',-1.23
'0:15.938',-1.58
'0:15.941',-1.78
'0:15.945',-2.24
'0:15.949',-2.8
'0:15.953',-3.29
'0:15.957',-3.6
'0:15.961',-3.51
'0:15.965',-3.36
'0:15.969',-3.32
'0:15.973',-3.47
'0:15.977',-3.43
'0:15.980',-3.49
'0:15.984',-3.73
'0:15.988',-4.36
'0:15.992',-5.11
'0:15.996',-5.28
'0:16.000',-4.15
'0:16.004',-1.36
'0:16.008',2.54
'0:16.012',7.15
'0:16.016',10.78
'0:16.020',11.83
'0:16.023',9.72
'0:16.027',4.63
'0:16.031',-1.93
'0:16.035',-6.98
'0:16.039',-9.75
'0:16.043',-10.66
'0:16.047',-10.22
'0:16.051',-8.59
'0:16.055',-6.45
'0:16.059',-4.61
'0:16.063',-3.33
'0:16.066',-2.22
'0:16.070',-1.63
'0:16.074',-1.41
'0:16.078',-1.11
'0:16.082',-0.79
'0:16.086',-0.46
'0:16.090',0.01
'0:16.094',0.49
'0:16.098',0.77
'0:16.102',1.03
'0:16.105',1.32
'0:16.109',1.78
'0:16.113',2.44
'0:16.117',3.19
'0:16.121',3.89
'0:16.125',4.58
'0:16.129',5.15
'0:16.133',5.55
'0:16.137',5.75
'0:16.141',5.75
'0:16.145',5.95
'0:16.148',5.87
'0:16.152',5.54
'0:16.156',5.24
'0:16.160',4.83
'0:16.164',4.36
'0:16.168',3.83
'0:16.172',3.29
'0:16.176',2.49
'0:16.180',1.68
'0:16.184',1.16
'0:16.188',0.88
'0:16.191',0.63
'0:16.195',0.32
'0:16.199',-0.2
'0:16.203',-0.51
'0:16.207',-0.55
'0:16.211',-0.43
'0:16.215',-0.53
'0:16.219',-0.6
'0:16.223',-0.63
'0:16.227',-0.9
'0:16.230',-1.04
'0:16.234',-0.87
'0:16.238',-0.68
'0:16.242',-0.53
'0:16.246',-0.45
'0:16.250',-0.48
'0:16.254',-0.72
'0:16.258',-0.99
'0:16.262',-1.24
'0:16.266',-1.65
'0:16.270',-2.06
'0:16.273',-2.62
'0:16.277',-3.19
'0:16.281',-3.57
'0:16.285',-3.97
'0:16.289',-4.38
'0:16.293',-4.6
'0:16.297',-4.58
'0:16.301',-4.26
'0:16.305',-4.05
'0:16.309',-4.12
'0:16.313',-4.33
'0:16.316',-4.44
'0:16.320',-4.29
'0:16.324',-4.2
'0:16.328',-4.35
'0:16.332',-4.6
'0:16.336',-4.21
'0:16.340',-2.6
'0:16.344',0.45
'0:16.348',4.05
'0:16.352',7.7
'0:16.355',10.32
'0:16.359',9.67
'0:16.363',6.23
'0:16.367',1.08
'0:16.371',-6.26
'0:16.375',-8.97
'0:16.379',-9.85
'0:16.383',-9.42
'0:16.387',-7.77
'0:16.391',-5.85
'0:16.395',-4.31
'0:16.398',-3.21
'0:16.402',-2.53
'0:16.406',-2.15
'0:16.410',-1.75
'0:16.414',-1.41
'0:16.418',-1.26
'0:16.422',-1.05
'0:16.426',-0.82
'0:16.430',-0.63
'0:16.434',-0.31
'0:16.438',0.25
'0:16.441',0.73
'0:16.445',1.05
'0:16.449',1.49
'0:16.453',2.1
'0:16.457',2.76
'0:16.461',3.25
'0:16.465',3.59
'0:16.469',3.92
'0:16.473',4.14
'0:16.477',4.28
'0:16.480',4.36
'0:16.484',4.33
'0:16.488',4.17
'0:16.492',3.92
'0:16.496',3.58
'0:16.500',3.29
'0:16.504',2.98
'0:16.508',2.71
'0:16.512',2.34
'0:16.516',1.92
'0:16.520',1.43
'0:16.523',1
'0:16.527',0.93
'0:16.531',0.74
'0:16.535',0.56
'0:16.539',0.52
'0:16.543',0.54
'0:16.547',0.56
'0:16.551',0.49
'0:16.555',0.56
'0:16.559',0.81
'0:16.563',0.8
'0:16.566',0.81
'0:16.570',0.85
'0:16.574',1.03
'0:16.578',1.27
'0:16.582',1.25
'0:16.586',1
'0:16.590',0.95
'0:16.594',0.9
'0:16.598',0.32
'0:16.602',-0.48
'0:16.605',-1.17
'0:16.609',-1.84
'0:16.613',-2.33
'0:16.617',-2.4
'0:16.621',-2.49
'0:16.625',-2.62
'0:16.629',-2.58
'0:16.633',-2.46
'0:16.637',-2.4
'0:16.641',-2.29
'0:16.645',-2.19
'0:16.648',-1.99
'0:16.652',-1.95
'0:16.656',-2.37
'0:16.660',-3.02
'0:16.664',-3.55
'0:16.668',-3.81
'0:16.672',-3.02
'0:16.676',-0.18
'0:16.680',3.94
'0:16.684',8.3
'0:16.688',11.39
'0:16.691',11.71
'0:16.695',8.98
'0:16.699',3.96
'0:16.703',-1.69
'0:16.707',-5.73
'0:16.711',-7.79
'0:16.715',-8.5
'0:16.719',-8.1
'0:16.723',-6.6
'0:16.727',-4.7
'0:16.730',-3.09
'0:16.734',-2
'0:16.738',-1.51
'0:16.742',-1.12
'0:16.746',-0.41
'0:16.750',0.22
'0:16.754',0.61
'0:16.758',1
'0:16.762',1.2
'0:16.766',1.46
'0:16.770',1.73
'0:16.773',1.73
'0:16.777',1.95
'0:16.781',2.3
'0:16.785',2.8
'0:16.789',3.26
'0:16.793',3.78
'0:16.797',4.24
'0:16.801',4.51
'0:16.805',4.99
'0:16.809',5.17
'0:16.813',5.02
'0:16.816',4.69
'0:16.820',4.56
'0:16.824',4.44
'0:16.828',4.1
'0:16.832',3.59
'0:16.836',3.2
'0:16.840',2.27
'0:16.844',1.34
'0:16.848',0.98
'0:16.852',0.66
'0:16.855',0.28
'0:16.859',-0.19
'0:16.863',-0.38
'0:16.867',-0.35
'0:16.871',-0.29
'0:16.875',-0.12
'0:16.879',0.12
'0:16.883',0.4
'0:16.887',0.61
'0:16.891',0.35
'0:16.895',0.11
'0:16.898',0.23
'0:16.902',0.45
'0:16.906',0.71
'0:16.910',0.74
'0:16.914',0.56
'0:16.918',0.23
'0:16.922',0.03
'0:16.926',-0.22
'0:16.930',-0.52
'0:16.934',-0.56
'0:16.938',-1.07
'0:16.941',-1.7
'0:16.945',-2.04
'0:16.949',-2.17
'0:16.953',-2.4
'0:16.957',-2.72
'0:16.961',-3
'0:16.965',-3.02
'0:16.969',-2.9
'0:16.973',-2.58
'0:16.977',-2.24
'0:16.980',-1.89
'0:16.984',-1.7
'0:16.988',-1.78
'0:16.992',-2.34
'0:16.996',-2.87
'0:17.000',-2.96
'0:17.004',-2.22
'0:17.008',0.23
'0:17.012',3.91
'0:17.016',8.07
'0:17.020',11.66
'0:17.023',12.77
'0:17.027',10.68
'0:17.031',5.65
'0:17.035',-0.89
'0:17.039',-6.08
'0:17.043',-9.25
'0:17.047',-10.44
'0:17.051',-9.83
'0:17.055',-8.06
'0:17.059',-6.06
'0:17.063',-4.39
'0:17.066',-3.32
'0:17.070',-2.67
'0:17.074',-2.17
'0:17.078',-1.83
'0:17.082',-1.46
'0:17.086',-1.14
'0:17.090',-0.78
'0:17.094',-0.48
'0:17.098',-0.27
'0:17.102',-0.11
'0:17.105',0.06
'0:17.109',0.45
'0:17.113',0.95
'0:17.117',1.39
'0:17.121',1.86
'0:17.125',2.51
'0:17.129',3.05
'0:17.133',3.13
'0:17.137',3.26
'0:17.141',3.37
'0:17.145',3.46
'0:17.148',3.59
'0:17.152',3.79
'0:17.156',4
'0:17.160',3.85
'0:17.164',3.6
'0:17.168',3.02
'0:17.172',2.48
'0:17.176',1.72
'0:17.180',0.91
'0:17.184',0.24
'0:17.188',-0.36
'0:17.191',-0.84
'0:17.195',-1.15
'0:17.199',-1.29
'0:17.203',-0.99
'0:17.207',-0.89
'0:17.211',-0.68
'0:17.215',-0.87
'0:17.219',-1.28
'0:17.223',-1.4
'0:17.227',-1.39
'0:17.230',-1.34
'0:17.234',-1.34
'0:17.238',-1.39
'0:17.242',-1.29
'0:17.246',-1.13
'0:17.250',-0.92
'0:17.254',-0.7
'0:17.258',-0.6
'0:17.262',-0.83
'0:17.266',-1.24
'0:17.270',-1.73
'0:17.273',-2.15
'0:17.277',-2.62
'0:17.281',-3.09
'0:17.285',-3.43
'0:17.289',-3.73
'0:17.293',-3.85
'0:17.297',-3.95
'0:17.301',-3.98
'0:17.305',-3.87
'0:17.309',-3.82
'0:17.313',-3.81
'0:17.316',-3.73
'0:17.320',-3.68
'0:17.324',-3.7
'0:17.328',-3.73
'0:17.332',-3.82
'0:17.336',-3.87
'0:17.340',-3.7
'0:17.344',-2.89
'0:17.348',-0.91
'0:17.352',1.99
'0:17.355',5.36
'0:17.359',8.55
'0:17.363',9.93
'0:17.367',8.26
'0:17.371',4.41
'0:17.375',-0.76
'0:17.379',-5.38
'0:17.383',-8.46
'0:17.387',-9.91
'0:17.391',-9.93
'0:17.395',-9
'0:17.398',-7.35
'0:17.402',-5.5
'0:17.406',-4.16
'0:17.410',-3.19
'0:17.414',-2.2
'0:17.418',-1.72
'0:17.422',-1.14
'0:17.426',-0.58
'0:17.430',-0.23
'0:17.434',0.11
'0:17.438',0.69
'0:17.441',1.15
'0:17.445',1.6
'0:17.449',2.08
'0:17.453',2.47
'0:17.457',3.05
'0:17.461',3.54
'0:17.465',3.95
'0:17.469',4.44
'0:17.473',4.9
'0:17.477',5.18
'0:17.480',5.61
'0:17.484',5.51
'0:17.488',5.04
'0:17.492',4.78
'0:17.496',4.6
'0:17.500',4.42
'0:17.504',4.22
'0:17.508',4.05
'0:17.512',3.62
'0:17.516',3.19
'0:17.520',2.76
'0:17.523',2.34
'0:17.527',1.9
'0:17.531',1.41
'0:17.535',1.27
'0:17.539',1.24
'0:17.543',1.1
'0:17.547',1.01
'0:17.551',0.96
'0:17.555',0.96
'0:17.559',1.06
'0:17.563',1.32
'0:17.566',1.39
'0:17.570',1.35
'0:17.574',1.57
'0:17.578',1.66
'0:17.582',1.66
'0:17.586',1.68
'0:17.590',1.61
'0:17.594',1.29
'0:17.598',1.1
'0:17.602',1.02
'0:17.605',0.69
'0:17.609',0.02
'0:17.613',-0.75
'0:17.617',-1.32
'0:17.621',-2.04
'0:17.625',-2.31
'0:17.629',-2.52
'0:17.633',-3.09
'0:17.637',-3.42
'0:17.641',-3.57
'0:17.645',-3.62
'0:17.648',-3.69
'0:17.652',-3.67
'0:17.656',-3.43
'0:17.660',-3.24
'0:17.664',-3.26
'0:17.668',-3.29
'0:17.672',-3.75
'0:17.676',-4.21
'0:17.680',-3.57
'0:17.684',-1.27
'0:17.688',2.09
'0:17.691',6.4
'0:17.695',10.03
'0:17.699',11.18
'0:17.703',9.56
'0:17.707',5.35
'0:17.711',-0.61
'0:17.715',-5.42
'0:17.719',-7.89
'0:17.723',-8.74
'0:17.727',-8.79
'0:17.730',-7.57
'0:17.734',-5.65
'0:17.738',-3.8
'0:17.742',-2.26
'0:17.746',-1.5
'0:17.750',-0.9
'0:17.754',-0.45
'0:17.758',0.13
'0:17.762',0.69
'0:17.766',1.12
'0:17.770',1.49
'0:17.773',1.79
'0:17.777',2.1
'0:17.781',2.49
'0:17.785',2.68
'0:17.789',2.8
'0:17.793',3.17
'0:17.797',3.75
'0:17.801',4.49
'0:17.805',5.18
'0:17.809',5.67
'0:17.813',5.78
'0:17.816',5.9
'0:17.820',5.83
'0:17.824',5.64
'0:17.828',5.58
'0:17.832',5.31
'0:17.836',4.68
'0:17.840',4.24
'0:17.844',4.02
'0:17.848',3.56
'0:17.852',2.91
'0:17.855',2.29
'0:17.859',1.57
'0:17.863',0.92
'0:17.867',0.49
'0:17.871',-0.04
'0:17.875',-0.56
'0:17.879',-0.9
'0:17.883',-1.17
'0:17.887',-1.2
'0:17.891',-1.16
'0:17.895',-1.15
'0:17.898',-1.04
'0:17.902',-0.96
'0:17.906',-1.01
'0:17.910',-0.98
'0:17.914',-0.75
'0:17.918',-0.49
'0:17.922',-0.31
'0:17.926',-0.29
'0:17.930',-0.29
'0:17.934',-0.33
'0:17.938',-0.45
'0:17.941',-0.75
'0:17.945',-1.19
'0:17.949',-1.64
'0:17.953',-2.32
'0:17.957',-2.94
'0:17.961',-3.31
'0:17.965',-3.69
'0:17.969',-4.12
'0:17.973',-4.16
'0:17.977',-4.12
'0:17.980',-4.14
'0:17.984',-4.11
'0:17.988',-3.92
'0:17.992',-3.75
'0:17.996',-3.77
'0:18.000',-3.83
'0:18.004',-4.21
'0:18.008',-4.67
'0:18.012',-4.87
'0:18.016',-4.54
'0:18.020',-3.17
'0:18.023',-0.23
'0:18.027',3.47
'0:18.031',7.43
'0:18.035',10.2
'0:18.039',10.17
'0:18.043',7.51
'0:18.047',2.94
'0:18.051',-2.24
'0:18.055',-6.18
'0:18.059',-8.39
'0:18.063',-9
'0:18.066',-8.54
'0:18.070',-7.35
'0:18.074',-5.89
'0:18.078',-4.36
'0:18.082',-3.14
'0:18.086',-2.14
'0:18.090',-1.43
'0:18.094',-0.92
'0:18.098',-0.5
'0:18.102',-0.22
'0:18.105',-0.24
'0:18.109',-0.34
'0:18.113',-0.38
'0:18.117',-0.21
'0:18.121',0.13
'0:18.125',0.66
'0:18.129',1
'0:18.133',1.29
'0:18.137',1.46
'0:18.141',1.84
'0:18.145',2.32
'0:18.148',2.63
'0:18.152',2.9
'0:18.156',3.02
'0:18.160',2.93
'0:18.164',2.91
'0:18.168',2.76
'0:18.172',2.44
'0:18.176',2.06
'0:18.180',1.75
'0:18.184',1.46
'0:18.188',1
'0:18.191',0.4
'0:18.195',-0.15
'0:18.199',-0.66
'0:18.203',-1.07
'0:18.207',-1.31
'0:18.211',-1.38
'0:18.215',-1.45
'0:18.219',-1.37
'0:18.223',-1.19
'0:18.227',-1.04
'0:18.230',-0.99
'0:18.234',-0.73
'0:18.238',-0.51
'0:18.242',-0.58
'0:18.246',-0.73
'0:18.250',-0.67
'0:18.254',-0.33
'0:18.258',-0.04
'0:18.262',0.13
'0:18.266',0.3
'0:18.270',0.41
'0:18.273',0.25
'0:18.277',0.08
'0:18.281',0.08
'0:18.285',-0.21
'0:18.289',-0.84
'0:18.293',-1.6
'0:18.297',-2.21
'0:18.301',-2.45
'0:18.305',-2.53
'0:18.309',-2.38
'0:18.313',-2.55
'0:18.316',-2.91
'0:18.320',-3.09
'0:18.324',-2.89
'0:18.328',-2.6
'0:18.332',-2.53
'0:18.336',-2.45
'0:18.340',-2.51
'0:18.344',-2.75
'0:18.348',-3.03
'0:18.352',-3.23
'0:18.355',-2.82
'0:18.359',-1.61
'0:18.363',0.76
'0:18.367',4.21
'0:18.371',8.05
'0:18.375',10.56
'0:18.379',10.2
'0:18.383',7.55
'0:18.387',2.85
'0:18.391',-2.44
'0:18.395',-6.09
'0:18.398',-8.06
'0:18.402',-8.67
'0:18.406',-8.02
'0:18.410',-6.47
'0:18.414',-5
'0:18.418',-3.45
'0:18.422',-1.9
'0:18.426',-0.8
'0:18.430',-0.13
'0:18.434',0.4
'0:18.438',0.3
'0:18.441',0.42
'0:18.445',0.84
'0:18.449',1.36
'0:18.453',1.51
'0:18.457',1.66
'0:18.461',2.03
'0:18.465',2.11
'0:18.469',2.01
'0:18.473',2.39
'0:18.477',3.23
'0:18.480',4.27
'0:18.484',5.13
'0:18.488',5.67
'0:18.492',5.85
'0:18.496',6.04
'0:18.500',5.94
'0:18.504',5.71
'0:18.508',5.44
'0:18.512',4.92
'0:18.516',4.31
'0:18.520',3.98
'0:18.523',3.83
'0:18.527',2.93
'0:18.531',1.96
'0:18.535',1.84
'0:18.539',2.15
'0:18.543',1.98
'0:18.547',1.71
'0:18.551',1.41
'0:18.555',1.05
'0:18.559',1.13
'0:18.563',1.44
'0:18.566',1.91
'0:18.570',2.3
'0:18.574',2.56
'0:18.578',2.65
'0:18.582',2.44
'0:18.586',2.22
'0:18.590',2.24
'0:18.594',2.54
'0:18.598',2.73
'0:18.602',2.63
'0:18.605',1.85
'0:18.609',1.08
'0:18.613',0.88
'0:18.617',0.91
'0:18.621',0.66
'0:18.625',0.2
'0:18.629',-0.22
'0:18.633',-0.95
'0:18.637',-1.72
'0:18.641',-2.14
'0:18.645',-2.26
'0:18.648',-2.33
'0:18.652',-2.51
'0:18.656',-2.67
'0:18.660',-2.6
'0:18.664',-2.48
'0:18.668',-2.46
'0:18.672',-2.46
'0:18.676',-2.63
'0:18.680',-2.97
'0:18.684',-3.21
'0:18.688',-3.1
'0:18.691',-2.18
'0:18.695',0.22
'0:18.699',3.69
'0:18.703',7.7
'0:18.707',11.14
'0:18.711',12.25
'0:18.715',10.14
'0:18.719',5.65
'0:18.723',-0.28
'0:18.727',-5.17
'0:18.730',-8.09
'0:18.734',-9.25
'0:18.738',-8.79
'0:18.742',-7.61
'0:18.746',-6.23
'0:18.750',-4.8
'0:18.754',-3.6
'0:18.758',-2.77
'0:18.762',-2.29
'0:18.766',-1.89
'0:18.770',-1.43
'0:18.773',-1.08
'0:18.777',-0.68
'0:18.781',-0.55
'0:18.785',-0.35
'0:18.789',-0.16
'0:18.793',-0.01
'0:18.797',0.36
'0:18.801',0.95
'0:18.805',1.44
'0:18.809',1.8
'0:18.813',2.2
'0:18.816',2.63
'0:18.820',2.81
'0:18.824',3.06
'0:18.828',3.31
'0:18.832',3.31
'0:18.836',2.98
'0:18.840',2.74
'0:18.844',2.71
'0:18.848',2.71
'0:18.852',2.39
'0:18.855',1.95
'0:18.859',1.66
'0:18.863',1.25
'0:18.867',0.82
'0:18.871',0.2
'0:18.875',-0.39
'0:18.879',-0.92
'0:18.883',-1.17
'0:18.887',-1.11
'0:18.891',-1.25
'0:18.895',-1.34
'0:18.898',-1.1
'0:18.902',-0.82
'0:18.906',-0.9
'0:18.910',-1.17
'0:18.914',-1.34
'0:18.918',-1.31
'0:18.922',-1.41
'0:18.926',-1.41
'0:18.930',-1.29
'0:18.934',-1.43
'0:18.938',-1.53
'0:18.941',-1.54
'0:18.945',-1.26
'0:18.949',-1.37
'0:18.953',-1.77
'0:18.957',-1.83
'0:18.961',-2.04
'0:18.965',-2.52
'0:18.969',-3.22
'0:18.973',-3.85
'0:18.977',-4.18
'0:18.980',-4.58
'0:18.984',-4.89
'0:18.988',-4.82
'0:18.992',-4.62
'0:18.996',-4.55
'0:19.000',-4.65
'0:19.004',-4.7
'0:19.008',-4.43
'0:19.012',-4.28
'0:19.016',-4.62
'0:19.020',-5.15
'0:19.023',-5.64
'0:19.027',-5.62
'0:19.031',-4.74
'0:19.035',-2.4
'0:19.039',1.4
'0:19.043',5.31
'0:19.047',8.75
'0:19.051',10.38
'0:19.055',9.25
'0:19.059',4.85
'0:19.063',-1.06
'0:19.066',-6
'0:19.070',-9.32
'0:19.074',-10.81
'0:19.078',-10.97
'0:19.082',-10.13
'0:19.086',-8.38
'0:19.090',-6.31
'0:19.094',-4.84
'0:19.098',-3.97
'0:19.102',-3.43
'0:19.105',-2.96
'0:19.109',-2.11
'0:19.113',-1.5
'0:19.117',-1.24
'0:19.121',-0.91
'0:19.125',-0.45
'0:19.129',0.23
'0:19.133',0.76
'0:19.137',1
'0:19.141',1.13
'0:19.145',1.35
'0:19.148',1.86
'0:19.152',2.46
'0:19.156',2.79
'0:19.160',3.35
'0:19.164',3.74
'0:19.168',4.06
'0:19.172',4.29
'0:19.176',4.46
'0:19.180',4.74
'0:19.184',4.43
'0:19.188',3.56
'0:19.191',3.04
'0:19.195',2.6
'0:19.199',2.22
'0:19.203',1.96
'0:19.207',1.46
'0:19.211',0.87
'0:19.215',0.17
'0:19.219',-0.36
'0:19.223',-0.61
'0:19.227',-0.58
'0:19.230',-0.42
'0:19.234',-0.33
'0:19.238',-0.02
'0:19.242',0.2
'0:19.246',0.2
'0:19.250',0.49
'0:19.254',0.61
'0:19.258',0.61
'0:19.262',0.31
'0:19.266',0.28
'0:19.270',0.71
'0:19.273',1.28
'0:19.277',2.03
'0:19.281',2.06
'0:19.285',1.16
'0:19.289',0.46
'0:19.293',0.43
'0:19.297',0.09
'0:19.301',-0.28
'0:19.305',-0.56
'0:19.309',-0.9
'0:19.313',-1.15
'0:19.316',-1.29
'0:19.320',-1.68
'0:19.324',-2.17
'0:19.328',-2.32
'0:19.332',-2.07
'0:19.336',-2
'0:19.340',-2.32
'0:19.344',-2.45
'0:19.348',-2.09
'0:19.352',-1.45
'0:19.355',-1.29
'0:19.359',-1.9
'0:19.363',-2.36
'0:19.367',-2.22
'0:19.371',-1.43
'0:19.375',0.31
'0:19.379',3.08
'0:19.383',6.85
'0:19.387',10.55
'0:19.391',12.64
'0:19.395',11.29
'0:19.398',7.23
'0:19.402',1.59
'0:19.406',-3.06
'0:19.410',-6.33
'0:19.414',-7.84
'0:19.418',-7.68
'0:19.422',-6.16
'0:19.426',-4.3
'0:19.430',-2.83
'0:19.434',-1.61
'0:19.438',-0.37
'0:19.441',0.37
'0:19.445',0.41
'0:19.449',0.58
'0:19.453',1.08
'0:19.457',1.5
'0:19.461',2.07
'0:19.465',2.62
'0:19.469',2.91
'0:19.473',3.18
'0:19.477',3.56
'0:19.480',3.83
'0:19.484',4.09
'0:19.488',4.35
'0:19.492',4.64
'0:19.496',4.98
'0:19.500',5.35
'0:19.504',5.73
'0:19.508',6.11
'0:19.512',6.39
'0:19.516',6.39
'0:19.520',6.31
'0:19.523',6.12
'0:19.527',5.82
