'0:00.000',3.77
'0:00.004',3.55
'0:00.008',3.46
'0:00.012',3.41
'0:00.016',3.37
'0:00.020',3.4
'0:00.023',3.46
'0:00.027',3.41
'0:00.031',3.41
'0:00.035',3.46
'0:00.039',3.51
'0:00.043',3.44
'0:00.047',3.41
'0:00.051',3.34
'0:00.055',3.23
'0:00.059',3.13
'0:00.063',2.89
'0:00.066',2.71
'0:00.070',2.54
'0:00.074',2.37
'0:00.078',2.25
'0:00.082',2.17
'0:00.086',2.1
'0:00.090',2.12
'0:00.094',2.1
'0:00.098',2
'0:00.102',1.86
'0:00.105',1.83
'0:00.109',1.82
'0:00.113',1.66
'0:00.117',1.5
'0:00.121',1.32
'0:00.125',1.13
'0:00.129',0.79
'0:00.133',0.31
'0:00.137',-0.18
'0:00.141',-0.52
'0:00.145',-0.69
'0:00.148',-0.89
'0:00.152',-1.17
'0:00.156',-1.62
'0:00.160',-2.12
'0:00.164',-2.67
'0:00.168',-3.18
'0:00.172',-3.52
'0:00.176',-3.65
'0:00.180',-3.65
'0:00.184',-3.7
'0:00.188',-3.75
'0:00.191',-3.64
'0:00.195',-3.49
'0:00.199',-3.5
'0:00.203',-3.71
'0:00.207',-3.83
'0:00.211',-3.71
'0:00.215',-3.43
'0:00.219',-2.96
'0:00.223',-2.16
'0:00.227',-0.52
'0:00.230',2.2
'0:00.234',5.15
'0:00.238',6.76
'0:00.242',5.43
'0:00.246',0.87
'0:00.250',-4.62
'0:00.254',-8.77
'0:00.258',-10.96
'0:00.262',-11.69
'0:00.266',-11.69
'0:00.270',-11.07
'0:00.273',-9.84
'0:00.277',-8.03
'0:00.281',-6.28
'0:00.285',-4.76
'0:00.289',-3.36
'0:00.293',-2.18
'0:00.297',-1.2
'0:00.301',-0.46
'0:00.305',-0.06
'0:00.309',0.03
'0:00.313',0.09
'0:00.316',0.23
'0:00.320',0.33
'0:00.324',0.57
'0:00.328',0.85
'0:00.332',1.03
'0:00.336',1.39
'0:00.340',1.61
'0:00.344',1.78
'0:00.348',2.14
'0:00.352',2.45
'0:00.355',2.64
'0:00.359',2.9
'0:00.363',3.18
'0:00.367',3.36
'0:00.371',3.55
'0:00.375',3.63
'0:00.379',3.65
'0:00.383',3.73
'0:00.387',3.61
'0:00.391',3.5
'0:00.395',3.46
'0:00.398',3.59
'0:00.402',4.31
'0:00.406',5.13
'0:00.410',5.86
'0:00.414',6.1
'0:00.418',5.85
'0:00.422',5.44
'0:00.426',4.91
'0:00.430',4.23
'0:00.434',3.85
'0:00.438',4.06
'0:00.441',4.14
'0:00.445',4.24
'0:00.449',4.2
'0:00.453',4.12
'0:00.457',4
'0:00.461',3.73
'0:00.465',3.45
'0:00.469',3.28
'0:00.473',2.86
'0:00.477',2.44
'0:00.480',2.31
'0:00.484',2.34
'0:00.488',2.43
'0:00.492',2.4
'0:00.496',2.25
'0:00.500',1.85
'0:00.504',1.23
'0:00.508',0.44
'0:00.512',-0.29
'0:00.516',-0.87
'0:00.520',-1.16
'0:00.523',-1.37
'0:00.527',-1.65
'0:00.531',-2.07
'0:00.535',-2.41
'0:00.539',-2.53
'0:00.543',-2.63
'0:00.547',-3.06
'0:00.551',-3.56
'0:00.555',-3.81
'0:00.559',-3.97
'0:00.563',-3.65
'0:00.566',-2.57
'0:00.570',-0.58
'0:00.574',2.01
'0:00.578',4.25
'0:00.582',5.05
'0:00.586',2.61
'0:00.590',-2.43
'0:00.594',-7.19
'0:00.598',-10.66
'0:00.602',-12.39
'0:00.605',-13.14
'0:00.609',-13.47
'0:00.613',-13.21
'0:00.617',-12.34
'0:00.621',-10.9
'0:00.625',-9.15
'0:00.629',-7.39
'0:00.633',-5.68
'0:00.637',-4.19
'0:00.641',-2.88
'0:00.645',-1.32
'0:00.648',0.43
'0:00.652',2.21
'0:00.656',3.83
'0:00.660',5.37
'0:00.664',6.55
'0:00.668',7.19
'0:00.672',7.49
'0:00.676',7.66
'0:00.680',7.75
'0:00.684',7.37
'0:00.688',6.74
'0:00.691',6.03
'0:00.695',5.5
'0:00.699',5.19
'0:00.703',4.83
'0:00.707',4.66
'0:00.711',4.44
'0:00.715',4.05
'0:00.719',3.68
'0:00.723',2.96
'0:00.727',1.82
'0:00.730',0.79
'0:00.734',0.09
'0:00.738',-0.15
'0:00.742',-0.09
'0:00.746',-0.12
'0:00.750',-0.16
'0:00.754',-0.4
'0:00.758',-0.57
'0:00.762',-0.69
'0:00.766',-0.77
'0:00.770',-0.78
'0:00.773',-0.87
'0:00.777',-1.04
'0:00.781',-1.28
'0:00.785',-1.39
'0:00.789',-1.58
'0:00.793',-1.89
'0:00.797',-1.96
'0:00.801',-1.97
'0:00.805',-1.93
'0:00.809',-1.96
'0:00.813',-2.17
'0:00.816',-2.44
'0:00.820',-2.69
'0:00.824',-2.86
'0:00.828',-2.94
'0:00.832',-3.15
'0:00.836',-3.23
'0:00.840',-3.32
'0:00.844',-3.65
'0:00.848',-4.08
'0:00.852',-4.43
'0:00.855',-4.6
'0:00.859',-4.49
'0:00.863',-4.37
'0:00.867',-4.34
'0:00.871',-4.29
'0:00.875',-4.2
'0:00.879',-4.07
'0:00.883',-4.07
'0:00.887',-4.14
'0:00.891',-4.23
'0:00.895',-4.11
'0:00.898',-3.71
'0:00.902',-2.82
'0:00.906',-1.1
'0:00.910',1.64
'0:00.914',4.88
'0:00.918',7.96
'0:00.922',10.01
'0:00.926',8.95
'0:00.930',4.02
'0:00.934',-1.85
'0:00.938',-6.34
'0:00.941',-9.25
'0:00.945',-10.71
'0:00.949',-11.24
'0:00.953',-11.14
'0:00.957',-10.58
'0:00.961',-9.41
'0:00.965',-7.89
'0:00.969',-6.24
'0:00.973',-4.66
'0:00.977',-3.34
'0:00.980',-2.5
'0:00.984',-1.84
'0:00.988',-1.35
'0:00.992',-0.85
'0:00.996',-0.58
'0:01.000',-0.34
'0:01.004',0.03
'0:01.008',0.36
'0:01.012',0.5
'0:01.016',0.58
'0:01.020',0.62
'0:01.023',0.75
'0:01.027',0.89
'0:01.031',1.1
'0:01.035',1.54
'0:01.039',1.66
'0:01.043',1.74
'0:01.047',2.06
'0:01.051',2.12
'0:01.055',2.39
'0:01.059',2.61
'0:01.063',2.61
'0:01.066',2.51
'0:01.070',2.48
'0:01.074',2.53
'0:01.078',2.74
'0:01.082',2.88
'0:01.086',2.68
'0:01.090',2.6
'0:01.094',2.56
'0:01.098',2.17
'0:01.102',1.98
'0:01.105',1.82
'0:01.109',1.62
'0:01.113',1.44
'0:01.117',1.46
'0:01.121',1.21
'0:01.125',1
'0:01.129',1.02
'0:01.133',1.12
'0:01.137',1.03
'0:01.141',1.02
'0:01.145',0.93
'0:01.148',0.77
'0:01.152',0.6
'0:01.156',0.51
'0:01.160',0.54
'0:01.164',0.4
'0:01.168',0.19
'0:01.172',0.28
'0:01.176',0.3
'0:01.180',0.3
'0:01.184',0.29
'0:01.188',0.3
'0:01.191',-0.94
'0:01.195',-1.08
'0:01.199',-1.24
'0:01.203',-1.43
'0:01.207',-1.63
'0:01.211',-1.56
'0:01.215',-1.78
'0:01.219',-1.9
'0:01.223',-2.06
'0:01.227',-2.17
'0:01.230',-1.75
'0:01.234',-1.05
'0:01.238',-0.8
'0:01.242',-0.11
'0:01.246',1.77
'0:01.250',4.48
'0:01.254',7.08
'0:01.258',9.49
'0:01.262',10.41
'0:01.266',7.95
'0:01.270',2.14
'0:01.273',-3.71
'0:01.277',-7.93
'0:01.281',-10.4
'0:01.285',-11.51
'0:01.289',-11.68
'0:01.293',-11.18
'0:01.297',-9.95
'0:01.301',-8.38
'0:01.305',-6.74
'0:01.309',-5.26
'0:01.313',-3.94
'0:01.316',-2.92
'0:01.320',-2.04
'0:01.324',-1.26
'0:01.328',-0.66
'0:01.332',-0.26
'0:01.336',-0.22
'0:01.340',-0.18
'0:01.344',-0.01
'0:01.348',0.12
'0:01.352',0.13
'0:01.355',0.1
'0:01.359',0.18
'0:01.363',0.4
'0:01.367',0.59
'0:01.371',0.64
'0:01.375',0.55
'0:01.379',0.56
'0:01.383',0.89
'0:01.387',1.61
'0:01.391',2.31
'0:01.395',2.62
'0:01.398',2.82
'0:01.402',3.07
'0:01.406',3.48
'0:01.410',3.9
'0:01.414',4.16
'0:01.418',4.51
'0:01.422',4.84
'0:01.426',4.92
'0:01.430',4.76
'0:01.434',4.7
'0:01.438',4.77
'0:01.441',4.93
'0:01.445',5.05
'0:01.449',5
'0:01.453',4.76
'0:01.457',4.57
'0:01.461',4.46
'0:01.465',4.7
'0:01.469',5.05
'0:01.473',5.38
'0:01.477',5.39
'0:01.480',5.09
'0:01.484',4.84
'0:01.488',4.51
'0:01.492',4.23
'0:01.496',4.1
'0:01.500',3.94
'0:01.504',3.74
'0:01.508',3.5
'0:01.512',3.14
'0:01.516',2.64
'0:01.520',2.06
'0:01.523',1.56
'0:01.527',1.06
'0:01.531',0.45
'0:01.535',-0.13
'0:01.539',-0.7
'0:01.543',-1.07
'0:01.547',-1.37
'0:01.551',-1.56
'0:01.555',-1.6
'0:01.559',-1.69
'0:01.563',-1.89
'0:01.566',-2.16
'0:01.570',-2.29
'0:01.574',-2.12
'0:01.578',-1.7
'0:01.582',-0.71
'0:01.586',1.22
'0:01.590',3.92
'0:01.594',6.66
'0:01.598',7.99
'0:01.602',6.09
'0:01.605',0.99
'0:01.609',-4.64
'0:01.613',-8.52
'0:01.617',-10.48
'0:01.621',-11.12
'0:01.625',-11.05
'0:01.629',-10.4
'0:01.633',-9.18
'0:01.637',-7.47
'0:01.641',-5.54
'0:01.645',-3.8
'0:01.648',-2.39
'0:01.652',-1.21
'0:01.656',-0.04
'0:01.660',1.18
'0:01.664',2.43
'0:01.668',3.49
'0:01.672',4.28
'0:01.676',4.62
'0:01.680',4.73
'0:01.684',4.84
'0:01.688',4.96
'0:01.691',5.02
'0:01.695',4.98
'0:01.699',4.88
'0:01.703',4.76
'0:01.707',4.68
'0:01.711',4.56
'0:01.715',4.4
'0:01.719',4.41
'0:01.723',4.5
'0:01.727',4.61
'0:01.730',4.68
'0:01.734',4.61
'0:01.738',4.44
'0:01.742',4.39
'0:01.746',4.43
'0:01.750',4.43
'0:01.754',4.35
'0:01.758',4.11
'0:01.762',3.86
'0:01.766',3.6
'0:01.770',3.24
'0:01.773',2.86
'0:01.777',2.36
'0:01.781',2.12
'0:01.785',1.91
'0:01.789',1.72
'0:01.793',1.52
'0:01.797',1.23
'0:01.801',0.92
'0:01.805',0.67
'0:01.809',0.4
'0:01.813',0.14
'0:01.816',-0.08
'0:01.820',-0.18
'0:01.824',-0.35
'0:01.828',-0.66
'0:01.832',-1
'0:01.836',-1.29
'0:01.840',-1.44
'0:01.844',-1.25
'0:01.848',-0.91
'0:01.852',-0.76
'0:01.855',-0.66
'0:01.859',-0.7
'0:01.863',-0.76
'0:01.867',-0.8
'0:01.871',-0.74
'0:01.875',-0.73
'0:01.879',-0.73
'0:01.883',-0.71
'0:01.887',-0.73
'0:01.891',-0.62
'0:01.895',-0.55
'0:01.898',-0.56
'0:01.902',-0.62
'0:01.906',-0.77
'0:01.910',-1.06
'0:01.914',-0.92
'0:01.918',-0.47
'0:01.922',0.26
'0:01.926',1.74
'0:01.930',4.29
'0:01.934',7.29
'0:01.938',9.33
'0:01.941',8.89
'0:01.945',5.13
'0:01.949',-0.46
'0:01.953',-4.99
'0:01.957',-7.71
'0:01.961',-9.05
'0:01.965',-9.61
'0:01.969',-9.38
'0:01.973',-8.42
'0:01.977',-7.3
'0:01.980',-6.1
'0:01.984',-4.68
'0:01.988',-3.49
'0:01.992',-2.48
'0:01.996',-1.59
'0:02.000',-0.91
'0:02.004',-0.57
'0:02.008',-0.51
'0:02.012',-0.51
'0:02.016',-0.51
'0:02.020',-0.51
'0:02.023',-0.51
'0:02.027',-0.51
'0:02.031',-0.51
'0:02.035',-0.46
'0:02.039',-0.54
'0:02.043',-0.21
'0:02.047',-0.08
'0:02.051',-0.23
'0:02.055',-0.31
'0:02.059',-0.28
'0:02.063',0.06
'0:02.066',0.23
'0:02.070',0.31
'0:02.074',0.52
'0:02.078',0.92
'0:02.082',1.07
'0:02.086',0.85
'0:02.090',0.43
'0:02.094',0.07
'0:02.098',-0.14
'0:02.102',-0.25
'0:02.105',-0.49
'0:02.109',-0.78
'0:02.113',-1.03
'0:02.117',-1.28
'0:02.121',-1.36
'0:02.125',-1.39
'0:02.129',-1.46
'0:02.133',-1.53
'0:02.137',-1.51
'0:02.141',-1.38
'0:02.145',-0.97
'0:02.148',-0.61
'0:02.152',-0.06
'0:02.156',0.58
'0:02.160',1.11
'0:02.164',1.28
'0:02.168',1.45
'0:02.172',1.63
'0:02.176',1.72
'0:02.180',1.95
'0:02.184',2.29
'0:02.188',2.51
'0:02.191',2.47
'0:02.195',2.07
'0:02.199',1.61
'0:02.203',1.3
'0:02.207',0.99
'0:02.211',0.7
'0:02.215',0.38
'0:02.219',0.18
'0:02.223',0.16
'0:02.227',0.32
'0:02.230',0.42
'0:02.234',0.49
'0:02.238',0.43
'0:02.242',0.21
'0:02.246',-0.21
'0:02.250',-0.69
'0:02.254',-0.83
'0:02.258',-0.53
'0:02.262',0.17
'0:02.266',1.56
'0:02.270',3.85
'0:02.273',6.63
'0:02.277',9.09
'0:02.281',9.81
'0:02.285',7.04
'0:02.289',1.46
'0:02.293',-3.79
'0:02.297',-7.62
'0:02.301',-9.81
'0:02.305',-10.94
'0:02.309',-11.53
'0:02.313',-11.22
'0:02.316',-10.21
'0:02.320',-8.83
'0:02.324',-7.3
'0:02.328',-5.83
'0:02.332',-4.65
'0:02.336',-3.62
'0:02.340',-2.77
'0:02.344',-2.06
'0:02.348',-1.51
'0:02.352',-1.24
'0:02.355',-0.89
'0:02.359',-0.71
'0:02.363',-0.58
'0:02.367',-0.34
'0:02.371',-0.03
'0:02.375',0.03
'0:02.379',-0.06
'0:02.383',-0.05
'0:02.387',0.05
'0:02.391',-0.04
'0:02.395',0.01
'0:02.398',0.14
'0:02.402',0.28
'0:02.406',0.45
'0:02.410',0.76
'0:02.414',1.11
'0:02.418',1.33
'0:02.422',1.48
'0:02.426',1.42
'0:02.430',1.28
'0:02.434',1.21
'0:02.438',1.04
'0:02.441',0.97
'0:02.445',0.86
'0:02.449',0.74
'0:02.453',0.43
'0:02.457',0.26
'0:02.461',-0.03
'0:02.465',-0.3
'0:02.469',-0.39
'0:02.473',-0.43
'0:02.477',-0.53
'0:02.480',-0.65
'0:02.484',-0.7
'0:02.488',-0.83
'0:02.492',-0.74
'0:02.496',-0.45
'0:02.500',-0.35
'0:02.504',-0.57
'0:02.508',-0.77
'0:02.512',-1.03
'0:02.516',-1.23
'0:02.520',-1.27
'0:02.523',-1.15
'0:02.527',-0.94
'0:02.531',-0.78
'0:02.535',-0.94
'0:02.539',-1.34
'0:02.543',-1.66
'0:02.547',-2.23
'0:02.551',-2.62
'0:02.555',-2.77
'0:02.559',-2.82
'0:02.563',-2.82
'0:02.566',-2.82
'0:02.570',-2.82
'0:02.574',-2.82
'0:02.578',-3
'0:02.582',-2.96
'0:02.586',-2.9
'0:02.590',-2.86
'0:02.594',-2.6
'0:02.598',-2.07
'0:02.602',-0.97
'0:02.605',0.71
'0:02.609',3.33
'0:02.613',6.69
'0:02.617',9.85
'0:02.621',11.91
'0:02.625',11.21
'0:02.629',6.54
'0:02.633',0.4
'0:02.637',-4.41
'0:02.641',-7.73
'0:02.645',-9.82
'0:02.648',-10.86
'0:02.652',-10.73
'0:02.656',-9.86
'0:02.660',-8.48
'0:02.664',-6.88
'0:02.668',-5.46
'0:02.672',-4.1
'0:02.676',-2.95
'0:02.680',-1.87
'0:02.684',-0.97
'0:02.688',-0.43
'0:02.691',-0.04
'0:02.695',0.27
'0:02.699',0.61
'0:02.703',0.79
'0:02.707',1.01
'0:02.711',1.03
'0:02.715',1.07
'0:02.719',1.08
'0:02.723',1.13
'0:02.727',1.24
'0:02.730',1.22
'0:02.734',1.22
'0:02.738',1.31
'0:02.742',1.51
'0:02.746',1.51
'0:02.750',1.62
'0:02.754',1.89
'0:02.758',2.27
'0:02.762',2.38
'0:02.766',2.29
'0:02.770',2.2
'0:02.773',2.02
'0:02.777',1.93
'0:02.781',1.79
'0:02.785',1.6
'0:02.789',1.43
'0:02.793',1.42
'0:02.797',1.28
'0:02.801',0.88
'0:02.805',0.57
'0:02.809',-0.07
'0:02.813',-1.25
'0:02.816',-2.33
'0:02.820',-2.92
'0:02.824',-3.25
'0:02.828',-3.45
'0:02.832',-3.61
'0:02.836',-3.63
'0:02.840',-3.52
'0:02.844',-3.27
'0:02.848',-3.14
'0:02.852',-3.1
'0:02.855',-3.13
'0:02.859',-3.25
'0:02.863',-3.31
'0:02.867',-3.02
'0:02.871',-2.64
'0:02.875',-2.44
'0:02.879',-2.35
'0:02.883',-2.14
'0:02.887',-1.73
'0:02.891',-1.31
'0:02.895',-0.97
'0:02.898',-0.53
'0:02.902',-0.04
'0:02.906',0.49
'0:02.910',0.99
'0:02.914',1.46
'0:02.918',1.74
'0:02.922',1.65
'0:02.926',1.33
'0:02.930',1.28
'0:02.934',1.59
'0:02.938',1.91
'0:02.941',2.52
'0:02.945',3.77
'0:02.949',6.3
'0:02.953',9.61
'0:02.957',12.47
'0:02.961',13.39
'0:02.965',10.63
'0:02.969',4.73
'0:02.973',-1.39
'0:02.977',-5.69
'0:02.980',-8
'0:02.984',-9.03
'0:02.988',-9.06
'0:02.992',-8.31
'0:02.996',-7
'0:03.000',-5.4
'0:03.004',-3.83
'0:03.008',-2.49
'0:03.012',-1.4
'0:03.016',-0.51
'0:03.020',0.3
'0:03.023',0.87
'0:03.027',1.27
'0:03.031',1.62
'0:03.035',1.86
'0:03.039',2.04
'0:03.043',2.12
'0:03.047',2.17
'0:03.051',2.11
'0:03.055',2.17
'0:03.059',2.42
'0:03.063',2.69
'0:03.066',2.87
'0:03.070',2.99
'0:03.074',3.16
'0:03.078',3.37
'0:03.082',3.6
'0:03.086',3.81
'0:03.090',3.97
'0:03.094',4.14
'0:03.098',4.19
'0:03.102',4.24
'0:03.105',4.29
'0:03.109',4.27
'0:03.113',4.17
'0:03.117',3.98
'0:03.121',3.74
'0:03.125',3.43
'0:03.129',3.17
'0:03.133',2.9
'0:03.137',2.62
'0:03.141',2.38
'0:03.145',2.25
'0:03.148',2.1
'0:03.152',1.96
'0:03.156',1.9
'0:03.160',1.74
'0:03.164',1.62
'0:03.168',1.52
'0:03.172',1.33
'0:03.176',1.2
'0:03.180',1.08
'0:03.184',0.98
'0:03.188',0.84
'0:03.191',0.52
'0:03.195',0.1
'0:03.199',-0.11
'0:03.203',-0.28
'0:03.207',-0.35
'0:03.211',-0.47
'0:03.215',-0.83
'0:03.219',-1.2
'0:03.223',-1.43
'0:03.227',-1.72
'0:03.230',-1.97
'0:03.234',-2.16
'0:03.238',-2.24
'0:03.242',-2.17
'0:03.246',-2.1
'0:03.250',-2.02
'0:03.254',-2.07
'0:03.258',-2.07
'0:03.262',-2.16
'0:03.266',-2.42
'0:03.270',-2.68
'0:03.273',-2.42
'0:03.277',-2
'0:03.281',-1.25
'0:03.285',0.22
'0:03.289',2.69
'0:03.293',5.69
'0:03.297',8.09
'0:03.301',8.4
'0:03.305',5.18
'0:03.309',-0.57
'0:03.313',-5.94
'0:03.316',-9.27
'0:03.320',-10.65
'0:03.324',-11.05
'0:03.328',-10.78
'0:03.332',-9.76
'0:03.336',-8.34
'0:03.340',-6.66
'0:03.344',-5.08
'0:03.348',-3.58
'0:03.352',-2.26
'0:03.355',-1.17
'0:03.359',-0.18
'0:03.363',0.52
'0:03.367',1.01
'0:03.371',1.26
'0:03.375',1.27
'0:03.379',1.19
'0:03.383',1.26
'0:03.387',1.6
'0:03.391',1.91
'0:03.395',2.1
'0:03.398',2.01
'0:03.402',1.84
'0:03.406',1.96
'0:03.410',2.37
'0:03.414',2.67
'0:03.418',2.91
'0:03.422',3.13
'0:03.426',3.54
'0:03.430',3.95
'0:03.434',4.35
'0:03.438',4.55
'0:03.441',4.63
'0:03.445',4.43
'0:03.449',4.27
'0:03.453',4.42
'0:03.457',4.53
'0:03.461',4.35
'0:03.465',4.08
'0:03.469',3.98
'0:03.473',4.12
'0:03.477',4.01
'0:03.480',3.76
'0:03.484',3.63
'0:03.488',3.54
'0:03.492',3.63
'0:03.496',3.81
'0:03.500',4.02
'0:03.504',4.1
'0:03.508',4.07
'0:03.512',3.79
'0:03.516',3.32
'0:03.520',3.01
'0:03.523',2.77
'0:03.527',2.35
'0:03.531',1.76
'0:03.535',1.07
'0:03.539',0.26
'0:03.543',-0.4
'0:03.547',-0.68
'0:03.551',-0.7
'0:03.555',-0.7
'0:03.559',-1
'0:03.563',-1.46
'0:03.566',-1.72
'0:03.570',-2
'0:03.574',-2.46
'0:03.578',-2.63
'0:03.582',-2.57
'0:03.586',-2.47
'0:03.590',-2.25
'0:03.594',-2.14
'0:03.598',-2.03
'0:03.602',-1.9
'0:03.605',-1.9
'0:03.609',-1.86
'0:03.613',-1.62
'0:03.617',-1.1
'0:03.621',-0.01
'0:03.625',1.97
'0:03.629',5.07
'0:03.633',8.59
'0:03.637',11.2
'0:03.641',11.29
'0:03.645',7.84
'0:03.648',2.46
'0:03.652',-2.2
'0:03.656',-4.99
'0:03.660',-6.18
'0:03.664',-6.55
'0:03.668',-6.35
'0:03.672',-5.74
'0:03.676',-4.67
'0:03.680',-3.17
'0:03.684',-2.53
'0:03.688',-2.37
'0:03.691',1.85
'0:03.695',2.31
'0:03.699',2.54
'0:03.703',2.79
'0:03.707',2.83
'0:03.711',2.59
'0:03.715',2.24
'0:03.719',1.98
'0:03.723',1.81
'0:03.727',1.67
'0:03.730',1.38
'0:03.734',0.88
'0:03.738',0.41
'0:03.742',0.21
'0:03.746',0.04
'0:03.750',-0.82
'0:03.754',-1.86
'0:03.758',-2.49
'0:03.762',-2.68
'0:03.766',-2.66
'0:03.770',-2.59
'0:03.773',-2.59
'0:03.777',-2.56
'0:03.781',-2.48
'0:03.785',-2.44
'0:03.789',-2.32
'0:03.793',-2.13
'0:03.797',-1.95
'0:03.801',-1.85
'0:03.805',-1.86
'0:03.809',-2
'0:03.813',-1.7
'0:03.816',-0.71
'0:03.820',0.12
'0:03.824',0.69
'0:03.828',1.08
'0:03.832',1.29
'0:03.836',1.34
'0:03.840',1.48
'0:03.844',1.5
'0:03.848',1.29
'0:03.852',0.99
'0:03.855',0.71
'0:03.859',0.57
'0:03.863',0.5
'0:03.867',0.21
'0:03.871',-0.26
'0:03.875',-0.73
'0:03.879',-1.01
'0:03.883',-1.12
'0:03.887',-1.28
'0:03.891',-1.57
'0:03.895',-1.9
'0:03.898',-2.27
'0:03.902',-2.63
'0:03.906',-3.05
'0:03.910',-3.23
'0:03.914',-3.4
'0:03.918',-3.47
'0:03.922',-3.42
'0:03.926',-3.22
'0:03.930',-3.28
'0:03.934',-3.31
'0:03.938',-3.29
'0:03.941',-3.46
'0:03.945',-3.81
'0:03.949',-4.02
'0:03.953',-3.98
'0:03.957',-3.49
'0:03.961',-2.37
'0:03.965',-0.41
'0:03.969',2.51
'0:03.973',5.58
'0:03.977',7.8
'0:03.980',7.13
'0:03.984',2.79
'0:03.988',-2.62
'0:03.992',-6.78
'0:03.996',-9.31
'0:04.000',-10.37
'0:04.004',-10.68
'0:04.008',-10.63
'0:04.012',-10.03
'0:04.016',-8.75
'0:04.020',-6.96
'0:04.023',-5.1
'0:04.027',-3.49
'0:04.031',-2.1
'0:04.035',-1.05
'0:04.039',-0.27
'0:04.043',0.39
'0:04.047',0.77
'0:04.051',1.15
'0:04.055',1.52
'0:04.059',1.95
'0:04.063',2.26
'0:04.066',2.43
'0:04.070',2.44
'0:04.074',2.46
'0:04.078',2.46
'0:04.082',2.52
'0:04.086',2.66
'0:04.090',2.62
'0:04.094',2.31
'0:04.098',2.26
'0:04.102',2.57
'0:04.105',2.92
'0:04.109',3
'0:04.113',3.05
'0:04.117',3.14
'0:04.121',3.33
'0:04.125',3.41
'0:04.129',3.32
'0:04.133',3.04
'0:04.137',2.75
'0:04.141',2.61
'0:04.145',2.75
'0:04.148',2.55
'0:04.152',2.37
'0:04.156',2.16
'0:04.160',2.08
'0:04.164',1.97
'0:04.168',2
'0:04.172',1.75
'0:04.176',1.65
'0:04.180',1.87
'0:04.184',1.89
'0:04.188',1.67
'0:04.191',1.48
'0:04.195',1.34
'0:04.199',1.3
'0:04.203',1.25
'0:04.207',0.93
'0:04.211',0.34
'0:04.215',-0.01
'0:04.219',-0.23
'0:04.223',-0.47
'0:04.227',-0.72
'0:04.230',-0.98
'0:04.234',-1.09
'0:04.238',-2.55
'0:04.242',-3.22
'0:04.246',-3.47
'0:04.250',-3.57
'0:04.254',-3.88
'0:04.258',-3.92
'0:04.262',-3.87
'0:04.266',-3.87
'0:04.270',-3.89
'0:04.273',-4.07
'0:04.277',-4.09
'0:04.281',-4.3
'0:04.285',-4.71
'0:04.289',-4.95
'0:04.293',-4.56
'0:04.297',-3.82
'0:04.301',-2.49
'0:04.305',-0.28
'0:04.309',2.77
'0:04.313',5.96
'0:04.316',8.32
'0:04.320',8.43
'0:04.324',4.91
'0:04.328',-0.92
'0:04.332',-5.79
'0:04.336',-9.05
'0:04.340',-10.97
'0:04.344',-11.78
'0:04.348',-11.62
'0:04.352',-10.82
'0:04.355',-9.95
'0:04.359',-9.06
'0:04.363',-7.67
'0:04.367',-6.29
'0:04.371',-4.94
'0:04.375',-3.54
'0:04.379',-2.2
'0:04.383',-1.21
'0:04.387',-0.71
'0:04.391',-0.12
'0:04.395',0.3
'0:04.398',0.79
'0:04.402',1.06
'0:04.406',1.19
'0:04.410',1.52
'0:04.414',1.79
'0:04.418',1.74
'0:04.422',1.55
'0:04.426',1.68
'0:04.430',2.02
'0:04.434',2.38
'0:04.438',2.43
'0:04.441',2.44
'0:04.445',2.53
'0:04.449',2.71
'0:04.453',2.73
'0:04.457',2.66
'0:04.461',2.66
'0:04.465',2.82
'0:04.469',2.93
'0:04.473',2.93
'0:04.477',2.84
'0:04.480',2.72
'0:04.484',2.57
'0:04.488',2.37
'0:04.492',2.13
'0:04.496',1.98
'0:04.500',1.74
'0:04.504',1.52
'0:04.508',1.37
'0:04.512',1.27
'0:04.516',1.29
'0:04.520',1.23
'0:04.523',1.08
'0:04.527',1.05
'0:04.531',1.05
'0:04.535',1.07
'0:04.539',1.01
'0:04.543',0.86
'0:04.547',0.85
'0:04.551',0.69
'0:04.555',0.52
'0:04.559',0.31
'0:04.563',0.18
'0:04.566',0.13
'0:04.570',-0.05
'0:04.574',-0.32
'0:04.578',-0.65
'0:04.582',-1.05
'0:04.586',-1.52
'0:04.590',-1.75
'0:04.594',-1.86
'0:04.598',-1.97
'0:04.602',-2.09
'0:04.605',-2.33
'0:04.609',-2.32
'0:04.613',-2.15
'0:04.617',-1.99
'0:04.621',-2.01
'0:04.625',-1.89
'0:04.629',-1.77
'0:04.633',-1.25
'0:04.637',-0.47
'0:04.641',0.56
'0:04.645',2.34
'0:04.648',5.23
'0:04.652',8.4
'0:04.656',10.93
'0:04.660',11.24
'0:04.664',7.39
'0:04.668',1.07
'0:04.672',-4.43
'0:04.676',-7.97
'0:04.680',-9.85
'0:04.684',-10.7
'0:04.688',-10.73
'0:04.691',-10.06
'0:04.695',-8.71
'0:04.699',-6.9
'0:04.703',-5.07
'0:04.707',-3.33
'0:04.711',-1.93
'0:04.715',-0.89
'0:04.719',-0.13
'0:04.723',0.49
'0:04.727',1.07
'0:04.730',1.48
'0:04.734',1.75
'0:04.738',1.93
'0:04.742',1.99
'0:04.746',2.07
'0:04.750',2.19
'0:04.754',2.29
'0:04.758',2.47
'0:04.762',2.61
'0:04.766',2.65
'0:04.770',2.73
'0:04.773',2.86
'0:04.777',3.02
'0:04.781',3.4
'0:04.785',3.67
'0:04.789',3.75
'0:04.793',3.96
'0:04.797',4.12
'0:04.801',4.03
'0:04.805',3.86
'0:04.809',3.78
'0:04.813',3.73
'0:04.816',3.57
'0:04.820',3.32
'0:04.824',3.22
'0:04.828',3.1
'0:04.832',2.96
'0:04.836',2.9
'0:04.840',3.02
'0:04.844',3.07
'0:04.848',2.98
'0:04.852',2.88
'0:04.855',2.57
'0:04.859',2.39
'0:04.863',2.21
'0:04.867',2.07
'0:04.871',2.28
'0:04.875',2.25
'0:04.879',1.92
'0:04.883',1.43
'0:04.887',1.1
'0:04.891',0.8
'0:04.895',0.32
'0:04.898',-0.06
'0:04.902',-0.14
'0:04.906',-0.16
'0:04.910',-0.45
'0:04.914',-0.79
'0:04.918',-1.06
'0:04.922',-1.35
'0:04.926',-1.6
'0:04.930',-1.7
'0:04.934',-1.64
'0:04.938',-1.65
'0:04.941',-1.67
'0:04.945',-1.65
'0:04.949',-1.65
'0:04.953',-1.89
'0:04.957',-1.95
'0:04.961',-2.08
'0:04.965',-2.24
'0:04.969',-2.13
'0:04.973',-1.71
'0:04.977',-0.91
'0:04.980',0.59
'0:04.984',3.07
'0:04.988',5.92
'0:04.992',8.23
'0:04.996',8.24
'0:05.000',4.59
'0:05.004',-1.25
'0:05.008',-6.37
'0:05.012',-9.54
'0:05.016',-11.05
'0:05.020',-11.45
'0:05.023',-11.05
'0:05.027',-10.01
'0:05.031',-8.58
'0:05.035',-6.97
'0:05.039',-5.49
'0:05.043',-4.12
'0:05.047',-2.96
'0:05.051',-2.03
'0:05.055',-1.29
'0:05.059',-0.74
'0:05.063',-0.25
'0:05.066',0.19
'0:05.070',0.52
'0:05.074',0.77
'0:05.078',1.2
'0:05.082',1.71
'0:05.086',2.23
'0:05.090',2.83
'0:05.094',3.44
'0:05.098',3.98
'0:05.102',4.61
'0:05.105',5.32
'0:05.109',5.89
'0:05.113',6.27
'0:05.117',6.71
'0:05.121',7.08
'0:05.125',7.37
'0:05.129',7.54
'0:05.133',7.65
'0:05.137',7.86
'0:05.141',8.12
'0:05.145',8.31
'0:05.148',8.03
'0:05.152',7.39
'0:05.156',6.77
'0:05.160',6.09
'0:05.164',5.38
'0:05.168',4.75
'0:05.172',4.35
'0:05.176',4.1
'0:05.180',3.78
'0:05.184',3.45
'0:05.188',3.11
'0:05.191',2.77
'0:05.195',2.37
'0:05.199',1.89
'0:05.203',1.34
'0:05.207',0.77
'0:05.211',0.31
'0:05.215',0.01
'0:05.219',-0.34
'0:05.223',-0.71
'0:05.227',-1.08
'0:05.230',-1.42
'0:05.234',-1.72
'0:05.238',-1.9
'0:05.242',-1.97
'0:05.246',-2.09
'0:05.250',-2.4
'0:05.254',-2.86
'0:05.258',-3.44
'0:05.262',-3.95
'0:05.266',-4.34
'0:05.270',-4.57
'0:05.273',-4.63
'0:05.277',-4.65
'0:05.281',-4.64
'0:05.285',-4.51
'0:05.289',-4.38
'0:05.293',-4.31
'0:05.297',-4.34
'0:05.301',-4.47
'0:05.305',-4.58
'0:05.309',-4.44
'0:05.313',-4.03
'0:05.316',-3.16
'0:05.320',-1.41
'0:05.324',1.25
'0:05.328',3.97
'0:05.332',5.55
'0:05.336',4.45
'0:05.340',0.03
'0:05.344',-5.62
'0:05.348',-9.91
'0:05.352',-12.08
'0:05.355',-12.78
'0:05.359',-12.79
'0:05.363',-12.27
'0:05.367',-11.17
'0:05.371',-9.55
'0:05.375',-7.75
'0:05.379',-6.05
'0:05.383',-4.47
'0:05.387',-3.16
'0:05.391',-2.17
'0:05.395',-1.43
'0:05.398',-0.85
'0:05.402',-0.54
'0:05.406',-0.28
'0:05.410',-0.02
'0:05.414',0.14
'0:05.418',0.27
'0:05.422',0.32
'0:05.426',0.51
'0:05.430',0.68
'0:05.434',0.77
'0:05.438',0.9
'0:05.441',1.09
'0:05.445',1.4
'0:05.449',1.66
'0:05.453',1.92
'0:05.457',2.14
'0:05.461',2.41
'0:05.465',2.65
'0:05.469',2.89
'0:05.473',3.07
'0:05.477',3.16
'0:05.480',3.15
'0:05.484',3.1
'0:05.488',3.02
'0:05.492',2.74
'0:05.496',2.43
'0:05.500',2.41
'0:05.504',2.21
'0:05.508',1.89
'0:05.512',1.72
'0:05.516',1.98
'0:05.520',2.4
'0:05.523',2.57
'0:05.527',2.54
'0:05.531',2.58
'0:05.535',2.63
'0:05.539',2.46
'0:05.543',2.3
'0:05.547',2.34
'0:05.551',3
'0:05.555',4.08
'0:05.559',4.69
'0:05.563',4.87
'0:05.566',4.83
'0:05.570',4.5
'0:05.574',4.16
'0:05.578',4.02
'0:05.582',3.91
'0:05.586',3.41
'0:05.590',2.68
'0:05.594',1.97
'0:05.598',1.23
'0:05.602',0.52
'0:05.605',-0.11
'0:05.609',-0.49
'0:05.613',-0.67
'0:05.617',-0.91
'0:05.621',-1.31
'0:05.625',-1.48
'0:05.629',-1.6
'0:05.633',-1.86
'0:05.637',-2.11
'0:05.641',-2.12
'0:05.645',-2.05
'0:05.648',-1.85
'0:05.652',-1.52
'0:05.656',-0.76
'0:05.660',0.92
'0:05.664',3.7
'0:05.668',6.27
'0:05.672',7.47
'0:05.676',5.73
'0:05.680',0.91
'0:05.684',-4.29
'0:05.688',-8.02
'0:05.691',-10
'0:05.695',-10.78
'0:05.699',-11.05
'0:05.703',-10.76
'0:05.707',-9.93
'0:05.711',-8.59
'0:05.715',-6.91
'0:05.719',-5.25
'0:05.723',-3.83
'0:05.727',-2.56
'0:05.730',-1.67
'0:05.734',-0.96
'0:05.738',-0.33
'0:05.742',-0.02
'0:05.746',0.13
'0:05.750',0.27
'0:05.754',0.4
'0:05.758',0.42
'0:05.762',0.27
'0:05.766',0.25
'0:05.770',0.18
'0:05.773',0.11
'0:05.777',0.12
'0:05.781',0.08
'0:05.785',0.05
'0:05.789',0.14
'0:05.793',0.38
'0:05.797',0.72
'0:05.801',1.04
'0:05.805',1.48
'0:05.809',1.99
'0:05.813',2.53
'0:05.816',3.06
'0:05.820',3.69
'0:05.824',4.37
'0:05.828',5.17
'0:05.832',5.97
'0:05.836',6.6
'0:05.840',6.94
'0:05.844',6.81
'0:05.848',6.42
'0:05.852',6.06
'0:05.855',5.73
'0:05.859',5.46
'0:05.863',5.49
'0:05.867',5.53
'0:05.871',5.51
'0:05.875',5.34
'0:05.879',4.93
'0:05.883',4.57
'0:05.887',4.34
'0:05.891',3.94
'0:05.895',3.45
'0:05.898',2.93
'0:05.902',2.37
'0:05.906',1.92
'0:05.910',1.38
'0:05.914',0.91
'0:05.918',0.67
'0:05.922',0.67
'0:05.926',0.45
'0:05.930',-0.18
'0:05.934',-1.1
'0:05.938',-2.08
'0:05.941',-2.69
'0:05.945',-2.99
'0:05.949',-3.26
'0:05.953',-3.4
'0:05.957',-3.41
'0:05.961',-3.41
'0:05.965',-3.41
'0:05.969',-3.41
'0:05.973',-3.28
'0:05.977',-3.35
'0:05.980',-3.58
'0:05.984',-3.64
'0:05.988',-3.42
'0:05.992',-2.93
'0:05.996',-1.81
'0:06.000',0.33
'0:06.004',3.47
'0:06.008',6.56
'0:06.012',8.69
'0:06.016',7.91
'0:06.020',3.19
'0:06.023',-2.5
'0:06.027',-7.04
'0:06.031',-9.65
'0:06.035',-10.96
'0:06.039',-11.47
'0:06.043',-11.31
'0:06.047',-10.39
'0:06.051',-9.09
'0:06.055',-7.46
'0:06.059',-5.78
'0:06.063',-4.29
'0:06.066',-3.11
'0:06.070',-2.21
'0:06.074',-1.57
'0:06.078',-1.08
'0:06.082',-0.73
'0:06.086',-0.58
'0:06.090',-0.33
'0:06.094',-0.05
'0:06.098',0.19
'0:06.102',0.3
'0:06.105',0.42
'0:06.109',0.58
'0:06.113',0.73
'0:06.117',0.76
'0:06.121',0.77
'0:06.125',0.9
'0:06.129',1.07
'0:06.133',1.12
'0:06.137',1.31
'0:06.141',1.57
'0:06.145',1.76
'0:06.148',1.92
'0:06.152',2.21
'0:06.156',2.39
'0:06.160',2.32
'0:06.164',2.15
'0:06.168',2.21
'0:06.172',2.21
'0:06.176',2.08
'0:06.180',1.91
'0:06.184',1.83
'0:06.188',1.83
'0:06.191',1.75
'0:06.195',1.95
'0:06.199',1.86
'0:06.203',1.55
'0:06.207',1.35
'0:06.211',1.26
'0:06.215',1.18
'0:06.219',1.11
'0:06.223',1.09
'0:06.227',1.01
'0:06.230',0.77
'0:06.234',0.5
'0:06.238',0.23
'0:06.242',0.04
'0:06.246',-0.08
'0:06.250',-0.21
'0:06.254',-0.15
'0:06.258',-0.17
'0:06.262',-0.74
'0:06.266',-2.07
'0:06.270',-3.41
'0:06.273',-4.51
'0:06.277',-5.11
'0:06.281',-5.47
'0:06.285',-5.6
'0:06.289',-5.5
'0:06.293',-5.58
'0:06.297',-5.48
'0:06.301',-5.15
'0:06.305',-4.83
'0:06.309',-4.55
'0:06.313',-4.58
'0:06.316',-4.77
'0:06.320',-4.68
'0:06.324',-4.2
'0:06.328',-3.57
'0:06.332',-2.41
'0:06.336',-0.4
'0:06.340',2.51
'0:06.344',5.82
'0:06.348',8.63
'0:06.352',9.74
'0:06.355',7.15
'0:06.359',1.29
'0:06.363',-4.4
'0:06.367',-8.33
'0:06.371',-10.49
'0:06.375',-11.56
'0:06.379',-11.74
'0:06.383',-11.04
'0:06.387',-9.65
'0:06.391',-7.97
'0:06.395',-6.4
'0:06.398',-5.05
'0:06.402',-3.72
'0:06.406',-2.45
'0:06.410',-1.3
'0:06.414',-0.68
'0:06.418',-0.36
'0:06.422',-0.07
'0:06.426',0.15
'0:06.430',0.53
'0:06.434',0.69
'0:06.438',0.8
'0:06.441',1.04
'0:06.445',1.2
'0:06.449',1.32
'0:06.453',1.37
'0:06.457',1.39
'0:06.461',1.95
'0:06.465',2.24
'0:06.469',2.38
'0:06.473',2.58
'0:06.477',2.68
'0:06.480',2.83
'0:06.484',2.82
'0:06.488',2.73
'0:06.492',2.64
'0:06.496',2.61
'0:06.500',2.61
'0:06.504',2.56
'0:06.508',2.53
'0:06.512',2.27
'0:06.516',1.81
'0:06.520',1.45
'0:06.523',1.34
'0:06.527',1.36
'0:06.531',1.35
'0:06.535',1.32
'0:06.539',1.18
'0:06.543',1.09
'0:06.547',0.97
'0:06.551',0.85
'0:06.555',0.88
'0:06.559',1.16
'0:06.563',1.48
'0:06.566',1.59
'0:06.570',1.58
'0:06.574',1.58
'0:06.578',1.58
'0:06.582',1.59
'0:06.586',1.58
'0:06.590',1.59
'0:06.594',1.59
'0:06.598',1.59
'0:06.602',1.59
'0:06.605',1.59
'0:06.609',1.59
'0:06.613',1.59
'0:06.617',1.59
'0:06.621',1.59
'0:06.625',1.59
'0:06.629',1.59
'0:06.633',1.59
'0:06.637',1.58
'0:06.641',1.58
'0:06.645',1.59
'0:06.648',1.58
'0:06.652',1.58
'0:06.656',1.58
'0:06.660',1.59
'0:06.664',1.59
'0:06.668',1.59
'0:06.672',1.58
'0:06.676',1.59
'0:06.680',1.58
'0:06.684',1.58
'0:06.688',1.58
'0:06.691',1.58
'0:06.695',1.58
'0:06.699',1.59
'0:06.703',1.59
'0:06.707',1.58
'0:06.711',1.58
'0:06.715',1.59
'0:06.719',1.59
'0:06.723',1.59
'0:06.727',1.58
'0:06.730',1.58
'0:06.734',1.58
'0:06.738',1.58
'0:06.742',1.59
'0:06.746',1.59
'0:06.750',1.58
'0:06.754',-0.38
'0:06.758',-0.78
'0:06.762',-0.44
'0:06.766',-0.1
'0:06.770',0.16
'0:06.773',0.41
'0:06.777',0.61
'0:06.781',0.75
'0:06.785',0.83
'0:06.789',0.99
'0:06.793',1.22
'0:06.797',1.39
'0:06.801',1.47
'0:06.805',1.61
'0:06.809',1.85
'0:06.813',2.12
'0:06.816',2.39
'0:06.820',2.63
'0:06.824',2.75
'0:06.828',2.76
'0:06.832',2.74
'0:06.836',2.78
'0:06.840',2.8
'0:06.844',2.78
'0:06.848',2.49
'0:06.852',2.27
'0:06.855',1.95
'0:06.859',1.66
'0:06.863',1.65
'0:06.867',1.65
'0:06.871',1.66
'0:06.875',1.66
'0:06.879',1.66
'0:06.883',1.66
'0:06.887',1.66
'0:06.891',1.66
'0:06.895',1.65
'0:06.898',1.66
'0:06.902',1.66
'0:06.906',1.66
'0:06.910',1.66
'0:06.914',1.66
'0:06.918',1.66
'0:06.922',1.65
'0:06.926',1.66
'0:06.930',1.66
'0:06.934',1.66
'0:06.938',1.66
'0:06.941',1.65
'0:06.945',1.65
'0:06.949',1.66
'0:06.953',1.66
'0:06.957',1.66
'0:06.961',1.66
'0:06.965',1.66
'0:06.969',1.66
'0:06.973',1.66
'0:06.977',1.66
'0:06.980',1.66
'0:06.984',1.66
'0:06.988',1.66
'0:06.992',1.66
'0:06.996',1.66
'0:07.000',1.66
'0:07.004',1.66
'0:07.008',1.66
'0:07.012',1.65
'0:07.016',1.66
'0:07.020',1.66
'0:07.023',1.66
'0:07.027',1.66
'0:07.031',1.66
'0:07.035',1.66
'0:07.039',1.66
'0:07.043',1.66
'0:07.047',1.66
'0:07.051',1.66
'0:07.055',1.66
'0:07.059',1.66
'0:07.063',1.66
'0:07.066',1.66
'0:07.070',1.66
'0:07.074',1.66
'0:07.078',1.66
'0:07.082',1.66
'0:07.086',1.66
'0:07.090',1.66
'0:07.094',1.66
'0:07.098',-2.66
'0:07.102',-2.6
'0:07.105',-2.29
'0:07.109',-2.12
'0:07.113',-2.14
'0:07.117',-2.19
'0:07.121',-2
'0:07.125',-1.71
'0:07.129',-1.28
'0:07.133',-0.71
'0:07.137',-0.22
'0:07.141',0.43
'0:07.145',1.06
'0:07.148',1.25
'0:07.152',1.39
'0:07.156',2.88
'0:07.160',4.26
'0:07.164',5.33
'0:07.168',6.49
'0:07.172',6.63
'0:07.176',6.7
'0:07.180',6.54
'0:07.184',6.23
'0:07.188',6
'0:07.191',5.66
'0:07.195',5.24
'0:07.199',4.69
'0:07.203',4.05
'0:07.207',3.61
'0:07.211',3.31
'0:07.215',2.98
'0:07.219',2.64
'0:07.223',2.37
'0:07.227',2.17
'0:07.230',1.91
'0:07.234',1.47
'0:07.238',1.08
'0:07.242',0.78
'0:07.246',0.51
'0:07.250',0.08
'0:07.254',-0.43
'0:07.258',-0.93
'0:07.262',-1.31
'0:07.266',-1.68
'0:07.270',-2.02
'0:07.273',-2.24
'0:07.277',-2.67
'0:07.281',-3.28
'0:07.285',-3.93
'0:07.289',-4.57
'0:07.293',-4.97
'0:07.297',-5.06
'0:07.301',-5.23
'0:07.305',-5.46
'0:07.309',-5.65
'0:07.313',-5.65
'0:07.316',-5.29
'0:07.320',-4.61
'0:07.324',-3.76
'0:07.328',-2.88
'0:07.332',-2.07
'0:07.336',-1.15
'0:07.340',-0.03
'0:07.344',1.45
'0:07.348',3.43
'0:07.352',6.2
'0:07.355',9.35
'0:07.359',11.65
'0:07.363',11.26
'0:07.367',7.44
'0:07.371',1.96
'0:07.375',-2.57
'0:07.379',-5.15
'0:07.383',-6.21
'0:07.387',-6.79
'0:07.391',-6.79
'0:07.395',-6.17
'0:07.398',-4.88
'0:07.402',-3.35
'0:07.406',-2.03
'0:07.410',-0.95
'0:07.414',-0.02
'0:07.418',0.82
'0:07.422',1.49
'0:07.426',1.75
'0:07.430',1.75
'0:07.434',1.68
'0:07.438',1.58
'0:07.441',1.46
'0:07.445',1.3
'0:07.449',1.16
'0:07.453',1.09
'0:07.457',1.05
'0:07.461',0.98
'0:07.465',0.87
'0:07.469',0.78
'0:07.473',0.71
'0:07.477',0.6
'0:07.480',0.6
'0:07.484',0.73
'0:07.488',0.9
'0:07.492',1.01
'0:07.496',1.12
'0:07.500',1.29
'0:07.504',1.41
'0:07.508',1.51
'0:07.512',1.44
'0:07.516',1.22
'0:07.520',1.08
'0:07.523',1
'0:07.527',0.88
'0:07.531',0.66
'0:07.535',0.42
'0:07.539',0.29
'0:07.543',0.27
'0:07.547',0.18
'0:07.551',0.13
'0:07.555',0.02
'0:07.559',-0.14
'0:07.563',-0.22
'0:07.566',-0.22
'0:07.570',-0.29
'0:07.574',-0.37
'0:07.578',-0.46
'0:07.582',-0.58
'0:07.586',-0.75
'0:07.590',-1.02
'0:07.594',-1.25
'0:07.598',-1.6
'0:07.602',-1.92
'0:07.605',-2.03
'0:07.609',-2.02
'0:07.613',-1.92
'0:07.617',-2.02
'0:07.621',-2.34
'0:07.625',-2.75
'0:07.629',-3.21
'0:07.633',-3.62
'0:07.637',-3.69
'0:07.641',-3.58
'0:07.645',-3.5
'0:07.648',-3.36
'0:07.652',-3.26
'0:07.656',-3.24
'0:07.660',-3.21
'0:07.664',-3.23
'0:07.668',-3.48
'0:07.672',-3.73
'0:07.676',-3.7
'0:07.680',-3.21
'0:07.684',-1.98
'0:07.688',0.12
'0:07.691',2.99
'0:07.695',5.99
'0:07.699',8.25
'0:07.703',8
'0:07.707',3.92
'0:07.711',-1.55
'0:07.715',-5.91
'0:07.719',-8.8
'0:07.723',-10.37
'0:07.727',-11.22
'0:07.730',-11.23
'0:07.734',-10.47
'0:07.738',-9.05
'0:07.742',-7.33
'0:07.746',-5.7
'0:07.750',-4.26
'0:07.754',-2.97
'0:07.758',-1.9
'0:07.762',-1.14
'0:07.766',-0.55
'0:07.770',0.08
'0:07.773',0.63
'0:07.777',0.68
'0:07.781',0.93
'0:07.785',1.54
'0:07.789',1.71
'0:07.793',1.7
'0:07.797',1.7
'0:07.801',1.63
'0:07.805',1.51
'0:07.809',1.56
'0:07.813',1.9
'0:07.816',2.1
'0:07.820',2.15
'0:07.824',2.15
'0:07.828',2.27
'0:07.832',2.63
'0:07.836',2.83
'0:07.840',2.93
'0:07.844',3.07
'0:07.848',3.09
'0:07.852',2.93
'0:07.855',2.68
'0:07.859',2.5
'0:07.863',2.45
'0:07.867',2.19
'0:07.871',1.88
'0:07.875',1.76
'0:07.879',1.67
'0:07.883',1.26
'0:07.887',1.12
'0:07.891',1.19
'0:07.895',0.85
'0:07.898',0.59
'0:07.902',0.11
'0:07.906',-0.07
'0:07.910',0.34
'0:07.914',0.42
'0:07.918',0.4
'0:07.922',0.49
'0:07.926',0.37
'0:07.930',0.39
'0:07.934',0.34
'0:07.938',0.14
'0:07.941',-0.12
'0:07.945',0.04
'0:07.949',0
'0:07.953',-0.17
'0:07.957',-0.81
'0:07.961',-1.38
'0:07.965',-1.84
'0:07.969',-2.19
'0:07.973',-2.48
'0:07.977',-2.85
'0:07.980',-3.09
'0:07.984',-3.06
'0:07.988',-2.87
'0:07.992',-2.81
'0:07.996',-2.95
'0:08.000',-3.04
'0:08.004',-3.06
'0:08.008',-3.2
'0:08.012',-3.11
'0:08.016',-2.53
'0:08.020',-1.58
'0:08.023',-0.2
'0:08.027',2.2
'0:08.031',5.37
'0:08.035',8.13
'0:08.039',9.07
'0:08.043',6.79
'0:08.047',1.23
'0:08.051',-4.67
'0:08.055',-8.87
'0:08.059',-11.33
'0:08.063',-12.59
'0:08.066',-12.99
'0:08.070',-12.49
'0:08.074',-11.39
'0:08.078',-9.95
'0:08.082',-8
'0:08.086',-5.91
'0:08.090',-4.21
'0:08.094',-2.87
'0:08.098',-1.58
'0:08.102',-0.5
'0:08.105',0.21
'0:08.109',0.66
'0:08.113',1.1
'0:08.117',1.42
'0:08.121',1.75
'0:08.125',1.98
'0:08.129',2.2
'0:08.133',2.54
'0:08.137',2.87
'0:08.141',3.2
'0:08.145',3.34
'0:08.148',3.17
'0:08.152',3.04
'0:08.156',3.07
'0:08.160',3.2
'0:08.164',3.27
'0:08.168',3.3
'0:08.172',3.35
'0:08.176',3.34
'0:08.180',3.41
'0:08.184',3.49
'0:08.188',3.56
'0:08.191',3.49
'0:08.195',3.36
'0:08.199',3.27
'0:08.203',3.23
'0:08.207',3
'0:08.211',2.63
'0:08.215',2.39
'0:08.219',2.29
'0:08.223',2.32
'0:08.227',2.17
'0:08.230',1.9
'0:08.234',1.61
'0:08.238',1.45
'0:08.242',1.37
'0:08.246',1.36
'0:08.250',1.29
'0:08.254',1.17
'0:08.258',1.13
'0:08.262',0.99
'0:08.266',0.76
'0:08.270',0.46
'0:08.273',0.37
'0:08.277',0.35
'0:08.281',0.35
'0:08.285',0.27
'0:08.289',0.03
'0:08.293',-0.19
'0:08.297',-0.42
'0:08.301',-0.76
'0:08.305',-1.26
'0:08.309',-1.73
'0:08.313',-2
'0:08.316',-2.17
'0:08.320',-2.32
'0:08.324',-2.27
'0:08.328',-2.26
'0:08.332',-2.27
'0:08.336',-2.24
'0:08.340',-2.26
'0:08.344',-2.36
'0:08.348',-2.29
'0:08.352',-1.95
'0:08.355',-1.37
'0:08.359',-0.25
'0:08.363',1.71
'0:08.367',4.64
'0:08.371',7.92
'0:08.375',10.3
'0:08.379',9.59
'0:08.383',4.94
'0:08.387',-1.53
'0:08.391',-6.56
'0:08.395',-9.31
'0:08.398',-10.5
'0:08.402',-10.79
'0:08.406',-10.46
'0:08.410',-9.5
'0:08.414',-8.02
'0:08.418',-6.24
'0:08.422',-4.52
'0:08.426',-3.02
'0:08.430',-1.84
'0:08.434',-0.82
'0:08.438',-0.02
'0:08.441',0.4
'0:08.445',0.74
'0:08.449',0.98
'0:08.453',1.23
'0:08.457',1.51
'0:08.461',1.63
'0:08.465',1.63
'0:08.469',1.61
'0:08.473',1.68
'0:08.477',1.83
'0:08.480',1.97
'0:08.484',2.12
'0:08.488',2.12
'0:08.492',2.17
'0:08.496',2.26
'0:08.500',2.44
'0:08.504',2.63
'0:08.508',2.83
'0:08.512',3.1
'0:08.516',3.34
'0:08.520',3.49
'0:08.523',3.58
'0:08.527',3.7
'0:08.531',3.83
'0:08.535',4.07
'0:08.539',4.27
'0:08.543',4.26
'0:08.547',4.27
'0:08.551',4.44
'0:08.555',4.51
'0:08.559',4.26
'0:08.563',3.97
'0:08.566',3.97
'0:08.570',3.77
'0:08.574',3.39
'0:08.578',2.99
'0:08.582',2.48
'0:08.586',2.15
'0:08.590',2.02
'0:08.594',1.77
'0:08.598',1.5
'0:08.602',0.98
'0:08.605',0.74
'0:08.609',0.59
'0:08.613',0.29
'0:08.617',0.03
'0:08.621',-0.14
'0:08.625',-0.44
'0:08.629',-1.03
'0:08.633',-1.77
'0:08.637',-2.39
'0:08.641',-2.9
'0:08.645',-3.2
'0:08.648',-3.16
'0:08.652',-2.84
'0:08.656',-2.48
'0:08.660',-2.14
'0:08.664',-1.82
'0:08.668',-1.43
'0:08.672',-1.2
'0:08.676',-1.21
'0:08.680',-1.4
'0:08.684',-1.56
'0:08.688',-1.37
'0:08.691',-0.98
'0:08.695',-0.14
'0:08.699',1.85
'0:08.703',4.41
'0:08.707',7.58
'0:08.711',10.09
'0:08.715',9.67
'0:08.719',5.58
'0:08.723',-0.25
'0:08.727',-4.6
'0:08.730',-6.91
'0:08.734',-7.94
'0:08.738',-8.26
'0:08.742',-7.87
'0:08.746',-6.94
'0:08.750',-5.62
'0:08.754',-4.12
'0:08.758',-2.75
'0:08.762',-1.45
'0:08.766',-0.2
'0:08.770',0.81
'0:08.773',1.55
'0:08.777',1.88
'0:08.781',1.97
'0:08.785',2
'0:08.789',2.02
'0:08.793',2.05
'0:08.797',2.08
'0:08.801',2.22
'0:08.805',2.32
'0:08.809',2.27
'0:08.813',2.43
'0:08.816',2.73
'0:08.820',2.96
'0:08.824',3.3
'0:08.828',3.65
'0:08.832',3.88
'0:08.836',4.25
'0:08.840',4.52
'0:08.844',4.88
'0:08.848',5.32
'0:08.852',5.62
'0:08.855',5.75
'0:08.859',5.77
'0:08.863',5.63
'0:08.867',5.43
'0:08.871',5.26
'0:08.875',5.04
'0:08.879',4.82
'0:08.883',4.79
'0:08.887',4.68
'0:08.891',4.48
'0:08.895',4.04
'0:08.898',3.39
'0:08.902',2.9
'0:08.906',2.53
'0:08.910',2.08
'0:08.914',1.65
'0:08.918',1.3
'0:08.922',1.17
'0:08.926',1.1
'0:08.930',1.01
'0:08.934',0.88
'0:08.938',0.58
'0:08.941',0.2
'0:08.945',-0.25
'0:08.949',-0.66
'0:08.953',-1.08
'0:08.957',-1.52
'0:08.961',-1.84
'0:08.965',-2.17
'0:08.969',-2.54
'0:08.973',-2.95
'0:08.977',-3.34
'0:08.980',-3.71
'0:08.984',-3.97
'0:08.988',-4.21
'0:08.992',-4.44
'0:08.996',-4.58
'0:09.000',-4.65
'0:09.004',-4.65
'0:09.008',-4.63
'0:09.012',-4.66
'0:09.016',-4.65
'0:09.020',-4.62
'0:09.023',-4.4
'0:09.027',-3.97
'0:09.031',-3.32
'0:09.035',-2.19
'0:09.039',0.02
'0:09.043',3.03
'0:09.047',5.61
'0:09.051',6.25
'0:09.055',3.58
'0:09.059',-1.66
'0:09.063',-6.58
'0:09.066',-9.77
'0:09.070',-11.14
'0:09.074',-11.42
'0:09.078',-11.12
'0:09.082',-10.28
'0:09.086',-9
'0:09.090',-7.35
'0:09.094',-5.54
'0:09.098',-4.05
'0:09.102',-2.76
'0:09.105',-1.66
'0:09.109',-0.78
'0:09.113',-0.11
'0:09.117',0.4
'0:09.121',0.74
'0:09.125',0.87
'0:09.129',1.01
'0:09.133',1.11
'0:09.137',1.26
'0:09.141',1.39
'0:09.145',1.41
'0:09.148',1.41
'0:09.152',1.34
'0:09.156',1.39
'0:09.160',1.51
'0:09.164',1.6
'0:09.168',1.78
'0:09.172',2.05
'0:09.176',2.35
'0:09.180',2.59
'0:09.184',2.78
'0:09.188',2.94
'0:09.191',2.99
'0:09.195',3.07
'0:09.199',3.14
'0:09.203',3.06
'0:09.207',2.95
'0:09.211',2.75
'0:09.215',2.58
'0:09.219',2.35
'0:09.223',2.07
'0:09.227',1.85
'0:09.230',1.68
'0:09.234',1.51
'0:09.238',1.34
'0:09.242',1.14
'0:09.246',0.97
'0:09.250',0.78
'0:09.254',0.58
'0:09.258',0.34
'0:09.262',0.1
'0:09.266',-0.12
'0:09.270',-0.03
'0:09.273',0.21
'0:09.277',0.07
'0:09.281',-0.01
'0:09.285',0.13
'0:09.289',-0.08
'0:09.293',-0.46
'0:09.297',-0.63
'0:09.301',-0.82
'0:09.305',-1.11
'0:09.309',-1.43
'0:09.313',-1.69
'0:09.316',-1.97
'0:09.320',-2.3
'0:09.324',-2.47
'0:09.328',-2.29
'0:09.332',-2.21
'0:09.336',-2.17
'0:09.340',-2.2
'0:09.344',-2.35
'0:09.348',-2.39
'0:09.352',-2.51
'0:09.355',-2.86
'0:09.359',-3.22
'0:09.363',-3.34
'0:09.367',-3.18
'0:09.371',-2.45
'0:09.375',-0.87
'0:09.379',1.66
'0:09.383',4.67
'0:09.387',7.1
'0:09.391',7.65
'0:09.395',4.66
'0:09.398',-0.43
'0:09.402',-4.91
'0:09.406',-7.82
'0:09.410',-9.23
'0:09.414',-9.8
'0:09.418',-9.99
'0:09.422',-9.41
'0:09.426',-8.35
'0:09.430',-6.95
'0:09.434',-5.31
'0:09.438',-3.77
'0:09.441',-2.48
'0:09.445',-1.36
'0:09.449',-0.41
'0:09.453',0.23
'0:09.457',0.51
'0:09.461',0.76
'0:09.465',0.9
'0:09.469',0.94
'0:09.473',1.05
'0:09.477',1.47
'0:09.480',1.71
'0:09.484',1.49
'0:09.488',1.3
'0:09.492',1.18
'0:09.496',1.25
'0:09.500',1.37
'0:09.504',1.49
'0:09.508',1.61
'0:09.512',1.77
'0:09.516',1.75
'0:09.520',1.79
'0:09.523',2.06
'0:09.527',2.17
'0:09.531',2.25
'0:09.535',2.29
'0:09.539',2.22
'0:09.543',2.19
'0:09.547',1.97
'0:09.551',1.85
'0:09.555',1.85
'0:09.559',1.8
'0:09.563',1.72
'0:09.566',1.66
'0:09.570',1.71
'0:09.574',1.91
'0:09.578',1.98
'0:09.582',2.2
'0:09.586',2.31
'0:09.590',2.4
'0:09.594',2.54
'0:09.598',2.49
'0:09.602',2.61
'0:09.605',2.65
'0:09.609',2.49
'0:09.613',2.43
'0:09.617',2.11
'0:09.621',1.72
'0:09.625',1.54
'0:09.629',1.39
'0:09.633',1.42
'0:09.637',1.49
'0:09.641',1.34
'0:09.645',1.21
'0:09.648',0.9
'0:09.652',0.42
'0:09.656',-0.92
'0:09.660',-2.24
'0:09.664',-3.13
'0:09.668',-3.64
'0:09.672',-3.97
'0:09.676',-4.24
'0:09.680',-4.44
'0:09.684',-4.56
'0:09.688',-4.78
'0:09.691',-4.98
'0:09.695',-5.17
'0:09.699',-5.24
'0:09.703',-4.91
'0:09.707',-4.15
'0:09.711',-2.57
'0:09.715',-0.1
'0:09.719',3.12
'0:09.723',6.18
'0:09.727',8.41
'0:09.730',7.73
'0:09.734',3.3
'0:09.738',-2.69
'0:09.742',-7.49
'0:09.746',-10.5
'0:09.750',-11.96
'0:09.754',-12.7
'0:09.758',-12.67
'0:09.762',-12
'0:09.766',-10.62
'0:09.770',-8.69
'0:09.773',-6.87
'0:09.777',-5.4
'0:09.781',-4.01
'0:09.785',-2.94
'0:09.789',-2.02
'0:09.793',-1.34
'0:09.797',-0.77
'0:09.801',-0.56
'0:09.805',-0.5
'0:09.809',-0.48
'0:09.813',-0.31
'0:09.816',-0.02
'0:09.820',0.27
'0:09.824',0.54
'0:09.828',0.7
'0:09.832',0.73
'0:09.836',0.64
'0:09.840',0.72
'0:09.844',0.88
'0:09.848',1.05
'0:09.852',1.32
'0:09.855',1.51
'0:09.859',1.84
'0:09.863',2.23
'0:09.867',2.38
'0:09.871',2.31
'0:09.875',2.19
'0:09.879',2.1
'0:09.883',2
'0:09.887',2.04
'0:09.891',2.05
'0:09.895',2.06
'0:09.898',1.94
'0:09.902',1.76
'0:09.906',1.61
'0:09.910',1.48
'0:09.914',1.3
'0:09.918',1.19
'0:09.922',1.12
'0:09.926',1.04
'0:09.930',1
'0:09.934',1.02
'0:09.938',1.09
'0:09.941',1.12
'0:09.945',1.2
'0:09.949',1.12
'0:09.953',0.84
'0:09.957',0.58
'0:09.961',0.53
'0:09.965',0.42
'0:09.969',0.28
'0:09.973',0.2
'0:09.977',0.1
'0:09.980',-0.03
'0:09.984',-0.34
'0:09.988',-0.81
'0:09.992',-1.24
'0:09.996',-1.6
'0:10.000',-1.86
'0:10.004',-2.02
'0:10.008',-2.07
'0:10.012',-2.09
'0:10.016',-2.12
'0:10.020',-1.99
'0:10.023',-1.79
'0:10.027',-1.72
'0:10.031',-1.81
'0:10.035',-1.93
'0:10.039',-1.84
'0:10.043',-1.21
'0:10.047',-0.17
'0:10.051',1.63
'0:10.055',4.37
'0:10.059',7.44
'0:10.063',10.49
'0:10.066',12.09
'0:10.070',10.17
'0:10.074',4.61
'0:10.078',-1.37
'0:10.082',-5.85
'0:10.086',-8.62
'0:10.090',-10.06
'0:10.094',-10.57
'0:10.098',-10.25
'0:10.102',-9.32
'0:10.105',-7.85
'0:10.109',-6.16
'0:10.113',-4.51
'0:10.117',-3
'0:10.121',-1.82
'0:10.125',-1.09
'0:10.129',-0.29
'0:10.133',0.36
'0:10.137',0.81
'0:10.141',1.05
'0:10.145',1.2
'0:10.148',1.16
'0:10.152',1.45
'0:10.156',1.94
'0:10.160',1.97
'0:10.164',1.85
'0:10.168',1.83
'0:10.172',1.93
'0:10.176',2.25
'0:10.180',2.76
'0:10.184',2.95
'0:10.188',2.87
'0:10.191',3.02
'0:10.195',3.37
'0:10.199',3.37
'0:10.203',3.37
'0:10.207',3.33
'0:10.211',3.24
'0:10.215',3.3
'0:10.219',3.39
'0:10.223',3.32
'0:10.227',3.25
'0:10.230',3.25
'0:10.234',3.13
'0:10.238',2.9
'0:10.242',2.64
'0:10.246',2.45
'0:10.250',2.24
'0:10.254',2.04
'0:10.258',1.9
'0:10.262',1.72
'0:10.266',1.56
'0:10.270',1.45
'0:10.273',1.35
'0:10.277',1.21
'0:10.281',1.18
'0:10.285',1.18
'0:10.289',1.09
'0:10.293',0.87
'0:10.297',0.68
'0:10.301',0.48
'0:10.305',0.52
'0:10.309',0.82
'0:10.313',1.09
'0:10.316',1.06
'0:10.320',1
'0:10.324',0.98
'0:10.328',1
'0:10.332',1
'0:10.336',1.06
'0:10.340',1.2
'0:10.344',1.27
'0:10.348',1.19
'0:10.352',1.24
'0:10.355',1.19
'0:10.359',1.09
'0:10.363',0.95
'0:10.367',0.79
'0:10.371',0.85
'0:10.375',1.17
'0:10.379',1.41
'0:10.383',1.86
'0:10.387',3.05
'0:10.391',5.22
'0:10.395',7.97
'0:10.398',10.38
'0:10.402',10.99
'0:10.406',8.12
'0:10.410',2.33
'0:10.414',-3.3
'0:10.418',-6.99
'0:10.422',-8.83
'0:10.426',-9.61
'0:10.430',-9.61
'0:10.434',-8.98
'0:10.438',-7.78
'0:10.441',-6.29
'0:10.445',-4.8
'0:10.449',-3.47
'0:10.453',-2.31
'0:10.457',-1.41
'0:10.461',-0.78
'0:10.465',-0.28
'0:10.469',0.11
'0:10.473',0.42
'0:10.477',0.69
'0:10.480',0.84
'0:10.484',0.97
'0:10.488',1
'0:10.492',0.98
'0:10.496',0.95
'0:10.500',1
'0:10.504',1.21
'0:10.508',1.42
'0:10.512',1.64
'0:10.516',1.89
'0:10.520',2.15
'0:10.523',2.46
'0:10.527',2.79
'0:10.531',3.08
'0:10.535',3.34
'0:10.539',3.46
'0:10.543',3.46
'0:10.547',3.44
'0:10.551',3.43
'0:10.555',3.31
'0:10.559',3.11
'0:10.563',2.92
'0:10.566',2.77
'0:10.570',2.45
'0:10.574',2.04
'0:10.578',1.65
'0:10.582',1.41
'0:10.586',1.32
'0:10.590',1.27
'0:10.594',1.25
'0:10.598',1.9
'0:10.602',2.75
'0:10.605',3.23
'0:10.609',3.43
'0:10.613',3.39
'0:10.617',3.29
'0:10.621',3.27
'0:10.625',3.02
'0:10.629',2.54
'0:10.633',1.98
'0:10.637',1.53
'0:10.641',1.21
'0:10.645',1.03
'0:10.648',0.85
'0:10.652',0.44
'0:10.656',-0.04
'0:10.660',-0.55
'0:10.664',-1.05
'0:10.668',-1.52
'0:10.672',-1.98
'0:10.676',-2.37
'0:10.680',-2.51
'0:10.684',-2.53
'0:10.688',-2.56
'0:10.691',-2.56
'0:10.695',-2.58
'0:10.699',-2.51
'0:10.703',-2.54
'0:10.707',-2.63
'0:10.711',-2.7
'0:10.715',-2.64
'0:10.719',-2.56
'0:10.723',-2.73
'0:10.727',-2.17
'0:10.730',-0.29
'0:10.734',2.21
'0:10.738',3.82
'0:10.742',2.8
'0:10.746',-1.35
'0:10.750',-6.6
'0:10.754',-10.86
'0:10.758',-13.01
'0:10.762',-13.4
'0:10.766',-13.11
'0:10.770',-12.36
'0:10.773',-11.25
'0:10.777',-9.46
'0:10.781',-7.47
'0:10.785',-5.66
'0:10.789',-3.86
'0:10.793',-1.84
'0:10.797',0.37
'0:10.801',2.18
'0:10.805',3.32
'0:10.809',3.99
'0:10.813',4.36
'0:10.816',4.61
'0:10.820',4.75
'0:10.824',4.77
'0:10.828',4.67
'0:10.832',4.58
'0:10.836',4.52
'0:10.840',4.41
'0:10.844',4.3
'0:10.848',4.14
'0:10.852',3.9
'0:10.855',3.59
'0:10.859',3.02
'0:10.863',2.58
'0:10.867',2.46
'0:10.871',2.64
'0:10.875',3.31
'0:10.879',3.97
'0:10.883',4.55
'0:10.887',4.9
'0:10.891',5.06
'0:10.895',5.1
'0:10.898',5.12
'0:10.902',5.45
'0:10.906',5.58
'0:10.910',5.4
'0:10.914',5.15
'0:10.918',5.19
'0:10.922',5.12
'0:10.926',4.97
'0:10.930',4.67
'0:10.934',4.37
'0:10.938',4.01
'0:10.941',3.57
'0:10.945',3.11
'0:10.949',2.67
'0:10.953',2.26
'0:10.957',1.97
'0:10.961',1.91
'0:10.965',1.64
'0:10.969',1.14
'0:10.973',0.64
'0:10.977',0.08
'0:10.980',-0.6
'0:10.984',-1.08
'0:10.988',-1.36
'0:10.992',-1.6
'0:10.996',-2.04
'0:11.000',-2.6
'0:11.004',-3.24
'0:11.008',-3.97
'0:11.012',-4.44
'0:11.016',-4.73
'0:11.020',-4.88
'0:11.023',-5
'0:11.027',-5.22
'0:11.031',-5.31
'0:11.035',-5.18
'0:11.039',-5.05
'0:11.043',-4.98
'0:11.047',-4.74
'0:11.051',-4.31
'0:11.055',-3.81
'0:11.059',-2.91
'0:11.063',-1.42
'0:11.066',1.04
'0:11.070',4.14
'0:11.074',6.73
'0:11.078',7.51
'0:11.082',4.99
'0:11.086',0.22
'0:11.090',-4.1
'0:11.094',-6.88
'0:11.098',-8.28
'0:11.102',-8.83
'0:11.105',-8.75
'0:11.109',-8.2
'0:11.113',-7.34
'0:11.117',-6.05
'0:11.121',-4.51
'0:11.125',-3.05
'0:11.129',-3.02
'0:11.133',-3.02
'0:11.137',-3.02
'0:11.141',-3.02
'0:11.145',1.02
'0:11.148',1.21
'0:11.152',1.22
'0:11.156',1.17
'0:11.160',1.15
'0:11.164',1.14
'0:11.168',1.25
'0:11.172',1.37
'0:11.176',1.35
'0:11.180',1.29
'0:11.184',1.29
'0:11.188',1.2
'0:11.191',1.18
'0:11.195',1.35
'0:11.199',1.46
'0:11.203',1.66
'0:11.207',1.93
'0:11.211',2.2
'0:11.215',2.35
'0:11.219',2.31
'0:11.223',2.14
'0:11.227',2.02
'0:11.230',2.07
'0:11.234',1.99
'0:11.238',1.64
'0:11.242',1.2
'0:11.246',0.87
'0:11.250',0.68
'0:11.254',0.6
'0:11.258',0.64
'0:11.262',0.66
'0:11.266',0.56
'0:11.270',0.54
'0:11.273',0.57
'0:11.277',0.57
'0:11.281',0.43
'0:11.285',0.24
'0:11.289',0.08
'0:11.293',0.14
'0:11.297',0.1
'0:11.301',-0.25
'0:11.305',-0.74
'0:11.309',-1.08
'0:11.313',-1.27
'0:11.316',-1.41
'0:11.320',-1.44
'0:11.324',-1.61
'0:11.328',-1.96
'0:11.332',-2.33
'0:11.336',-2.62
'0:11.340',-3.11
'0:11.344',-3.56
'0:11.348',-3.9
'0:11.352',-4.07
'0:11.355',-4.05
'0:11.359',-3.95
'0:11.363',-3.81
'0:11.367',-3.78
'0:11.371',-3.67
'0:11.375',-3.81
'0:11.379',-4.09
'0:11.383',-4.26
'0:11.387',-4.06
'0:11.391',-3.41
'0:11.395',-2.27
'0:11.398',-0.35
'0:11.402',2.57
'0:11.406',5.75
'0:11.410',8.24
'0:11.414',8.2
'0:11.418',4.25
'0:11.422',-1.53
'0:11.426',-6.28
'0:11.430',-9.3
'0:11.434',-10.89
'0:11.438',-11.53
'0:11.441',-11.6
'0:11.445',-10.89
'0:11.449',-9.64
'0:11.453',-7.96
'0:11.457',-6.16
'0:11.461',-4.42
'0:11.465',-2.99
'0:11.469',-1.92
'0:11.473',-1.22
'0:11.477',-0.56
'0:11.480',-0.08
'0:11.484',0.33
'0:11.488',0.63
'0:11.492',0.87
'0:11.496',1.15
'0:11.500',1.23
'0:11.504',1.27
'0:11.508',1.41
'0:11.512',1.71
'0:11.516',1.92
'0:11.520',2.15
'0:11.523',2.32
'0:11.527',2.34
'0:11.531',2.42
'0:11.535',2.62
'0:11.539',2.88
'0:11.543',3.19
'0:11.547',2.95
'0:11.551',2.82
'0:11.555',3.29
'0:11.559',3.42
'0:11.563',3.46
'0:11.566',3.56
'0:11.570',3.46
'0:11.574',3.09
'0:11.578',3.1
'0:11.582',3.29
'0:11.586',3.13
'0:11.590',3.03
'0:11.594',2.68
'0:11.598',2.56
'0:11.602',2.58
'0:11.605',2.49
'0:11.609',1.51
'0:11.613',0.17
'0:11.617',-0.52
'0:11.621',-1.04
'0:11.625',-1.59
'0:11.629',-1.75
'0:11.633',-1.9
'0:11.637',-1.87
'0:11.641',-1.71
'0:11.645',-1.84
'0:11.648',-1.95
'0:11.652',-1.99
'0:11.656',-1.95
'0:11.660',-1.98
'0:11.664',-2.06
'0:11.668',-2.15
'0:11.672',-2.47
'0:11.676',-2.7
'0:11.680',-3.2
'0:11.684',-3.69
'0:11.688',-3.7
'0:11.691',-3.77
'0:11.695',-3.8
'0:11.699',-3.58
'0:11.703',-3.46
'0:11.707',-3.5
'0:11.711',-3.31
'0:11.715',-3.39
'0:11.719',-3.52
'0:11.723',-3.22
'0:11.727',-2.8
'0:11.730',-1.79
'0:11.734',0.02
'0:11.738',2.53
'0:11.742',5.71
'0:11.746',8.92
'0:11.750',10.67
'0:11.754',8.84
'0:11.758',3.45
'0:11.762',-2.49
'0:11.766',-6.61
'0:11.770',-9.3
'0:11.773',-10.86
'0:11.777',-11.37
'0:11.781',-11.14
'0:11.785',-10.04
'0:11.789',-8.3
'0:11.793',-6.46
'0:11.797',-4.87
'0:11.801',-3.24
'0:11.805',-1.89
'0:11.809',-0.74
'0:11.813',0.11
'0:11.816',0.81
'0:11.820',1.48
'0:11.824',1.87
'0:11.828',2.18
'0:11.832',2.53
'0:11.836',2.84
'0:11.840',3.27
'0:11.844',3.5
'0:11.848',3.79
'0:11.852',4.05
'0:11.855',4.31
'0:11.859',4.36
'0:11.863',4.22
'0:11.867',4.23
'0:11.871',4.45
'0:11.875',4.61
'0:11.879',4.63
'0:11.883',4.76
'0:11.887',4.95
'0:11.891',5.11
'0:11.895',5.11
'0:11.898',4.97
'0:11.902',4.82
'0:11.906',4.53
'0:11.910',4.27
'0:11.914',3.88
'0:11.918',3.39
'0:11.922',2.91
'0:11.926',2.6
'0:11.930',2.51
'0:11.934',2.23
'0:11.938',2.04
'0:11.941',1.89
'0:11.945',1.71
'0:11.949',1.63
'0:11.953',1.64
'0:11.957',1.6
'0:11.961',1.39
'0:11.965',1.17
'0:11.969',1.07
'0:11.973',1.19
'0:11.977',1.07
'0:11.980',0.76
'0:11.984',0.48
'0:11.988',0.27
'0:11.992',0.2
'0:11.996',0.27
'0:12.000',0.19
'0:12.004',0.05
'0:12.008',-0.28
'0:12.012',-0.65
'0:12.016',-1.11
'0:12.020',-1.39
'0:12.023',-1.68
'0:12.027',-1.91
'0:12.031',-1.95
'0:12.035',-1.97
'0:12.039',-1.97
'0:12.043',-2.02
'0:12.047',-2.07
'0:12.051',-2.13
'0:12.055',-2.25
'0:12.059',-2.41
'0:12.063',-2.16
'0:12.066',-1.48
'0:12.070',-0.21
'0:12.074',1.83
'0:12.078',4.77
'0:12.082',8.12
'0:12.086',10.85
'0:12.090',11.6
'0:12.094',8.5
'0:12.098',2.39
'0:12.102',-3.15
'0:12.105',-6.91
'0:12.109',-9.11
'0:12.113',-10.32
'0:12.117',-10.74
'0:12.121',-10.34
'0:12.125',-9.18
'0:12.129',-7.54
'0:12.133',-5.96
'0:12.137',-4.59
'0:12.141',-3.39
'0:12.145',-2.28
'0:12.148',-1.3
'0:12.152',-0.37
'0:12.156',0.28
'0:12.160',0.53
'0:12.164',0.64
'0:12.168',0.8
'0:12.172',0.83
'0:12.176',0.9
'0:12.180',1.06
'0:12.184',1.27
'0:12.188',1.44
'0:12.191',1.43
'0:12.195',1.28
'0:12.199',1.24
'0:12.203',1.37
'0:12.207',1.63
'0:12.211',1.92
'0:12.215',2.14
'0:12.219',2.37
'0:12.223',2.53
'0:12.227',2.71
'0:12.230',2.84
'0:12.234',2.91
'0:12.238',3.05
'0:12.242',3.09
'0:12.246',3.16
'0:12.250',3.14
'0:12.254',2.94
'0:12.258',2.7
'0:12.262',2.53
'0:12.266',2.4
'0:12.270',2.33
'0:12.273',2.39
'0:12.277',2.24
'0:12.281',2.02
'0:12.285',1.93
'0:12.289',2.25
'0:12.293',2.19
'0:12.297',1.86
'0:12.301',1.55
'0:12.305',1.25
'0:12.309',1.19
'0:12.313',0.92
'0:12.316',0.7
'0:12.320',0.43
'0:12.324',0.11
'0:12.328',-0.02
'0:12.332',-0.07
'0:12.336',-0.2
'0:12.340',-0.45
'0:12.344',-0.79
'0:12.348',-1.2
'0:12.352',-1.68
'0:12.355',-2.03
'0:12.359',-2.12
'0:12.363',-2.09
'0:12.367',-2.04
'0:12.371',-1.87
'0:12.375',-1.54
'0:12.379',-1.23
'0:12.383',-1.34
'0:12.387',-1.61
'0:12.391',-1.73
'0:12.395',-1.98
'0:12.398',-2.14
'0:12.402',-1.91
'0:12.406',-1.41
'0:12.410',-0.21
'0:12.414',2.2
'0:12.418',5.36
'0:12.422',8.34
'0:12.426',9.62
'0:12.430',7.11
'0:12.434',1.35
'0:12.438',-4.49
'0:12.441',-8.38
'0:12.445',-10.46
'0:12.449',-11.46
'0:12.453',-11.5
'0:12.457',-10.7
'0:12.461',-9.27
'0:12.465',-7.54
'0:12.469',-5.89
'0:12.473',-4.46
'0:12.477',-3.23
'0:12.480',-2.35
'0:12.484',-1.8
'0:12.488',-1.37
'0:12.492',-0.93
'0:12.496',-0.52
'0:12.500',-0.21
'0:12.504',-0.04
'0:12.508',0.14
'0:12.512',0.41
'0:12.516',0.66
'0:12.520',0.81
'0:12.523',1.11
'0:12.527',1.29
'0:12.531',1.47
'0:12.535',1.72
'0:12.539',2.11
'0:12.543',2.66
'0:12.547',3.26
'0:12.551',3.76
'0:12.555',4.38
'0:12.559',5.08
'0:12.563',5.67
'0:12.566',6
'0:12.570',6.09
'0:12.574',6.07
'0:12.578',6.12
'0:12.582',5.99
'0:12.586',5.78
'0:12.590',5.53
'0:12.594',5.26
'0:12.598',4.98
'0:12.602',4.66
'0:12.605',4.28
'0:12.609',3.99
'0:12.613',3.8
'0:12.617',3.53
'0:12.621',3.17
'0:12.625',2.86
'0:12.629',2.66
'0:12.633',2.39
'0:12.637',2.17
'0:12.641',1.97
'0:12.645',1.87
'0:12.648',1.68
'0:12.652',1.38
'0:12.656',0.9
'0:12.660',0.36
'0:12.664',-0.06
'0:12.668',-0.36
'0:12.672',-0.57
'0:12.676',-0.89
'0:12.680',-1.3
'0:12.684',-1.76
'0:12.688',-2.18
'0:12.691',-2.51
'0:12.695',-2.83
'0:12.699',-3.02
'0:12.703',-3.17
'0:12.707',-3.19
'0:12.711',-3.24
'0:12.715',-3.2
'0:12.719',-3.09
'0:12.723',-3.11
'0:12.727',-3.29
'0:12.730',-3.45
'0:12.734',-3.47
'0:12.738',-3.33
'0:12.742',-2.86
'0:12.746',-1.7
'0:12.750',0.51
'0:12.754',3.56
'0:12.758',6.36
'0:12.762',7.64
'0:12.766',5.69
'0:12.770',0.44
'0:12.773',-5.15
'0:12.777',-9.08
'0:12.781',-11.09
'0:12.785',-11.85
'0:12.789',-11.82
'0:12.793',-11.1
'0:12.797',-9.79
'0:12.801',-8.08
'0:12.805',-6.33
'0:12.809',-4.7
'0:12.813',-3.22
'0:12.816',-2.05
'0:12.820',-1.14
'0:12.824',-0.42
'0:12.828',0.11
'0:12.832',0.47
'0:12.836',0.74
'0:12.840',0.9
'0:12.844',1.01
'0:12.848',1.06
'0:12.852',1.18
'0:12.855',1.29
'0:12.859',1.41
'0:12.863',1.54
'0:12.867',1.72
'0:12.871',1.84
'0:12.875',1.94
'0:12.879',2.06
'0:12.883',2.2
'0:12.887',2.39
'0:12.891',2.59
'0:12.895',2.78
'0:12.898',3.01
'0:12.902',3.13
'0:12.906',3.12
'0:12.910',3.1
'0:12.914',3.05
'0:12.918',3.02
'0:12.922',2.94
'0:12.926',2.8
'0:12.930',2.53
'0:12.934',2.26
'0:12.938',2.09
'0:12.941',1.93
'0:12.945',1.79
'0:12.949',1.76
'0:12.953',1.73
'0:12.957',1.67
'0:12.961',1.52
'0:12.965',1.43
'0:12.969',1.37
'0:12.973',1.27
'0:12.977',1.17
'0:12.980',1.26
'0:12.984',1.24
'0:12.988',0.99
'0:12.992',0.69
'0:12.996',0.39
'0:13.000',0.12
'0:13.004',0.01
'0:13.008',0
'0:13.012',0.13
'0:13.016',-0.14
'0:13.020',-0.74
'0:13.023',-1.14
'0:13.027',-1.58
'0:13.031',-2.09
'0:13.035',-2.58
'0:13.039',-2.74
'0:13.043',-2.94
'0:13.047',-3.26
'0:13.051',-3.38
'0:13.055',-3.51
'0:13.059',-3.58
'0:13.063',-3.5
'0:13.066',-3.31
'0:13.070',-3.1
'0:13.074',-2.87
'0:13.078',-2.34
'0:13.082',-0.5
'0:13.086',2.44
'0:13.090',6.02
'0:13.094',9.14
'0:13.098',10.6
'0:13.102',9.14
'0:13.105',4.59
'0:13.109',-0.85
'0:13.113',-4.82
'0:13.117',-6.75
'0:13.121',-7.28
'0:13.125',-7.2
'0:13.129',-6.67
'0:13.133',-5.71
'0:13.137',-4.32
'0:13.141',-2.8
'0:13.145',-1.33
'0:13.148',0.05
'0:13.152',1.18
'0:13.156',1.94
'0:13.160',2.43
'0:13.164',2.78
'0:13.168',3.01
'0:13.172',3.22
'0:13.176',3.44
'0:13.180',3.6
'0:13.184',3.7
'0:13.188',3.62
'0:13.191',3.4
'0:13.195',3.23
'0:13.199',3.07
'0:13.203',2.87
'0:13.207',2.72
'0:13.211',2.63
'0:13.215',2.51
'0:13.219',2.44
'0:13.223',2.37
'0:13.227',2.31
'0:13.230',2.36
'0:13.234',2.31
'0:13.238',2.29
'0:13.242',2.4
'0:13.246',2.49
'0:13.250',2.66
'0:13.254',3.09
'0:13.258',3.81
'0:13.262',4.71
'0:13.266',5.31
'0:13.270',5.4
'0:13.273',5.49
'0:13.277',5.89
'0:13.281',6.27
'0:13.285',6.36
'0:13.289',6.3
'0:13.293',6.09
'0:13.297',5.96
'0:13.301',5.96
'0:13.305',5.76
'0:13.309',5.46
'0:13.313',5.28
'0:13.316',4.91
'0:13.320',4.35
'0:13.324',3.57
'0:13.328',2.81
'0:13.332',2.22
'0:13.336',1.76
'0:13.340',1.22
'0:13.344',0.79
'0:13.348',0.4
'0:13.352',-0.09
'0:13.355',-0.73
'0:13.359',-1.44
'0:13.363',-2.1
'0:13.367',-2.75
'0:13.371',-3.25
'0:13.375',-3.63
'0:13.379',-3.89
'0:13.383',-4.11
'0:13.387',-4.34
'0:13.391',-4.51
'0:13.395',-4.65
'0:13.398',-4.8
'0:13.402',-5.02
'0:13.406',-5.22
'0:13.410',-5.31
'0:13.414',-5.19
'0:13.418',-4.73
'0:13.422',-3.7
'0:13.426',-1.69
'0:13.430',1.08
'0:13.434',3.57
'0:13.438',4.42
'0:13.441',2.01
'0:13.445',-2.95
'0:13.449',-7.6
'0:13.453',-10.8
'0:13.457',-12.37
'0:13.461',-12.95
'0:13.465',-12.96
'0:13.469',-12.35
'0:13.473',-11.2
'0:13.477',-9.63
'0:13.480',-7.8
'0:13.484',-6.14
'0:13.488',-4.81
'0:13.492',-3.62
'0:13.496',-2.67
'0:13.500',-1.97
'0:13.504',-1.5
'0:13.508',-1.14
'0:13.512',-0.89
'0:13.516',-0.74
'0:13.520',-0.7
'0:13.523',-0.59
'0:13.527',-0.56
'0:13.531',-0.54
'0:13.535',-0.42
'0:13.539',-0.35
'0:13.543',-0.21
'0:13.547',-0.15
'0:13.551',-0.01
'0:13.555',0.33
'0:13.559',0.54
'0:13.563',0.65
'0:13.566',0.76
'0:13.570',1.04
'0:13.574',1.32
'0:13.578',1.28
'0:13.582',1.17
'0:13.586',1.25
'0:13.590',1.29
'0:13.594',1.27
'0:13.598',1.21
'0:13.602',0.95
'0:13.605',0.81
'0:13.609',0.75
'0:13.613',0.61
'0:13.617',0.58
'0:13.621',0.61
'0:13.625',0.55
'0:13.629',0.42
'0:13.633',0.41
'0:13.637',0.45
'0:13.641',0.49
'0:13.645',0.46
'0:13.648',0.36
'0:13.652',0.08
'0:13.656',-0.06
'0:13.660',-0.13
'0:13.664',-0.37
'0:13.668',-0.7
'0:13.672',-1.03
'0:13.676',-1.22
'0:13.680',-1.29
'0:13.684',-1.26
'0:13.688',-1.29
'0:13.691',-1.44
'0:13.695',-1.82
'0:13.699',-2.23
'0:13.703',-2.54
'0:13.707',-2.83
'0:13.711',-2.92
'0:13.715',-3.01
'0:13.719',-3.02
'0:13.723',-3.15
'0:13.727',-3.27
'0:13.730',-3.44
'0:13.734',-3.58
'0:13.738',-3.71
'0:13.742',-3.89
'0:13.746',-4.07
'0:13.750',-3.81
'0:13.754',-3.35
'0:13.758',-2.34
'0:13.762',-0.59
'0:13.766',1.95
'0:13.770',5.25
'0:13.773',8.02
'0:13.777',9.1
'0:13.781',6.68
'0:13.785',0.94
'0:13.789',-5.48
'0:13.793',-9.93
'0:13.797',-12.18
'0:13.801',-13.43
'0:13.805',-14.06
'0:13.809',-13.71
'0:13.813',-12.78
'0:13.816',-11.41
'0:13.820',-9.61
'0:13.824',-7.46
'0:13.828',-5.37
'0:13.832',-3.92
'0:13.836',-2.76
'0:13.840',-2.05
'0:13.844',-1.54
'0:13.848',-1.15
'0:13.852',-0.79
'0:13.855',-0.41
'0:13.859',0.49
'0:13.863',0.84
'0:13.867',0.77
'0:13.871',0.72
'0:13.875',0.56
'0:13.879',0.68
'0:13.883',0.58
'0:13.887',0.92
'0:13.891',1.16
'0:13.895',1.02
'0:13.898',1.49
'0:13.902',2.13
'0:13.906',2.14
'0:13.910',2.02
'0:13.914',1.9
'0:13.918',1.98
'0:13.922',2.11
'0:13.926',2.6
'0:13.930',3.2
'0:13.934',3.03
'0:13.938',2.59
'0:13.941',1.97
'0:13.945',2.24
'0:13.949',2.66
'0:13.953',2.15
'0:13.957',1.77
'0:13.961',1.63
'0:13.965',1.74
'0:13.969',1.85
'0:13.973',1.78
'0:13.977',1.96
'0:13.980',2.47
'0:13.984',2.82
'0:13.988',2.78
'0:13.992',2.64
'0:13.996',2.67
'0:14.000',2.79
'0:14.004',2.86
'0:14.008',3.08
'0:14.012',3.3
'0:14.016',3.23
'0:14.020',3.17
'0:14.023',3.13
'0:14.027',2.99
'0:14.031',2.87
'0:14.035',2.58
'0:14.039',2.25
'0:14.043',1.91
'0:14.047',1.71
'0:14.051',1.57
'0:14.055',1.47
'0:14.059',1.41
'0:14.063',1.31
'0:14.066',1.19
'0:14.070',1.08
'0:14.074',0.94
'0:14.078',0.71
'0:14.082',0.4
'0:14.086',0.15
'0:14.090',0.32
'0:14.094',0.84
'0:14.098',2.04
'0:14.102',4.06
'0:14.105',6.84
'0:14.109',9.74
'0:14.113',11.86
'0:14.117',11.58
'0:14.121',7.54
'0:14.125',1.48
'0:14.129',-3.61
'0:14.133',-7
'0:14.137',-8.87
'0:14.141',-9.75
'0:14.145',-9.77
'0:14.148',-9.11
'0:14.152',-7.9
'0:14.156',-6.35
'0:14.160',-4.68
'0:14.164',-3.13
'0:14.168',-1.85
'0:14.172',-0.85
'0:14.176',-0.08
'0:14.180',0.5
'0:14.184',0.87
'0:14.188',1.26
'0:14.191',1.54
'0:14.195',1.77
'0:14.199',1.96
'0:14.203',2.18
'0:14.207',2.4
'0:14.211',2.53
'0:14.215',2.65
'0:14.219',2.72
'0:14.223',2.82
'0:14.227',2.88
'0:14.230',2.95
'0:14.234',3.15
'0:14.238',3.42
'0:14.242',3.64
'0:14.246',3.79
'0:14.250',3.91
'0:14.254',4.04
'0:14.258',4.17
'0:14.262',4.26
'0:14.266',4.26
'0:14.270',4.17
'0:14.273',4.01
'0:14.277',3.89
'0:14.281',3.7
'0:14.285',3.45
'0:14.289',3.25
'0:14.293',3.06
'0:14.297',2.89
'0:14.301',2.79
'0:14.305',2.7
'0:14.309',2.6
'0:14.313',2.47
'0:14.316',2.32
'0:14.320',2.22
'0:14.324',2.09
'0:14.328',1.92
'0:14.332',1.79
'0:14.336',1.65
'0:14.340',1.45
'0:14.344',1.31
'0:14.348',1.14
'0:14.352',0.89
'0:14.355',0.66
'0:14.359',0.56
'0:14.363',0.4
'0:14.367',-0.02
'0:14.371',-0.48
'0:14.375',-0.8
'0:14.379',-1.19
'0:14.383',-1.53
'0:14.387',-1.79
'0:14.391',-1.98
'0:14.395',-2.05
'0:14.398',-2.06
'0:14.402',-2.07
'0:14.406',-2.02
'0:14.410',-1.99
'0:14.414',-1.96
'0:14.418',-2.28
'0:14.422',-2.51
'0:14.426',-2.34
'0:14.430',-1.68
'0:14.434',-0.33
'0:14.438',1.7
'0:14.441',4.7
'0:14.445',7.86
'0:14.449',10.09
'0:14.453',9.5
'0:14.457',5.28
'0:14.461',-0.85
'0:14.465',-5.77
'0:14.469',-8.53
'0:14.473',-9.64
'0:14.477',-9.85
'0:14.480',-9.38
'0:14.484',-8.42
'0:14.488',-6.95
'0:14.492',-5.02
'0:14.496',-3.32
'0:14.500',-2.12
'0:14.504',-1.17
'0:14.508',-0.48
'0:14.512',0.06
'0:14.516',0.63
'0:14.520',1.05
'0:14.523',1.14
'0:14.527',1.11
'0:14.531',0.8
'0:14.535',0.62
'0:14.539',0.52
'0:14.543',0.59
'0:14.547',0.72
'0:14.551',1.02
'0:14.555',1.41
'0:14.559',2.01
'0:14.563',2.5
'0:14.566',2.7
'0:14.570',3.21
'0:14.574',3.45
'0:14.578',4.08
'0:14.582',5.43
'0:14.586',6.46
'0:14.590',7.19
'0:14.594',7.54
'0:14.598',7.51
'0:14.602',7.56
'0:14.605',7.68
'0:14.609',7.52
'0:14.613',7.13
'0:14.617',6.83
'0:14.621',6.33
'0:14.625',5.65
'0:14.629',5.11
'0:14.633',4.63
'0:14.637',4.31
'0:14.641',4.01
'0:14.645',3.66
'0:14.648',3.29
'0:14.652',3.67
'0:14.656',3.66
'0:14.660',3.07
'0:14.664',2.47
'0:14.668',2.1
'0:14.672',1.76
'0:14.676',1.31
'0:14.680',0.73
'0:14.684',0.3
'0:14.688',0.04
'0:14.691',-0.25
'0:14.695',-0.52
'0:14.699',-0.85
'0:14.703',-1.31
'0:14.707',-1.64
'0:14.711',-1.95
'0:14.715',-2.29
'0:14.719',-2.65
'0:14.723',-2.97
'0:14.727',-3.09
'0:14.730',-3.03
'0:14.734',-2.89
'0:14.738',-2.74
'0:14.742',-2.57
'0:14.746',-2.39
'0:14.750',-2.4
'0:14.754',-2.4
'0:14.758',-2.34
'0:14.762',-2.22
'0:14.766',-2.02
'0:14.770',-1.26
'0:14.773',0.11
'0:14.777',2.52
'0:14.781',5.54
'0:14.785',7.63
'0:14.789',7.37
'0:14.793',3.78
'0:14.797',-1.84
'0:14.801',-6.57
'0:14.805',-9.28
'0:14.809',-10.28
'0:14.813',-10.57
'0:14.816',-10.35
'0:14.820',-9.71
'0:14.824',-8.34
'0:14.828',-6.48
'0:14.832',-4.69
'0:14.836',-3.17
'0:14.840',-1.89
'0:14.844',-0.93
'0:14.848',-0.3
'0:14.852',0.05
'0:14.855',0.16
'0:14.859',0.17
'0:14.863',0.15
'0:14.867',0.17
'0:14.871',0.23
'0:14.875',0.31
'0:14.879',0.43
'0:14.883',0.53
'0:14.887',0.51
'0:14.891',0.61
'0:14.895',0.66
'0:14.898',0.75
'0:14.902',0.9
'0:14.906',1.03
'0:14.910',1.23
'0:14.914',1.38
'0:14.918',1.45
'0:14.922',1.57
'0:14.926',1.7
'0:14.930',1.82
'0:14.934',1.92
'0:14.938',1.88
'0:14.941',1.85
'0:14.945',1.81
'0:14.949',1.69
'0:14.953',1.56
'0:14.957',1.34
'0:14.961',1.11
'0:14.965',0.92
'0:14.969',0.7
'0:14.973',0.5
'0:14.977',0.48
'0:14.980',0.44
'0:14.984',0.25
'0:14.988',-0.01
'0:14.992',-0.09
'0:14.996',-0.17
'0:15.000',-0.25
'0:15.004',-0.44
'0:15.008',-0.71
'0:15.012',-0.95
'0:15.016',-1.27
'0:15.020',-1.61
'0:15.023',-1.94
'0:15.027',-2.25
'0:15.031',-2.38
'0:15.035',-2.44
'0:15.039',-2.46
'0:15.043',-2.63
'0:15.047',-3.09
'0:15.051',-3.57
'0:15.055',-3.93
'0:15.059',-4.2
'0:15.063',-4.36
'0:15.066',-4.33
'0:15.070',-4.31
'0:15.074',-4.31
'0:15.078',-4.25
'0:15.082',-4.19
'0:15.086',-4.12
'0:15.090',-4.09
'0:15.094',-4.16
'0:15.098',-4.15
'0:15.102',-3.91
'0:15.105',-3.48
'0:15.109',-2.5
'0:15.113',-0.72
'0:15.117',1.94
'0:15.121',4.91
'0:15.125',6.81
'0:15.129',5.93
'0:15.133',1.62
'0:15.137',-3.85
'0:15.141',-8.09
'0:15.145',-10.53
'0:15.148',-11.49
'0:15.152',-12.33
'0:15.156',-13.05
'0:15.160',-12.95
'0:15.164',-11.93
'0:15.168',-10.3
'0:15.172',-8.5
'0:15.176',-6.62
'0:15.180',-5.01
'0:15.184',-3.82
'0:15.188',-2.9
'0:15.191',-2.12
'0:15.195',-1.46
'0:15.199',-0.89
'0:15.203',-0.49
'0:15.207',-0.25
'0:15.211',0.01
'0:15.215',0.26
'0:15.219',0.35
'0:15.223',0.41
'0:15.227',0.55
'0:15.230',0.77
'0:15.234',1.01
'0:15.238',1.23
'0:15.242',1.43
'0:15.246',1.64
'0:15.250',1.82
'0:15.254',1.99
'0:15.258',2.14
'0:15.262',2.27
'0:15.266',2.27
'0:15.270',2.29
'0:15.273',2.29
'0:15.277',2.16
'0:15.281',1.94
'0:15.285',1.8
'0:15.289',1.76
'0:15.293',1.54
'0:15.297',1.33
'0:15.301',1.5
'0:15.305',2.44
'0:15.309',3.45
'0:15.313',4.22
'0:15.316',4.55
'0:15.320',4.6
'0:15.324',4.3
'0:15.328',4.3
'0:15.332',4.51
'0:15.336',4.06
'0:15.340',3.58
'0:15.344',3.36
'0:15.348',3.32
'0:15.352',3.16
'0:15.355',2.65
'0:15.359',2.11
'0:15.363',1.88
'0:15.367',2.13
'0:15.371',2.11
'0:15.375',1.75
'0:15.379',1.3
'0:15.383',0.8
'0:15.387',0.13
'0:15.391',-0.48
'0:15.395',-0.81
'0:15.398',-0.95
'0:15.402',-1.08
'0:15.406',-1.22
'0:15.410',-1.11
'0:15.414',-0.97
'0:15.418',-0.92
'0:15.422',-0.98
'0:15.426',-1.14
'0:15.430',-1.33
'0:15.434',-1.57
'0:15.438',-1.72
'0:15.441',-1.63
'0:15.445',-1.08
'0:15.449',0.21
'0:15.453',2.53
'0:15.457',5.65
'0:15.461',8.51
'0:15.465',10.4
'0:15.469',9.37
'0:15.473',4.75
'0:15.477',-0.68
'0:15.480',-4.73
'0:15.484',-7
'0:15.488',-7.95
'0:15.492',-8.31
'0:15.496',-8.07
'0:15.500',-7.32
'0:15.504',-6.02
'0:15.508',-4.25
'0:15.512',-2.56
'0:15.516',-1.12
'0:15.520',0.08
'0:15.523',1.1
'0:15.527',1.79
'0:15.531',2.29
'0:15.535',2.46
'0:15.539',2.31
'0:15.543',2.06
'0:15.547',2.02
'0:15.551',2
'0:15.555',1.93
'0:15.559',2.04
'0:15.563',2.17
'0:15.566',1.7
'0:15.570',0.86
'0:15.574',0.05
'0:15.578',-0.46
'0:15.582',-0.52
'0:15.586',-0.26
'0:15.590',-0.01
'0:15.594',0.15
'0:15.598',0.23
'0:15.602',0.44
'0:15.605',0.4
'0:15.609',0.49
'0:15.613',0.65
'0:15.617',0.73
'0:15.621',0.76
'0:15.625',1.06
'0:15.629',1.06
'0:15.633',0.78
'0:15.637',0.44
'0:15.641',0.37
'0:15.645',0.45
'0:15.648',0.52
'0:15.652',0.57
'0:15.656',0.59
'0:15.660',0.4
'0:15.664',0.39
'0:15.668',0.39
'0:15.672',0.3
'0:15.676',0.32
'0:15.680',0.39
'0:15.684',0.41
'0:15.688',0.42
'0:15.691',0.15
'0:15.695',-0.18
'0:15.699',-0.3
'0:15.703',-0.43
'0:15.707',-0.62
'0:15.711',-0.81
'0:15.715',-0.94
'0:15.719',-1.07
'0:15.723',-1.32
'0:15.727',-1.78
'0:15.730',-2.19
'0:15.734',-2.55
'0:15.738',-2.95
'0:15.742',-3.21
'0:15.746',-3.17
'0:15.750',-3.07
'0:15.754',-3.07
'0:15.758',-2.96
'0:15.762',-2.86
'0:15.766',-2.67
'0:15.770',-2.72
'0:15.773',-2.81
'0:15.777',-2.47
'0:15.781',-1.61
'0:15.785',-0.08
'0:15.789',2.17
'0:15.793',5.32
'0:15.797',8.58
'0:15.801',11.2
'0:15.805',11.66
'0:15.809',8.05
'0:15.813',1.69
'0:15.816',-3.97
'0:15.820',-7.64
'0:15.824',-9.69
'0:15.828',-10.69
'0:15.832',-10.78
'0:15.836',-10.34
'0:15.840',-9.36
'0:15.844',-7.79
'0:15.848',-5.98
'0:15.852',-4.35
'0:15.855',-2.88
'0:15.859',-1.69
'0:15.863',-0.76
'0:15.867',-0.18
'0:15.871',0.2
'0:15.875',0.48
'0:15.879',0.72
'0:15.883',0.89
'0:15.887',1.16
'0:15.891',1.24
'0:15.895',1.43
'0:15.898',1.56
'0:15.902',1.65
'0:15.906',1.71
'0:15.910',1.66
'0:15.914',1.78
'0:15.918',1.94
'0:15.922',2.22
'0:15.926',2.54
'0:15.930',2.67
'0:15.934',2.76
'0:15.938',2.96
'0:15.941',3.16
'0:15.945',3.35
'0:15.949',3.24
'0:15.953',2.94
'0:15.957',2.96
'0:15.961',2.9
'0:15.965',2.8
'0:15.969',2.75
'0:15.973',2.67
'0:15.977',2.57
'0:15.980',2.36
'0:15.984',2.02
'0:15.988',1.86
'0:15.992',1.77
'0:15.996',1.67
'0:16.000',1.52
'0:16.004',1.37
'0:16.008',1.25
'0:16.012',1.15
'0:16.016',1.1
'0:16.020',0.98
'0:16.023',0.95
'0:16.027',1.41
'0:16.031',1.93
'0:16.035',2.32
'0:16.039',2.73
'0:16.043',3.1
'0:16.047',3.16
'0:16.051',2.69
'0:16.055',2.52
'0:16.059',2.22
'0:16.063',1.89
'0:16.066',1.49
'0:16.070',0.85
'0:16.074',0.27
'0:16.078',0.03
'0:16.082',-0.04
'0:16.086',-0.18
'0:16.090',-0.38
'0:16.094',-0.54
'0:16.098',-0.61
'0:16.102',-0.65
'0:16.105',-0.73
'0:16.109',-0.86
'0:16.113',-0.81
'0:16.117',-0.53
'0:16.121',0.01
'0:16.125',1.11
'0:16.129',3.13
'0:16.133',6
'0:16.137',8.94
'0:16.141',11.03
'0:16.145',10.01
'0:16.148',4.95
'0:16.152',-1.47
'0:16.156',-6.2
'0:16.160',-8.97
'0:16.164',-10.44
'0:16.168',-11.07
'0:16.172',-10.83
'0:16.176',-9.77
'0:16.180',-8.11
'0:16.184',-6.28
'0:16.188',-4.61
'0:16.191',-3.08
'0:16.195',-1.79
'0:16.199',-0.89
'0:16.203',-0.23
'0:16.207',0.4
'0:16.211',0.88
'0:16.215',1.05
'0:16.219',1.11
'0:16.223',1.37
'0:16.227',1.73
'0:16.230',2.15
'0:16.234',2.4
'0:16.238',2.46
'0:16.242',2.48
'0:16.246',2.48
'0:16.250',2.67
'0:16.254',2.8
'0:16.258',2.52
'0:16.262',1.64
'0:16.266',0.91
'0:16.270',0.6
'0:16.273',0.52
'0:16.277',0.45
'0:16.281',0.42
'0:16.285',0.58
'0:16.289',0.79
'0:16.293',0.87
'0:16.297',0.85
'0:16.301',0.72
'0:16.305',0.56
'0:16.309',0.38
'0:16.313',0.16
'0:16.316',-0.01
'0:16.320',-0.19
'0:16.324',-0.29
'0:16.328',-0.34
'0:16.332',-0.46
'0:16.336',-0.58
'0:16.340',-0.66
'0:16.344',-0.7
'0:16.348',-0.7
'0:16.352',-0.71
'0:16.355',-0.73
'0:16.359',-0.75
'0:16.363',-0.91
'0:16.367',-1.16
'0:16.371',-1.41
'0:16.375',-1.55
'0:16.379',-1.67
'0:16.383',-1.68
'0:16.387',-1.63
'0:16.391',-1.74
'0:16.395',-2.03
'0:16.398',-2.48
'0:16.402',-2.85
'0:16.406',-3.2
'0:16.410',-3.46
'0:16.414',-3.62
'0:16.418',-3.63
'0:16.422',-3.56
'0:16.426',-3.51
'0:16.430',-3.43
'0:16.434',-3.34
'0:16.438',-3.38
'0:16.441',-3.52
'0:16.445',-3.77
'0:16.449',-3.88
'0:16.453',-3.75
'0:16.457',-3.23
'0:16.461',-2.07
'0:16.465',0.07
'0:16.469',3.09
'0:16.473',6.04
'0:16.477',7.56
'0:16.480',5.85
'0:16.484',0.67
'0:16.488',-5.24
'0:16.492',-9.28
'0:16.496',-11.24
'0:16.500',-11.95
'0:16.504',-11.88
'0:16.508',-11.18
'0:16.512',-9.86
'0:16.516',-8.13
'0:16.520',-6.28
'0:16.523',-4.58
'0:16.527',-3.09
'0:16.531',-1.95
'0:16.535',-1.09
'0:16.539',-0.34
'0:16.543',0.22
'0:16.547',0.69
'0:16.551',1.06
'0:16.555',1.29
'0:16.559',1.53
'0:16.563',1.75
'0:16.566',1.97
'0:16.570',2.07
'0:16.574',2.16
'0:16.578',2.21
'0:16.582',2.26
'0:16.586',2.33
'0:16.590',2.47
'0:16.594',2.62
'0:16.598',2.85
'0:16.602',3.01
'0:16.605',3.14
'0:16.609',3.21
'0:16.613',3.29
'0:16.617',3.37
'0:16.621',3.4
'0:16.625',3.29
'0:16.629',3.23
'0:16.633',3.18
'0:16.637',3.47
'0:16.641',3.75
'0:16.645',3.69
'0:16.648',3.46
'0:16.652',3.05
'0:16.656',2.73
'0:16.660',2.63
'0:16.664',2.55
'0:16.668',2.51
'0:16.672',2.42
'0:16.676',2.31
'0:16.680',2.91
'0:16.684',3.93
'0:16.688',4.68
'0:16.691',5.17
'0:16.695',5.43
'0:16.699',5.21
'0:16.703',4.74
'0:16.707',4.14
'0:16.711',3.44
'0:16.715',2.87
'0:16.719',2.47
'0:16.723',2.21
'0:16.727',1.61
'0:16.730',1.02
'0:16.734',0.44
'0:16.738',-0.21
'0:16.742',-0.73
'0:16.746',-1.11
'0:16.750',-1.28
'0:16.754',-1.31
'0:16.758',-1.13
'0:16.762',-0.98
'0:16.766',-0.8
'0:16.770',-0.78
'0:16.773',-0.86
'0:16.777',-1.22
'0:16.781',-1.36
'0:16.785',-1.35
'0:16.789',-1.2
'0:16.793',-0.95
'0:16.797',-0.22
'0:16.801',1.3
'0:16.805',3.89
'0:16.809',6.69
'0:16.813',8.32
'0:16.816',7.21
'0:16.820',2.94
'0:16.824',-2.78
'0:16.828',-7.34
'0:16.832',-9.55
'0:16.836',-10.28
'0:16.840',-10.62
'0:16.844',-10.18
'0:16.848',-9.22
'0:16.852',-7.6
'0:16.855',-5.85
'0:16.859',-4.14
'0:16.863',-2.6
'0:16.867',-1.25
'0:16.871',-0.23
'0:16.875',0.49
'0:16.879',1.07
'0:16.883',1.73
'0:16.887',2.38
'0:16.891',2.96
'0:16.895',3.28
'0:16.898',3.36
'0:16.902',3.39
'0:16.906',3.43
'0:16.910',3.38
'0:16.914',3.48
'0:16.918',3.7
'0:16.922',3.89
'0:16.926',4.03
'0:16.930',4.32
'0:16.934',4.46
'0:16.938',4.39
'0:16.941',4.41
'0:16.945',4.57
'0:16.949',4.79
'0:16.953',5.06
'0:16.957',5.1
'0:16.961',5.07
'0:16.965',5.03
'0:16.969',5.02
'0:16.973',4.97
'0:16.977',4.78
'0:16.980',4.57
'0:16.984',4.23
'0:16.988',3.86
'0:16.992',3.54
'0:16.996',3.35
'0:17.000',3.2
'0:17.004',3.08
'0:17.008',2.94
'0:17.012',2.64
'0:17.016',2.3
'0:17.020',2
'0:17.023',1.63
'0:17.027',1.23
'0:17.031',0.92
'0:17.035',0.65
'0:17.039',0.3
'0:17.043',-0.19
'0:17.047',-0.66
'0:17.051',-0.99
'0:17.055',-1.32
'0:17.059',-1.6
'0:17.063',-1.84
'0:17.066',-2.11
'0:17.070',-2.56
'0:17.074',-3.09
'0:17.078',-3.63
'0:17.082',-4.15
'0:17.086',-4.57
'0:17.090',-4.75
'0:17.094',-4.72
'0:17.098',-4.61
'0:17.102',-4.55
'0:17.105',-4.44
'0:17.109',-4.39
'0:17.113',-4.34
'0:17.117',-4.31
'0:17.121',-4.34
'0:17.125',-4.22
'0:17.129',-3.98
'0:17.133',-3.55
'0:17.137',-2.59
'0:17.141',-0.85
'0:17.145',1.85
'0:17.148',4.67
'0:17.152',6.44
'0:17.156',5.24
'0:17.160',0.56
'0:17.164',-4.67
'0:17.168',-8.41
'0:17.172',-10.65
'0:17.176',-11.64
'0:17.180',-11.96
'0:17.184',-11.66
'0:17.188',-10.73
'0:17.191',-9.26
'0:17.195',-7.49
'0:17.199',-5.79
'0:17.203',-4.18
'0:17.207',-2.8
'0:17.211',-1.73
'0:17.215',-0.91
'0:17.219',-0.35
'0:17.223',0.19
'0:17.227',0.64
'0:17.230',0.88
'0:17.234',0.85
'0:17.238',0.8
'0:17.242',0.73
'0:17.246',0.82
'0:17.250',0.96
'0:17.254',1.02
'0:17.258',1.09
'0:17.262',1.39
'0:17.266',1.72
'0:17.270',1.94
'0:17.273',2.18
'0:17.277',2.38
'0:17.281',2.61
'0:17.285',2.82
'0:17.289',2.92
'0:17.293',2.95
'0:17.297',2.99
'0:17.301',3.07
'0:17.305',3.19
'0:17.309',3.16
'0:17.313',3.07
'0:17.316',2.93
'0:17.320',2.74
'0:17.324',2.64
'0:17.328',2.47
'0:17.332',2.3
'0:17.336',2.16
'0:17.340',2.01
'0:17.344',1.97
'0:17.348',2.02
'0:17.352',1.94
'0:17.355',1.81
'0:17.359',1.82
'0:17.363',1.76
'0:17.367',1.61
'0:17.371',1.56
'0:17.375',1.42
'0:17.379',1.16
'0:17.383',0.81
'0:17.387',0.59
'0:17.391',0.4
'0:17.395',0.11
'0:17.398',-0.13
'0:17.402',-0.33
'0:17.406',-0.56
'0:17.410',-0.83
'0:17.414',-1.13
'0:17.418',-1.68
'0:17.422',-2.03
'0:17.426',-2.21
'0:17.430',-2.26
'0:17.434',-2.45
'0:17.438',-2.55
'0:17.441',-2.56
'0:17.445',-2.53
'0:17.449',-2.48
'0:17.453',-2.66
'0:17.457',-2.96
'0:17.461',-3.05
'0:17.465',-2.9
'0:17.469',-2.57
'0:17.473',-1.99
'0:17.477',-0.38
'0:17.480',2.27
'0:17.484',5.33
'0:17.488',8.28
'0:17.492',10.33
'0:17.496',9.18
'0:17.500',4.09
'0:17.504',-1.75
'0:17.508',-6.13
'0:17.512',-8.8
'0:17.516',-10.16
'0:17.520',-10.69
'0:17.523',-10.53
'0:17.527',-9.65
'0:17.531',-8.35
'0:17.535',-6.65
'0:17.539',-5.15
'0:17.543',-3.76
'0:17.547',-2.78
'0:17.551',-2.21
'0:17.555',-1.66
'0:17.559',-0.96
'0:17.563',-0.43
'0:17.566',-0.29
'0:17.570',-0.32
'0:17.574',-0.42
'0:17.578',-0.44
'0:17.582',-0.31
'0:17.586',-0.19
'0:17.590',-0.05
'0:17.594',0.14
'0:17.598',0.15
'0:17.602',0.1
'0:17.605',0.23
'0:17.609',0.43
'0:17.613',0.72
'0:17.617',1.18
'0:17.621',1.55
'0:17.625',1.77
'0:17.629',1.9
'0:17.633',2.16
'0:17.637',2.52
'0:17.641',2.82
'0:17.645',2.83
'0:17.648',2.97
'0:17.652',3.27
'0:17.656',3.6
'0:17.660',3.61
'0:17.664',3.45
'0:17.668',3.36
'0:17.672',3.4
'0:17.676',3.22
'0:17.680',3.03
'0:17.684',2.75
'0:17.688',2.55
'0:17.691',2.53
'0:17.695',2.55
'0:17.699',2.54
'0:17.703',2.36
'0:17.707',2.18
'0:17.711',2.19
'0:17.715',2.09
'0:17.719',1.61
'0:17.723',1
'0:17.727',0.66
'0:17.730',0.57
'0:17.734',0.48
'0:17.738',0.35
'0:17.742',0.05
'0:17.746',-0.32
'0:17.750',-0.59
'0:17.754',-1.02
'0:17.758',-1.48
'0:17.762',-2.04
'0:17.766',-2.42
'0:17.770',-2.63
'0:17.773',-2.81
'0:17.777',-3.04
'0:17.781',-3.12
'0:17.785',-3.16
'0:17.789',-3.38
'0:17.793',-3.44
'0:17.797',-3.31
'0:17.801',-3.45
'0:17.805',-3.35
'0:17.809',-2.82
'0:17.813',-1.78
'0:17.816',0.12
'0:17.820',2.96
'0:17.824',6.27
'0:17.828',9.25
'0:17.832',10.89
'0:17.836',9.03
'0:17.840',3.37
'0:17.844',-2.74
'0:17.848',-7.24
'0:17.852',-10.02
'0:17.855',-11.43
'0:17.859',-11.97
'0:17.863',-11.81
'0:17.867',-10.84
'0:17.871',-9.44
'0:17.875',-7.74
'0:17.879',-6.32
'0:17.883',-5.04
'0:17.887',-3.92
'0:17.891',-2.89
'0:17.895',-2.08
'0:17.898',-1.48
'0:17.902',-1.15
'0:17.906',-0.87
'0:17.910',-0.6
'0:17.914',-0.51
'0:17.918',-0.55
'0:17.922',-0.77
'0:17.926',-0.8
'0:17.930',-0.91
'0:17.934',-1
'0:17.938',-0.92
'0:17.941',-0.82
'0:17.945',-0.66
'0:17.949',-0.42
'0:17.953',-0.18
'0:17.957',0.06
'0:17.961',0.35
'0:17.965',0.57
'0:17.969',0.79
'0:17.973',1.02
'0:17.977',1.21
'0:17.980',1.34
'0:17.984',1.44
'0:17.988',1.51
'0:17.992',1.37
'0:17.996',1.27
'0:18.000',1.27
'0:18.004',1.29
'0:18.008',1.34
'0:18.012',1.37
'0:18.016',1.29
'0:18.020',1.15
'0:18.023',1.08
'0:18.027',1.11
'0:18.031',1.16
'0:18.035',1.1
'0:18.039',1.07
'0:18.043',1.09
'0:18.047',1.12
'0:18.051',1.13
'0:18.055',1.03
'0:18.059',0.82
'0:18.063',0.5
'0:18.066',0.23
'0:18.070',0.03
'0:18.074',-0.07
'0:18.078',-0.11
'0:18.082',-0.22
'0:18.086',-0.29
'0:18.090',-0.4
'0:18.094',-0.62
'0:18.098',-0.89
'0:18.102',-1.11
'0:18.105',-1.29
'0:18.109',-1.33
'0:18.113',-1.39
'0:18.117',-1.45
'0:18.121',-1.38
'0:18.125',-1.25
'0:18.129',-1.17
'0:18.133',-1.21
'0:18.137',-1.24
'0:18.141',-1.24
'0:18.145',-1.01
'0:18.148',-0.47
'0:18.152',0.55
'0:18.156',2.23
'0:18.160',4.89
'0:18.164',8.15
'0:18.168',11.01
'0:18.172',11.87
'0:18.176',8.66
'0:18.180',2.47
'0:18.184',-3.32
'0:18.188',-7.34
'0:18.191',-9.53
'0:18.195',-10.51
'0:18.199',-10.4
'0:18.203',-9.52
'0:18.207',-7.92
'0:18.211',-5.93
'0:18.215',-4.14
'0:18.219',-2.66
'0:18.223',-1.46
'0:18.227',-0.4
'0:18.230',0.5
'0:18.234',1.22
'0:18.238',1.64
'0:18.242',1.96
'0:18.246',2.19
'0:18.250',2.31
'0:18.254',2.31
'0:18.258',2.4
'0:18.262',2.51
'0:18.266',2.56
'0:18.270',2.5
'0:18.273',2.4
'0:18.277',2.37
'0:18.281',2.38
'0:18.285',2.39
'0:18.289',2.39
'0:18.293',2.55
'0:18.297',2.82
'0:18.301',3.02
'0:18.305',3.07
'0:18.309',3.14
'0:18.313',3.19
'0:18.316',3.08
'0:18.320',2.81
'0:18.324',2.52
'0:18.328',2.33
'0:18.332',2.01
'0:18.336',1.62
'0:18.340',1.26
'0:18.344',0.97
'0:18.348',0.71
'0:18.352',0.49
'0:18.355',0.48
'0:18.359',0.59
'0:18.363',0.72
'0:18.367',0.98
'0:18.371',1.26
'0:18.375',1.8
'0:18.379',2.6
'0:18.383',3.49
'0:18.387',4.26
'0:18.391',4.74
'0:18.395',4.92
'0:18.398',5
'0:18.402',4.95
'0:18.406',4.79
'0:18.410',4.45
'0:18.414',4.17
'0:18.418',3.96
'0:18.422',3.6
'0:18.426',3.09
'0:18.430',2.44
'0:18.434',1.64
'0:18.438',1.03
'0:18.441',0.6
'0:18.445',0.37
'0:18.449',0.36
'0:18.453',0.37
'0:18.457',0.38
'0:18.461',0.23
'0:18.465',0
'0:18.469',-0.43
'0:18.473',-0.92
'0:18.477',-1.37
'0:18.480',-1.64
'0:18.484',-1.64
'0:18.488',-1.21
'0:18.492',-0.18
'0:18.496',1.82
'0:18.500',4.71
'0:18.504',7.6
'0:18.508',9.24
'0:18.512',7.74
'0:18.516',2.81
'0:18.520',-2.94
'0:18.523',-7.2
'0:18.527',-9.35
'0:18.531',-10.09
'0:18.535',-10.24
'0:18.539',-9.84
'0:18.543',-8.8
'0:18.547',-7.28
'0:18.551',-5.54
'0:18.555',-3.96
'0:18.559',-2.49
'0:18.563',-1.25
'0:18.566',-0.37
'0:18.570',0.27
'0:18.574',0.84
'0:18.578',1.28
'0:18.582',1.53
'0:18.586',1.67
'0:18.590',1.8
'0:18.594',1.93
'0:18.598',2.04
'0:18.602',2.11
'0:18.605',2.15
'0:18.609',2.2
'0:18.613',2.17
'0:18.617',2.19
'0:18.621',2.33
'0:18.625',2.42
'0:18.629',2.46
'0:18.633',2.55
'0:18.637',2.79
'0:18.641',3.01
'0:18.645',3.17
'0:18.648',3.22
'0:18.652',3.17
'0:18.656',3.01
'0:18.660',2.84
'0:18.664',2.64
'0:18.668',2.49
'0:18.672',2.23
'0:18.676',1.91
'0:18.680',1.58
'0:18.684',1.33
'0:18.688',1.22
'0:18.691',1.12
'0:18.695',0.98
'0:18.699',0.84
'0:18.703',0.69
'0:18.707',0.56
'0:18.711',0.54
'0:18.715',0.42
'0:18.719',0.26
'0:18.723',0.1
'0:18.727',0.08
'0:18.730',0.05
'0:18.734',-0.18
'0:18.738',-0.54
'0:18.742',-0.89
'0:18.746',-1.05
'0:18.750',-1.14
'0:18.754',-1.17
'0:18.758',-1.35
'0:18.762',-1.66
'0:18.766',-2.07
'0:18.770',-2.49
'0:18.773',-2.85
'0:18.777',-3.21
'0:18.781',-3.47
'0:18.785',-3.6
'0:18.789',-3.67
'0:18.793',-3.65
'0:18.797',-3.69
'0:18.801',-3.79
'0:18.805',-3.89
'0:18.809',-4.06
'0:18.813',-4.18
'0:18.816',-4.29
'0:18.820',-4.17
'0:18.824',-3.75
'0:18.828',-2.69
'0:18.832',-0.86
'0:18.836',1.94
'0:18.840',5.16
'0:18.844',7.63
'0:18.848',7.73
'0:18.852',4.53
'0:18.855',-0.96
'0:18.859',-5.87
'0:18.863',-8.82
'0:18.867',-9.99
'0:18.871',-10.21
'0:18.875',-9.63
'0:18.879',-8.58
'0:18.883',-7.2
'0:18.887',-5.44
'0:18.891',-3.63
'0:18.895',-1.75
'0:18.898',-0.52
'0:18.902',0.23
'0:18.906',1.68
'0:18.910',3.22
'0:18.914',4.39
'0:18.918',5.26
'0:18.922',5.55
'0:18.926',5.54
'0:18.930',5.28
'0:18.934',5.07
'0:18.938',4.98
'0:18.941',4.72
'0:18.945',4.51
'0:18.949',4.64
'0:18.953',4.84
'0:18.957',5.23
'0:18.961',5.66
'0:18.965',6
'0:18.969',6.16
'0:18.973',6.43
'0:18.977',6.55
'0:18.980',6.65
'0:18.984',6.91
'0:18.988',6.88
'0:18.992',6.52
'0:18.996',6.17
'0:19.000',5.89
'0:19.004',5.47
'0:19.008',5.04
'0:19.012',4.66
'0:19.016',4.32
'0:19.020',4.01
'0:19.023',3.67
'0:19.027',3.24
'0:19.031',2.79
'0:19.035',2.49
'0:19.039',2.23
'0:19.043',1.94
'0:19.047',1.6
'0:19.051',1.19
'0:19.055',0.75
'0:19.059',0.36
'0:19.063',0.01
'0:19.066',-0.32
'0:19.070',-0.6
'0:19.074',-1.02
'0:19.078',-1.52
'0:19.082',-1.93
'0:19.086',-2.48
'0:19.090',-2.82
'0:19.094',-3.05
'0:19.098',-3.38
'0:19.102',-3.67
'0:19.105',-4.08
'0:19.109',-4.4
'0:19.113',-4.48
'0:19.117',-4.34
'0:19.121',-4.1
'0:19.125',-3.63
'0:19.129',-2.95
'0:19.133',-2.31
'0:19.137',-1.8
'0:19.141',-1.23
'0:19.145',-0.93
'0:19.148',-0.9
'0:19.152',-0.99
'0:19.156',-1.16
'0:19.160',-1.08
'0:19.164',-0.61
'0:19.168',0.23
'0:19.172',1.61
'0:19.176',3.96
'0:19.180',6.78
'0:19.184',9.14
'0:19.188',9.25
'0:19.191',5.59
'0:19.195',-0.26
'0:19.199',-5.3
'0:19.203',-8.55
'0:19.207',-10.13
'0:19.211',-10.92
'0:19.215',-11.06
'0:19.219',-10.46
'0:19.223',-9.24
'0:19.227',-7.79
'0:19.230',-6.3
'0:19.234',-4.7
'0:19.238',-3.26
'0:19.242',-2.27
'0:19.246',-1.62
'0:19.250',-1.25
'0:19.254',-0.97
'0:19.258',-0.61
'0:19.262',-0.34
'0:19.266',-0.29
'0:19.270',-0.31
'0:19.273',-0.3
'0:19.277',-0.12
'0:19.281',-0.14
'0:19.285',-0.33
'0:19.289',-0.46
'0:19.293',-0.48
'0:19.297',-0.44
'0:19.301',-0.24
'0:19.305',-0.1
'0:19.309',0.03
'0:19.313',0.18
'0:19.316',0.62
'0:19.320',1.04
'0:19.324',1.23
'0:19.328',1.39
'0:19.332',1.39
'0:19.336',1.53
'0:19.340',1.7
'0:19.344',1.91
'0:19.348',2.06
'0:19.352',1.89
'0:19.355',1.71
'0:19.359',1.52
'0:19.363',1.32
'0:19.367',1.19
'0:19.371',1.24
'0:19.375',1.29
'0:19.379',1.19
'0:19.383',1.03
'0:19.387',0.72
'0:19.391',0.61
'0:19.395',0.67
'0:19.398',0.63
'0:19.402',0.47
'0:19.406',0.25
'0:19.410',0.06
'0:19.414',-0.23
'0:19.418',-0.31
'0:19.422',-0.55
'0:19.426',-0.81
'0:19.430',-1.06
'0:19.434',-1.1
'0:19.438',-1.06
'0:19.441',-1.53
'0:19.445',-2.02
'0:19.449',-2.62
'0:19.453',-3.2
'0:19.457',-3.33
'0:19.461',-3.5
'0:19.465',-3.55
'0:19.469',-3.51
'0:19.473',-3.55
'0:19.477',-3.53
'0:19.480',-3.32
'0:19.484',-3.26
'0:19.488',-3.26
'0:19.492',-3.45
'0:19.496',-3.49
'0:19.500',-3.21
'0:19.504',-2.73
'0:19.508',-1.59
'0:19.512',0.69
'0:19.516',3.81
'0:19.520',6.95
'0:19.523',8.84
'0:19.527',8.79
