'0:00.000',4.53
'0:00.004',4.37
'0:00.008',4.13
'0:00.012',3.64
'0:00.016',2.91
'0:00.020',2.16
'0:00.023',1.58
'0:00.027',1.22
'0:00.031',0.93
'0:00.035',0.57
'0:00.039',0.17
'0:00.043',-0.24
'0:00.047',-0.69
'0:00.051',-1.06
'0:00.055',-1.37
'0:00.059',-1.53
'0:00.063',-1.5
'0:00.066',-1.44
'0:00.070',-1.4
'0:00.074',-1.36
'0:00.078',-1.41
'0:00.082',-1.46
'0:00.086',-1.48
'0:00.090',-1.51
'0:00.094',-1.64
'0:00.098',-1.79
'0:00.102',-1.86
'0:00.105',-1.89
'0:00.109',-1.44
'0:00.113',-0.27
'0:00.117',1.85
'0:00.121',4.26
'0:00.125',5.79
'0:00.129',4.99
'0:00.133',0.85
'0:00.137',-4.6
'0:00.141',-8.78
'0:00.145',-11.31
'0:00.148',-12.4
'0:00.152',-12.82
'0:00.156',-12.77
'0:00.160',-12.22
'0:00.164',-11.17
'0:00.168',-9.66
'0:00.172',-7.95
'0:00.176',-6.3
'0:00.180',-4.92
'0:00.184',-3.82
'0:00.188',-2.91
'0:00.191',-2.11
'0:00.195',-1.58
'0:00.199',-1.38
'0:00.203',-1.23
'0:00.207',-1.01
'0:00.211',-0.8
'0:00.215',-0.58
'0:00.219',-0.41
'0:00.223',-0.18
'0:00.227',-0.07
'0:00.230',0.03
'0:00.234',0.16
'0:00.238',0.29
'0:00.242',0.29
'0:00.246',0.31
'0:00.250',0.49
'0:00.254',0.74
'0:00.258',0.93
'0:00.262',1.06
'0:00.266',1.11
'0:00.270',1.2
'0:00.273',1.22
'0:00.277',1.13
'0:00.281',1.07
'0:00.285',1.07
'0:00.289',1.03
'0:00.293',0.99
'0:00.297',0.75
'0:00.301',0.53
'0:00.305',0.29
'0:00.309',0.03
'0:00.313',-0.24
'0:00.316',-0.47
'0:00.320',-0.57
'0:00.324',-0.63
'0:00.328',-0.55
'0:00.332',-0.48
'0:00.336',-0.57
'0:00.340',-0.66
'0:00.344',-0.66
'0:00.348',-0.66
'0:00.352',-0.61
'0:00.355',-0.65
'0:00.359',-0.7
'0:00.363',-0.7
'0:00.367',-0.51
'0:00.371',-0.54
'0:00.375',-0.69
'0:00.379',-0.96
'0:00.383',-1.14
'0:00.387',-1.25
'0:00.391',-1.34
'0:00.395',-1.39
'0:00.398',-1.45
'0:00.402',-1.75
'0:00.406',-2
'0:00.410',-2.21
'0:00.414',-2.46
'0:00.418',-2.55
'0:00.422',-2.41
'0:00.426',-2.1
'0:00.430',-1.92
'0:00.434',-1.9
'0:00.438',-1.96
'0:00.441',-1.99
'0:00.445',-1.89
'0:00.449',-1.85
'0:00.453',-1.96
'0:00.457',-2.01
'0:00.461',-1.79
'0:00.465',-1.28
'0:00.469',-0.08
'0:00.473',2.09
'0:00.477',5.01
'0:00.480',8.01
'0:00.484',10.02
'0:00.488',9.12
'0:00.492',4.5
'0:00.496',-1.08
'0:00.500',-5.43
'0:00.504',-8.22
'0:00.508',-9.58
'0:00.512',-10.21
'0:00.516',-10.27
'0:00.520',-9.68
'0:00.523',-8.61
'0:00.527',-7.17
'0:00.531',-5.48
'0:00.535',-4.21
'0:00.539',-3.15
'0:00.543',-2.11
'0:00.547',-1.38
'0:00.551',-0.88
'0:00.555',-0.58
'0:00.559',-0.44
'0:00.563',-0.23
'0:00.566',0.04
'0:00.570',0.5
'0:00.574',0.79
'0:00.578',0.93
'0:00.582',1.23
'0:00.586',1.7
'0:00.590',2.01
'0:00.594',2.31
'0:00.598',2.56
'0:00.602',2.8
'0:00.605',3.08
'0:00.609',3.34
'0:00.613',3.41
'0:00.617',3.35
'0:00.621',3.6
'0:00.625',3.79
'0:00.629',3.89
'0:00.633',3.86
'0:00.637',3.88
'0:00.641',4.03
'0:00.645',4.26
'0:00.648',4.14
'0:00.652',3.89
'0:00.656',3.89
'0:00.660',3.49
'0:00.664',3.07
'0:00.668',2.74
'0:00.672',2.38
'0:00.676',1.94
'0:00.680',1.56
'0:00.684',1.44
'0:00.688',1.46
'0:00.691',1.43
'0:00.695',1.23
'0:00.699',1.15
'0:00.703',1.1
'0:00.707',1.34
'0:00.711',1.44
'0:00.715',1.52
'0:00.719',1.49
'0:00.723',1.39
'0:00.727',1.29
'0:00.730',0.89
'0:00.734',0.53
'0:00.738',0.26
'0:00.742',0.11
'0:00.746',-0.12
'0:00.750',-0.31
'0:00.754',-0.24
'0:00.758',-0.33
'0:00.762',-0.6
'0:00.766',-1.12
'0:00.770',-1.54
'0:00.773',-1.87
'0:00.777',-1.84
'0:00.781',-1.55
'0:00.785',-1.36
'0:00.789',-1.27
'0:00.793',-1.14
'0:00.797',-0.91
'0:00.801',-0.54
'0:00.805',-0.33
'0:00.809',-0.24
'0:00.813',-0.22
'0:00.816',-0.03
'0:00.820',0.62
'0:00.824',2.07
'0:00.828',4.43
'0:00.832',7.45
'0:00.836',10.75
'0:00.840',13.65
'0:00.844',14.99
'0:00.848',12.65
'0:00.852',6.74
'0:00.855',0.42
'0:00.859',-3.99
'0:00.863',-6.62
'0:00.867',-8.05
'0:00.871',-8.7
'0:00.875',-8.49
'0:00.879',-7.73
'0:00.883',-6.46
'0:00.887',-5.03
'0:00.891',-3.83
'0:00.895',-2.62
'0:00.898',-1.58
'0:00.902',-0.73
'0:00.906',0.04
'0:00.910',0.4
'0:00.914',0.67
'0:00.918',0.83
'0:00.922',0.98
'0:00.926',1
'0:00.930',0.97
'0:00.934',1.09
'0:00.938',1.17
'0:00.941',1.24
'0:00.945',1.3
'0:00.949',1.18
'0:00.953',1.16
'0:00.957',1.3
'0:00.961',1.49
'0:00.965',1.59
'0:00.969',1.74
'0:00.973',1.94
'0:00.977',2.3
'0:00.980',2.5
'0:00.984',2.73
'0:00.988',2.96
'0:00.992',3.19
'0:00.996',3.3
'0:01.000',3.25
'0:01.004',3.06
'0:01.008',2.98
'0:01.012',2.91
'0:01.016',2.72
'0:01.020',2.55
'0:01.023',2.32
'0:01.027',1.91
'0:01.031',1.5
'0:01.035',1.25
'0:01.039',1.01
'0:01.043',0.82
'0:01.047',0.74
'0:01.051',0.69
'0:01.055',0.61
'0:01.059',0.74
'0:01.063',0.87
'0:01.066',0.92
'0:01.070',0.97
'0:01.074',0.93
'0:01.078',0.82
'0:01.082',0.76
'0:01.086',0.68
'0:01.090',0.41
'0:01.094',0.3
'0:01.098',0.27
'0:01.102',0.17
'0:01.105',0.09
'0:01.109',0.01
'0:01.113',-0.4
'0:01.117',-0.86
'0:01.121',-1.46
'0:01.125',-1.96
'0:01.129',-2.42
'0:01.133',-2.84
'0:01.137',-3.04
'0:01.141',-3.16
'0:01.145',-3.24
'0:01.148',-3.21
'0:01.152',-3.22
'0:01.156',-3.19
'0:01.160',-3.07
'0:01.164',-3.08
'0:01.168',-3.09
'0:01.172',-2.95
'0:01.176',-2.43
'0:01.180',-1.35
'0:01.184',0.36
'0:01.188',2.73
'0:01.191',5.91
'0:01.195',9.12
'0:01.199',11.35
'0:01.203',10.93
'0:01.207',6.41
'0:01.211',-0.29
'0:01.215',-5.76
'0:01.219',-9.29
'0:01.223',-11.17
'0:01.227',-11.91
'0:01.230',-11.87
'0:01.234',-11.19
'0:01.238',-9.95
'0:01.242',-8.29
'0:01.246',-6.61
'0:01.250',-5.11
'0:01.254',-3.78
'0:01.258',-2.74
'0:01.262',-1.98
'0:01.266',-1.44
'0:01.270',-0.89
'0:01.273',-0.38
'0:01.277',0.1
'0:01.281',0.54
'0:01.285',0.69
'0:01.289',0.71
'0:01.293',0.71
'0:01.297',0.8
'0:01.301',0.85
'0:01.305',0.88
'0:01.309',1.05
'0:01.313',1.28
'0:01.316',1.36
'0:01.320',1.51
'0:01.324',1.63
'0:01.328',1.76
'0:01.332',2.09
'0:01.336',2.29
'0:01.340',2.28
'0:01.344',2.31
'0:01.348',2.23
'0:01.352',2.06
'0:01.355',1.95
'0:01.359',1.87
'0:01.363',1.73
'0:01.367',1.71
'0:01.371',1.5
'0:01.375',1.24
'0:01.379',1.01
'0:01.383',0.47
'0:01.387',-0.14
'0:01.391',-0.64
'0:01.395',-1
'0:01.398',-1.09
'0:01.402',-1.1
'0:01.406',-1.11
'0:01.410',-0.91
'0:01.414',-0.48
'0:01.418',-0.14
'0:01.422',0.27
'0:01.426',0.73
'0:01.430',1.27
'0:01.434',1.63
'0:01.438',1.8
'0:01.441',1.91
'0:01.445',1.89
'0:01.449',1.88
'0:01.453',2.08
'0:01.457',2.29
'0:01.461',2.21
'0:01.465',1.92
'0:01.469',1.58
'0:01.473',1.03
'0:01.477',0.47
'0:01.480',0.27
'0:01.484',0.07
'0:01.488',0.04
'0:01.492',-0.17
'0:01.496',-0.4
'0:01.500',-0.74
'0:01.504',-0.81
'0:01.508',-0.96
'0:01.512',-1.16
'0:01.516',-1.22
'0:01.520',-1.27
'0:01.523',-1.34
'0:01.527',-1.33
'0:01.531',-1.07
'0:01.535',-0.4
'0:01.539',0.81
'0:01.543',2.85
'0:01.547',5.82
'0:01.551',9.08
'0:01.555',11.45
'0:01.559',10.96
'0:01.563',6.66
'0:01.566',0.42
'0:01.570',-4.55
'0:01.574',-7.24
'0:01.578',-8.4
'0:01.582',-8.62
'0:01.586',-8.38
'0:01.590',-7.58
'0:01.594',-6.19
'0:01.598',-4.62
'0:01.602',-3.29
'0:01.605',-2.28
'0:01.609',-1.31
'0:01.613',-0.56
'0:01.617',0.08
'0:01.621',0.65
'0:01.625',1.05
'0:01.629',1.21
'0:01.633',1.33
'0:01.637',1.57
'0:01.641',1.74
'0:01.645',1.76
'0:01.648',1.62
'0:01.652',1.34
'0:01.656',1.16
'0:01.660',1.16
'0:01.664',1.17
'0:01.668',1.15
'0:01.672',1.08
'0:01.676',1.05
'0:01.680',1.11
'0:01.684',1.22
'0:01.688',1.34
'0:01.691',1.34
'0:01.695',1.3
'0:01.699',1.34
'0:01.703',1.42
'0:01.707',1.44
'0:01.711',1.48
'0:01.715',1.55
'0:01.719',1.5
'0:01.723',1.36
'0:01.727',1.16
'0:01.730',0.95
'0:01.734',0.7
'0:01.738',0.38
'0:01.742',-0.03
'0:01.746',-0.44
'0:01.750',-0.69
'0:01.754',-0.82
'0:01.758',-0.85
'0:01.762',-0.79
'0:01.766',-0.76
'0:01.770',-0.73
'0:01.773',-0.7
'0:01.777',-0.65
'0:01.781',-0.66
'0:01.785',-0.81
'0:01.789',-0.87
'0:01.793',-0.85
'0:01.797',-0.77
'0:01.801',-0.7
'0:01.805',-0.77
'0:01.809',-0.9
'0:01.813',-0.99
'0:01.816',-1.07
'0:01.820',-1.07
'0:01.824',-1.2
'0:01.828',-1.5
'0:01.832',-1.83
'0:01.836',-2.14
'0:01.840',-2.58
'0:01.844',-3.06
'0:01.848',-3.34
'0:01.852',-3.42
'0:01.855',-3.54
'0:01.859',-3.76
'0:01.863',-3.97
'0:01.867',-4.11
'0:01.871',-4.12
'0:01.875',-4.14
'0:01.879',-4.27
'0:01.883',-4.39
'0:01.887',-4.3
'0:01.891',-3.97
'0:01.895',-3.32
'0:01.898',-2.07
'0:01.902',0.26
'0:01.906',3.33
'0:01.910',6.04
'0:01.914',6.68
'0:01.918',3.84
'0:01.922',-1.82
'0:01.926',-7.5
'0:01.930',-11.24
'0:01.934',-12.94
'0:01.938',-13.5
'0:01.941',-13.33
'0:01.945',-12.47
'0:01.949',-11.06
'0:01.953',-9.29
'0:01.957',-7.48
'0:01.961',-5.76
'0:01.965',-4.35
'0:01.969',-3.12
'0:01.973',-2.16
'0:01.977',-1.47
'0:01.980',-0.95
'0:01.984',-0.58
'0:01.988',-0.27
'0:01.992',0.02
'0:01.996',0.32
'0:02.000',0.62
'0:02.004',0.79
'0:02.008',0.98
'0:02.012',1.1
'0:02.016',1.22
'0:02.020',1.4
'0:02.023',1.64
'0:02.027',1.98
'0:02.031',2.2
'0:02.035',2.4
'0:02.039',2.59
'0:02.043',2.81
'0:02.047',3.13
'0:02.051',3.57
'0:02.055',3.84
'0:02.059',3.98
'0:02.063',4.17
'0:02.066',4.28
'0:02.070',4.32
'0:02.074',4.31
'0:02.078',4.29
'0:02.082',4.16
'0:02.086',3.95
'0:02.090',3.7
'0:02.094',3.37
'0:02.098',2.97
'0:02.102',2.67
'0:02.105',2.46
'0:02.109',2.18
'0:02.113',1.7
'0:02.117',1.25
'0:02.121',0.83
'0:02.125',0.37
'0:02.129',0.2
'0:02.133',0.04
'0:02.137',-0.35
'0:02.141',-0.84
'0:02.145',-1.38
'0:02.148',-1.64
'0:02.152',-1.96
'0:02.156',-2.42
'0:02.160',-2.86
'0:02.164',-3.13
'0:02.168',-3.19
'0:02.172',-3.04
'0:02.176',-2.68
'0:02.180',-2.13
'0:02.184',-1.79
'0:02.188',-1.62
'0:02.191',-1.63
'0:02.195',-1.65
'0:02.199',-1.63
'0:02.203',-1.52
'0:02.207',-1.12
'0:02.211',-0.26
'0:02.215',0.23
'0:02.219',0.42
'0:02.223',0.79
'0:02.227',1.08
'0:02.230',0.94
'0:02.234',0.35
'0:02.238',-0.11
'0:02.242',-0.45
'0:02.246',-0.48
'0:02.250',-0.04
'0:02.254',0.92
'0:02.258',2.82
'0:02.262',5.32
'0:02.266',7.78
'0:02.270',8.64
'0:02.273',6.33
'0:02.277',1.15
'0:02.281',-4.34
'0:02.285',-8.24
'0:02.289',-10.22
'0:02.293',-10.88
'0:02.297',-10.82
'0:02.301',-10.32
'0:02.305',-9.3
'0:02.309',-7.79
'0:02.313',-6.11
'0:02.316',-4.61
'0:02.320',-3.2
'0:02.324',-2.07
'0:02.328',-1.15
'0:02.332',-0.45
'0:02.336',0
'0:02.340',0.36
'0:02.344',0.69
'0:02.348',1.01
'0:02.352',1.37
'0:02.355',1.7
'0:02.359',2.04
'0:02.363',2.46
'0:02.367',3
'0:02.371',3.4
'0:02.375',3.88
'0:02.379',4.25
'0:02.383',4.67
'0:02.387',5.08
'0:02.391',5.49
'0:02.395',5.72
'0:02.398',6.11
'0:02.402',6.35
'0:02.406',6.37
'0:02.410',6.23
'0:02.414',6.01
'0:02.418',5.82
'0:02.422',5.51
'0:02.426',5.06
'0:02.430',4.69
'0:02.434',4.3
'0:02.438',3.97
'0:02.441',3.68
'0:02.445',3.27
'0:02.449',2.71
'0:02.453',2.25
'0:02.457',1.89
'0:02.461',1.58
'0:02.465',1.34
'0:02.469',1.16
'0:02.473',1.06
'0:02.477',1.02
'0:02.480',0.92
'0:02.484',0.88
'0:02.488',0.88
'0:02.492',0.87
'0:02.496',0.96
'0:02.500',0.97
'0:02.504',0.91
'0:02.508',0.87
'0:02.512',0.75
'0:02.516',0.48
'0:02.520',0.14
'0:02.523',-0.21
'0:02.527',-0.59
'0:02.531',-0.9
'0:02.535',-1.02
'0:02.539',-1.18
'0:02.543',-1.47
'0:02.547',-1.81
'0:02.551',-2.21
'0:02.555',-2.56
'0:02.559',-2.86
'0:02.563',-3.05
'0:02.566',-3.01
'0:02.570',-2.86
'0:02.574',-2.54
'0:02.578',-2.31
'0:02.582',-2.16
'0:02.586',-2.14
'0:02.590',-2.17
'0:02.594',-2.17
'0:02.598',-2.17
'0:02.602',-2
'0:02.605',-1.51
'0:02.609',-0.63
'0:02.613',0.85
'0:02.617',3.07
'0:02.621',6.05
'0:02.625',8.9
'0:02.629',10.6
'0:02.633',9.04
'0:02.637',3.93
'0:02.641',-1.78
'0:02.645',-6.03
'0:02.648',-8.38
'0:02.652',-9.53
'0:02.656',-9.9
'0:02.660',-9.75
'0:02.664',-8.92
'0:02.668',-7.54
'0:02.672',-5.93
'0:02.676',-4.23
'0:02.680',-2.83
'0:02.684',-1.76
'0:02.688',-0.76
'0:02.691',0
'0:02.695',0.52
'0:02.699',0.86
'0:02.703',1.08
'0:02.707',1.25
'0:02.711',1.35
'0:02.715',1.5
'0:02.719',1.66
'0:02.723',1.73
'0:02.727',1.73
'0:02.730',1.82
'0:02.734',1.78
'0:02.738',1.78
'0:02.742',1.94
'0:02.746',1.91
'0:02.750',1.93
'0:02.754',2.27
'0:02.758',2.46
'0:02.762',2.41
'0:02.766',2.62
'0:02.770',2.8
'0:02.773',2.85
'0:02.777',2.9
'0:02.781',3
'0:02.785',3.03
'0:02.789',3.22
'0:02.793',3.46
'0:02.797',3.58
'0:02.801',3.42
'0:02.805',3.03
'0:02.809',2.64
'0:02.813',2.3
'0:02.816',2.06
'0:02.820',1.95
'0:02.824',1.86
'0:02.828',1.83
'0:02.832',1.78
'0:02.836',1.88
'0:02.840',1.93
'0:02.844',1.84
'0:02.848',1.81
'0:02.852',1.9
'0:02.855',1.78
'0:02.859',1.73
'0:02.863',1.72
'0:02.867',1.71
'0:02.871',1.42
'0:02.875',0.93
'0:02.879',0.65
'0:02.883',0.57
'0:02.887',0.35
'0:02.891',0.17
'0:02.895',0.05
'0:02.898',0.01
'0:02.902',-0.2
'0:02.906',-0.89
'0:02.910',-1.45
'0:02.914',-1.88
'0:02.918',-2.61
'0:02.922',-3.1
'0:02.926',-3.06
'0:02.930',-2.86
'0:02.934',-2.77
'0:02.938',-2.85
'0:02.941',-2.89
'0:02.945',-2.99
'0:02.949',-2.92
'0:02.953',-2.58
'0:02.957',-2.3
'0:02.961',-1.77
'0:02.965',-0.77
'0:02.969',0.82
'0:02.973',2.82
'0:02.977',5.55
'0:02.980',8.84
'0:02.984',11.69
'0:02.988',12.7
'0:02.992',10.08
'0:02.996',3.95
'0:03.000',-2.26
'0:03.004',-6.65
'0:03.008',-9.13
'0:03.012',-10.26
'0:03.016',-10.67
'0:03.020',-10.2
'0:03.023',-9.28
'0:03.027',-7.71
'0:03.031',-5.99
'0:03.035',-4.71
'0:03.039',-3.67
'0:03.043',-2.62
'0:03.047',-1.8
'0:03.051',-1.29
'0:03.055',-0.97
'0:03.059',-0.65
'0:03.063',-0.31
'0:03.066',-0.09
'0:03.070',0.18
'0:03.074',0.2
'0:03.078',0.15
'0:03.082',0.35
'0:03.086',0.46
'0:03.090',0.4
'0:03.094',0.41
'0:03.098',0.38
'0:03.102',0.4
'0:03.105',0.5
'0:03.109',0.75
'0:03.113',1.05
'0:03.117',1.29
'0:03.121',1.4
'0:03.125',1.61
'0:03.129',2.01
'0:03.133',2.22
'0:03.137',2.1
'0:03.141',2.04
'0:03.145',2.33
'0:03.148',2.64
'0:03.152',2.83
'0:03.156',2.87
'0:03.160',2.88
'0:03.164',2.77
'0:03.168',2.56
'0:03.172',2.29
'0:03.176',2.14
'0:03.180',1.94
'0:03.184',1.76
'0:03.188',1.66
'0:03.191',1.68
'0:03.195',1.62
'0:03.199',1.56
'0:03.203',1.57
'0:03.207',1.78
'0:03.211',2.02
'0:03.215',1.87
'0:03.219',1.6
'0:03.223',1.56
'0:03.227',1.54
'0:03.230',1.46
'0:03.234',1.18
'0:03.238',0.88
'0:03.242',0.7
'0:03.246',0.52
'0:03.250',0.24
'0:03.254',0.02
'0:03.258',-0.2
'0:03.262',-0.34
'0:03.266',-0.69
'0:03.270',-1.15
'0:03.273',-1.62
'0:03.277',-1.95
'0:03.281',-2.09
'0:03.285',-2.12
'0:03.289',-2.18
'0:03.293',-2.35
'0:03.297',-2.42
'0:03.301',-2.48
'0:03.305',-2.51
'0:03.309',-2.48
'0:03.313',-2.5
'0:03.316',-2.52
'0:03.320',-2.28
'0:03.324',-1.56
'0:03.328',-0.17
'0:03.332',1.98
'0:03.336',5.02
'0:03.340',8.29
'0:03.344',10.93
'0:03.348',11.64
'0:03.352',8.34
'0:03.355',1.79
'0:03.359',-4.18
'0:03.363',-8.23
'0:03.367',-10.44
'0:03.371',-11.41
'0:03.375',-11.47
'0:03.379',-10.82
'0:03.383',-9.64
'0:03.387',-8.19
'0:03.391',-6.6
'0:03.395',-5.04
'0:03.398',-3.68
'0:03.402',-2.57
'0:03.406',-1.82
'0:03.410',-1.23
'0:03.414',-0.88
'0:03.418',-0.56
'0:03.422',-0.41
'0:03.426',-0.3
'0:03.430',-0.16
'0:03.434',0.01
'0:03.438',0.2
'0:03.441',0.3
'0:03.445',0.3
'0:03.449',0.36
'0:03.453',0.46
'0:03.457',0.51
'0:03.461',0.57
'0:03.465',0.71
'0:03.469',0.96
'0:03.473',1.16
'0:03.477',1.35
'0:03.480',1.45
'0:03.484',1.52
'0:03.488',1.71
'0:03.492',1.8
'0:03.496',1.83
'0:03.500',1.82
'0:03.504',1.77
'0:03.508',1.75
'0:03.512',1.68
'0:03.516',1.59
'0:03.520',1.45
'0:03.523',1.31
'0:03.527',1.07
'0:03.531',0.76
'0:03.535',0.58
'0:03.539',0.44
'0:03.543',0.34
'0:03.547',0.27
'0:03.551',0.34
'0:03.555',0.48
'0:03.559',0.67
'0:03.563',0.79
'0:03.566',0.85
'0:03.570',1.01
'0:03.574',1.13
'0:03.578',1.19
'0:03.582',1.19
'0:03.586',1.09
'0:03.590',0.96
'0:03.594',0.89
'0:03.598',0.71
'0:03.602',0.34
'0:03.605',0
'0:03.609',0.11
'0:03.613',0.16
'0:03.617',-0.22
'0:03.621',-0.67
'0:03.625',-1.08
'0:03.629',-1.39
'0:03.633',-1.52
'0:03.637',-1.56
'0:03.641',-1.65
'0:03.645',-1.73
'0:03.648',-1.69
'0:03.652',-1.69
'0:03.656',-1.55
'0:03.660',-1.57
'0:03.664',-1.5
'0:03.668',-1.47
'0:03.672',-1.49
'0:03.676',-1.45
'0:03.680',-1.07
'0:03.684',-0.42
'0:03.688',0.74
'0:03.691',2.87
'0:03.695',5.82
'0:03.699',8.69
'0:03.703',9.94
'0:03.707',7.65
'0:03.711',1.7
'0:03.715',-5.23
'0:03.719',-10.17
'0:03.723',-12.76
'0:03.727',-13.73
'0:03.730',-13.53
'0:03.734',-12.45
'0:03.738',-10.68
'0:03.742',-8.52
'0:03.746',-6.31
'0:03.750',-3.99
'0:03.754',-2.04
'0:03.758',-0.61
'0:03.762',0.4
'0:03.766',1.32
'0:03.770',2.02
'0:03.773',2.56
'0:03.777',3.1
'0:03.781',3.62
'0:03.785',3.88
'0:03.789',3.81
'0:03.793',3.65
'0:03.797',3.36
'0:03.801',3.18
'0:03.805',3.18
'0:03.809',3.29
'0:03.813',3.24
'0:03.816',3.13
'0:03.820',3.11
'0:03.824',3.14
'0:03.828',3.22
'0:03.832',3.31
'0:03.836',3.44
'0:03.840',3.56
'0:03.844',3.68
'0:03.848',3.75
'0:03.852',3.65
'0:03.855',3.38
'0:03.859',3.16
'0:03.863',3.04
'0:03.867',2.78
'0:03.871',2.35
'0:03.875',1.89
'0:03.879',1.51
'0:03.883',1.26
'0:03.887',1.09
'0:03.891',0.82
'0:03.895',0.57
'0:03.898',0.34
'0:03.902',0.12
'0:03.906',-0.08
'0:03.910',-0.09
'0:03.914',-0.09
'0:03.918',-0.06
'0:03.922',0.08
'0:03.926',0.28
'0:03.930',0.34
'0:03.934',0.32
'0:03.938',0.38
'0:03.941',0.55
'0:03.945',0.85
'0:03.949',1.13
'0:03.953',1.28
'0:03.957',1.28
'0:03.961',1.07
'0:03.965',0.87
'0:03.969',0.72
'0:03.973',0.56
'0:03.977',0.36
'0:03.980',0.26
'0:03.984',0.05
'0:03.988',-0.22
'0:03.992',-0.43
'0:03.996',-0.46
'0:04.000',-0.35
'0:04.004',-0.18
'0:04.008',-0.07
'0:04.012',-0.05
'0:04.016',-0.07
'0:04.020',-0.13
'0:04.023',-0.34
'0:04.027',-0.57
'0:04.031',-0.73
'0:04.035',-0.73
'0:04.039',-0.51
'0:04.043',0.06
'0:04.047',1.34
'0:04.051',3.7
'0:04.055',6.68
'0:04.059',9.3
'0:04.063',9.98
'0:04.066',7.02
'0:04.070',1.05
'0:04.074',-4.86
'0:04.078',-8.79
'0:04.082',-10.71
'0:04.086',-11.41
'0:04.090',-11.41
'0:04.094',-10.81
'0:04.098',-9.67
'0:04.102',-8.02
'0:04.105',-6.09
'0:04.109',-4.25
'0:04.113',-2.64
'0:04.117',-1.37
'0:04.121',-0.46
'0:04.125',0.2
'0:04.129',1.02
'0:04.133',1.29
'0:04.137',1.31
'0:04.141',1.35
'0:04.145',1.39
'0:04.148',1.43
'0:04.152',1.6
'0:04.156',1.81
'0:04.160',2.03
'0:04.164',2.12
'0:04.168',2.15
'0:04.172',2.17
'0:04.176',2.15
'0:04.180',2.06
'0:04.184',2.06
'0:04.188',2.19
'0:04.191',2.32
'0:04.195',2.39
'0:04.199',2.32
'0:04.203',2.14
'0:04.207',1.99
'0:04.211',1.93
'0:04.215',1.8
'0:04.219',1.63
'0:04.223',1.41
'0:04.227',1.14
'0:04.230',0.85
'0:04.234',0.47
'0:04.238',0.11
'0:04.242',-0.23
'0:04.246',-0.49
'0:04.250',-0.71
'0:04.254',-0.86
'0:04.258',-0.79
'0:04.262',-0.63
'0:04.266',-0.57
'0:04.270',-0.56
'0:04.273',-0.56
'0:04.277',-0.47
'0:04.281',-0.39
'0:04.285',-0.57
'0:04.289',-0.58
'0:04.293',-0.4
'0:04.297',-0.2
'0:04.301',-0.1
'0:04.305',-0.27
'0:04.309',-0.36
'0:04.313',-0.45
'0:04.316',-0.56
'0:04.320',-0.74
'0:04.324',-0.84
'0:04.328',-1.01
'0:04.332',-1.22
'0:04.336',-1.57
'0:04.340',-1.98
'0:04.344',-2.38
'0:04.348',-2.62
'0:04.352',-2.7
'0:04.355',-2.67
'0:04.359',-2.55
'0:04.363',-2.31
'0:04.367',-2.18
'0:04.371',-2.01
'0:04.375',-1.77
'0:04.379',-1.66
'0:04.383',-1.65
'0:04.387',-1.55
'0:04.391',-1.19
'0:04.395',-0.65
'0:04.398',0.35
'0:04.402',2.09
'0:04.406',4.97
'0:04.410',8.24
'0:04.414',10.47
'0:04.418',10.03
'0:04.422',6.08
'0:04.426',0.03
'0:04.430',-5.13
'0:04.434',-8.49
'0:04.438',-10.12
'0:04.441',-10.7
'0:04.445',-10.68
'0:04.449',-10.05
'0:04.453',-8.76
'0:04.457',-7.07
'0:04.461',-5.42
'0:04.465',-4
'0:04.469',-2.95
'0:04.473',-2.42
'0:04.477',-2.03
'0:04.480',-1.63
'0:04.484',-1.33
'0:04.488',-0.96
'0:04.492',-0.57
'0:04.496',0.01
'0:04.500',0.75
'0:04.504',1.34
'0:04.508',1.81
'0:04.512',2.41
'0:04.516',2.94
'0:04.520',3.11
'0:04.523',3.18
'0:04.527',3.48
'0:04.531',3.71
'0:04.535',3.76
'0:04.539',3.93
'0:04.543',4.12
'0:04.547',4.11
'0:04.551',3.8
'0:04.555',3.54
'0:04.559',3.48
'0:04.563',3.25
'0:04.566',2.8
'0:04.570',2.31
'0:04.574',1.82
'0:04.578',1.37
'0:04.582',0.93
'0:04.586',0.4
'0:04.590',-0.21
'0:04.594',-0.82
'0:04.598',-1.56
'0:04.602',-2.38
'0:04.605',-2.62
'0:04.609',-2.09
'0:04.613',-1.06
'0:04.617',0
'0:04.621',1.28
'0:04.625',2.32
'0:04.629',2.85
'0:04.633',3.02
'0:04.637',3.08
'0:04.641',3.19
'0:04.645',3.18
'0:04.648',3.05
'0:04.652',2.98
'0:04.656',2.94
'0:04.660',2.63
'0:04.664',2.23
'0:04.668',1.87
'0:04.672',1.5
'0:04.676',1.25
'0:04.680',1.33
'0:04.684',1.85
'0:04.688',2.39
'0:04.691',2.77
'0:04.695',2.97
'0:04.699',2.92
'0:04.703',2.93
'0:04.707',2.95
'0:04.711',2.87
'0:04.715',2.66
'0:04.719',2.81
'0:04.723',3.01
'0:04.727',3.18
'0:04.730',3.08
'0:04.734',2.58
'0:04.738',1.93
'0:04.742',1.28
'0:04.746',0.71
'0:04.750',0.29
'0:04.754',0.15
'0:04.758',0.31
'0:04.762',1.07
'0:04.766',2.93
'0:04.770',5.61
'0:04.773',8.08
'0:04.777',9.22
'0:04.781',7.38
'0:04.785',2.34
'0:04.789',-3.26
'0:04.793',-7.43
'0:04.797',-9.93
'0:04.801',-11
'0:04.805',-11.38
'0:04.809',-11.19
'0:04.813',-10.58
'0:04.816',-9.36
'0:04.820',-7.74
'0:04.824',-6.08
'0:04.828',-4.58
'0:04.832',-3.36
'0:04.836',-2.35
'0:04.840',-1.52
'0:04.844',-0.96
'0:04.848',-0.66
'0:04.852',-0.37
'0:04.855',-0.14
'0:04.859',-0.02
'0:04.863',0.04
'0:04.867',0.13
'0:04.871',0.26
'0:04.875',0.42
'0:04.879',0.53
'0:04.883',0.43
'0:04.887',0.39
'0:04.891',0.49
'0:04.895',0.62
'0:04.898',0.84
'0:04.902',1.01
'0:04.906',1.27
'0:04.910',1.56
'0:04.914',1.8
'0:04.918',2.08
'0:04.922',2.19
'0:04.926',2.1
'0:04.930',2
'0:04.934',2.02
'0:04.938',2.02
'0:04.941',2.02
'0:04.945',2.04
'0:04.949',2
'0:04.953',1.81
'0:04.957',1.6
'0:04.961',1.28
'0:04.965',0.93
'0:04.969',0.7
'0:04.973',0.48
'0:04.977',0.33
'0:04.980',0.27
'0:04.984',0.22
'0:04.988',0.31
'0:04.992',0.31
'0:04.996',0.25
'0:05.000',0.1
'0:05.004',-0.04
'0:05.008',-0.11
'0:05.012',-0.07
'0:05.016',0
'0:05.020',-0.12
'0:05.023',-0.26
'0:05.027',-0.64
'0:05.031',-1.08
'0:05.035',-1.26
'0:05.039',-1.32
'0:05.043',-1.54
'0:05.047',-1.8
'0:05.051',-2.16
'0:05.055',-2.46
'0:05.059',-2.86
'0:05.063',-3.3
'0:05.066',-3.74
'0:05.070',-4.03
'0:05.074',-4.19
'0:05.078',-4.44
'0:05.082',-4.5
'0:05.086',-4.46
'0:05.090',-4.5
'0:05.094',-4.53
'0:05.098',-4.51
'0:05.102',-4.43
'0:05.105',-4.34
'0:05.109',-4.25
'0:05.113',-3.87
'0:05.117',-3.23
'0:05.121',-2.11
'0:05.125',-0.17
'0:05.129',2.66
'0:05.133',5.96
'0:05.137',8.76
'0:05.141',9.77
'0:05.145',6.9
'0:05.148',0.82
'0:05.152',-4.88
'0:05.156',-8.61
'0:05.160',-10.77
'0:05.164',-11.93
'0:05.168',-12.11
'0:05.172',-11.51
'0:05.176',-10.41
'0:05.180',-8.92
'0:05.184',-7.03
'0:05.188',-5.3
'0:05.191',-3.67
'0:05.195',-2.47
'0:05.199',-1.53
'0:05.203',-0.88
'0:05.207',-0.28
'0:05.211',0.14
'0:05.215',0.37
'0:05.219',0.23
'0:05.223',0.1
'0:05.227',0.21
'0:05.230',0.38
'0:05.234',0.35
'0:05.238',0.27
'0:05.242',0.05
'0:05.246',-0.22
'0:05.250',-0.44
'0:05.254',-0.63
'0:05.258',-0.73
'0:05.262',-0.65
'0:05.266',-0.24
'0:05.270',0.34
'0:05.273',0.84
'0:05.277',1.18
'0:05.281',1.47
'0:05.285',1.82
'0:05.289',2.28
'0:05.293',2.52
'0:05.297',2.57
'0:05.301',2.79
'0:05.305',2.88
'0:05.309',2.86
'0:05.313',2.7
'0:05.316',2.32
'0:05.320',1.73
'0:05.324',1.65
'0:05.328',1.51
'0:05.332',0.78
'0:05.336',0.44
'0:05.340',0.68
'0:05.344',0.9
'0:05.348',0.93
'0:05.352',1.02
'0:05.355',1.18
'0:05.359',1.34
'0:05.363',1.29
'0:05.367',1.32
'0:05.371',1.28
'0:05.375',1.13
'0:05.379',1.18
'0:05.383',1.1
'0:05.387',0.68
'0:05.391',0.23
'0:05.395',-0.2
'0:05.398',-0.69
'0:05.402',-0.79
'0:05.406',-0.7
'0:05.410',-0.79
'0:05.414',-0.98
'0:05.418',-1.34
'0:05.422',-1.8
'0:05.426',-2.28
'0:05.430',-2.7
'0:05.434',-2.84
'0:05.438',-2.83
'0:05.441',-2.92
'0:05.445',-2.93
'0:05.449',-2.84
'0:05.453',-2.75
'0:05.457',-2.82
'0:05.461',-2.77
'0:05.465',-2.65
'0:05.469',-2.62
'0:05.473',-2.53
'0:05.477',-1.91
'0:05.480',-0.9
'0:05.484',0.81
'0:05.488',3.54
'0:05.492',7.03
'0:05.496',10.32
'0:05.500',12.5
'0:05.504',11.98
'0:05.508',7.45
'0:05.512',0.53
'0:05.516',-4.96
'0:05.520',-8.3
'0:05.523',-10.17
'0:05.527',-10.99
'0:05.531',-10.72
'0:05.535',-9.77
'0:05.539',-8.25
'0:05.543',-6.5
'0:05.547',-4.64
'0:05.551',-3.03
'0:05.555',-1.6
'0:05.559',-0.39
'0:05.563',0.54
'0:05.566',1.19
'0:05.570',1.67
'0:05.574',1.98
'0:05.578',2.23
'0:05.582',2.38
'0:05.586',2.49
'0:05.590',2.67
'0:05.594',2.7
'0:05.598',2.72
'0:05.602',2.8
'0:05.605',2.8
'0:05.609',2.76
'0:05.613',2.73
'0:05.617',2.82
'0:05.621',2.85
'0:05.625',2.91
'0:05.629',3.13
'0:05.633',3.3
'0:05.637',3.58
'0:05.641',3.83
'0:05.645',3.97
'0:05.648',3.98
'0:05.652',4.04
'0:05.656',4.14
'0:05.660',4.2
'0:05.664',4.12
'0:05.668',3.91
'0:05.672',3.81
'0:05.676',3.74
'0:05.680',3.5
'0:05.684',3.11
'0:05.688',2.74
'0:05.691',2.41
'0:05.695',2.27
'0:05.699',2.22
'0:05.703',2.21
'0:05.707',2.12
'0:05.711',2.18
'0:05.715',2.35
'0:05.719',2.41
'0:05.723',2.44
'0:05.727',2.31
'0:05.730',2.28
'0:05.734',2.39
'0:05.738',2.59
'0:05.742',2.73
'0:05.746',2.55
'0:05.750',2.28
'0:05.754',2.02
'0:05.758',1.69
'0:05.762',1.41
'0:05.766',1.13
'0:05.770',0.87
'0:05.773',0.68
'0:05.777',0.4
'0:05.781',-0.09
'0:05.785',-0.85
'0:05.789',-1.41
'0:05.793',-1.58
'0:05.797',-1.59
'0:05.801',-1.69
'0:05.805',-1.79
'0:05.809',-1.78
'0:05.813',-1.68
'0:05.816',-1.61
'0:05.820',-1.56
'0:05.824',-1.57
'0:05.828',-1.68
'0:05.832',-1.37
'0:05.836',-0.69
'0:05.840',0.31
'0:05.844',2.04
'0:05.848',4.51
'0:05.852',7.81
'0:05.855',11.04
'0:05.859',13.27
'0:05.863',12.79
'0:05.867',8.13
'0:05.871',1.2
'0:05.875',-4.5
'0:05.879',-8.06
'0:05.883',-10.02
'0:05.887',-10.83
'0:05.891',-10.73
'0:05.895',-9.97
'0:05.898',-8.47
'0:05.902',-6.65
'0:05.906',-4.93
'0:05.910',-3.36
'0:05.914',-2.02
'0:05.918',-0.87
'0:05.922',0.1
'0:05.926',0.58
'0:05.930',0.85
'0:05.934',1.03
'0:05.938',1.25
'0:05.941',1.3
'0:05.945',1.22
'0:05.949',1.28
'0:05.953',1.46
'0:05.957',1.63
'0:05.961',1.67
'0:05.965',1.57
'0:05.969',1.62
'0:05.973',1.75
'0:05.977',1.86
'0:05.980',2.25
'0:05.984',2.58
'0:05.988',2.93
'0:05.992',3.12
'0:05.996',3.13
'0:06.000',3.19
'0:06.004',3.22
'0:06.008',3.2
'0:06.012',3.32
'0:06.016',3.33
'0:06.020',3.18
'0:06.023',2.88
'0:06.027',2.69
'0:06.031',2.67
'0:06.035',2.29
'0:06.039',1.54
'0:06.043',0.8
'0:06.047',0.42
'0:06.051',0.19
'0:06.055',0.09
'0:06.059',0.03
'0:06.063',0.16
'0:06.066',0.43
'0:06.070',0.76
'0:06.074',0.98
'0:06.078',1.02
'0:06.082',1.24
'0:06.086',1.59
'0:06.090',1.68
'0:06.094',1.57
'0:06.098',1.42
'0:06.102',1.49
'0:06.105',1.51
'0:06.109',1.41
'0:06.113',1.21
'0:06.117',0.94
'0:06.121',0.68
'0:06.125',0.47
'0:06.129',0.2
'0:06.133',0.25
'0:06.137',0.31
'0:06.141',-0.1
'0:06.145',-0.52
'0:06.148',-0.74
'0:06.152',-1.07
'0:06.156',-1.62
'0:06.160',-2.03
'0:06.164',-2.28
'0:06.168',-2.41
'0:06.172',-2.35
'0:06.176',-2.17
'0:06.180',-2.28
'0:06.184',-2.47
'0:06.188',-2.56
'0:06.191',-2.43
'0:06.195',-2.04
'0:06.199',-1.37
'0:06.203',-0.43
'0:06.207',1.09
'0:06.211',3.62
'0:06.215',6.78
'0:06.219',9.39
'0:06.223',10.05
'0:06.227',6.92
'0:06.230',0.82
'0:06.234',-5.02
'0:06.238',-8.89
'0:06.242',-10.77
'0:06.246',-11.37
'0:06.250',-11.12
'0:06.254',-10.47
'0:06.258',-9.17
'0:06.262',-7.32
'0:06.266',-5.26
'0:06.270',-3.39
'0:06.273',-2.01
'0:06.277',-0.89
'0:06.281',0.33
'0:06.285',1.34
'0:06.289',2.25
'0:06.293',2.82
'0:06.297',3.06
'0:06.301',3.31
'0:06.305',3.65
'0:06.309',3.89
'0:06.313',3.99
'0:06.316',4.02
'0:06.320',3.89
'0:06.324',3.76
'0:06.328',3.79
'0:06.332',3.79
'0:06.336',3.82
'0:06.340',3.89
'0:06.344',3.98
'0:06.348',4.2
'0:06.352',4.33
'0:06.355',4.41
'0:06.359',4.43
'0:06.363',4.43
'0:06.367',4.33
'0:06.371',4.16
'0:06.375',3.92
'0:06.379',3.71
'0:06.383',3.48
'0:06.387',3.25
'0:06.391',2.99
'0:06.395',2.69
'0:06.398',2.38
'0:06.402',2.14
'0:06.406',1.72
'0:06.410',1.25
'0:06.414',0.89
'0:06.418',0.63
'0:06.422',0.38
'0:06.426',0.2
'0:06.430',0.12
'0:06.434',0.12
'0:06.438',0.15
'0:06.441',0.25
'0:06.445',0.32
'0:06.449',0.38
'0:06.453',0.5
'0:06.457',0.64
'0:06.461',0.73
'0:06.465',0.65
'0:06.469',0.54
'0:06.473',0.24
'0:06.477',-0.19
'0:06.480',-0.41
'0:06.484',-0.81
'0:06.488',-0.94
'0:06.492',-1.2
'0:06.496',-1.48
'0:06.500',-2.02
'0:06.504',-3.05
'0:06.508',-3.5
'0:06.512',-3.69
'0:06.516',-3.72
'0:06.520',-3.65
'0:06.523',-3.69
'0:06.527',-3.66
'0:06.531',-3.55
'0:06.535',-3.48
'0:06.539',-3.52
'0:06.543',-3.69
'0:06.547',-3.83
'0:06.551',-3.74
'0:06.555',-3.43
'0:06.559',-2.68
'0:06.563',-1.11
'0:06.566',1.66
'0:06.570',4.93
'0:06.574',7.6
'0:06.578',8.03
'0:06.582',4.8
'0:06.586',-1.15
'0:06.590',-6.78
'0:06.594',-10.32
'0:06.598',-12.04
'0:06.602',-12.45
'0:06.605',-12.76
'0:06.609',-12.35
'0:06.613',-11.36
'0:06.617',-9.68
'0:06.621',-7.83
'0:06.625',-6.14
'0:06.629',-4.58
'0:06.633',-3.32
'0:06.637',-2.38
'0:06.641',-1.72
'0:06.645',-1.21
'0:06.648',-0.89
'0:06.652',-0.51
'0:06.656',-0.16
'0:06.660',0.04
'0:06.664',0.22
'0:06.668',0.43
'0:06.672',0.62
'0:06.676',0.84
'0:06.680',1.06
'0:06.684',1.23
'0:06.688',1.33
'0:06.691',1.47
'0:06.695',1.64
'0:06.699',1.88
'0:06.703',2.13
'0:06.707',2.33
'0:06.711',2.52
'0:06.715',2.75
'0:06.719',2.89
'0:06.723',2.88
'0:06.727',2.85
'0:06.730',2.9
'0:06.734',2.96
'0:06.738',3.02
'0:06.742',2.95
'0:06.746',3.13
'0:06.750',3.21
'0:06.754',2.91
'0:06.758',2.72
'0:06.762',2.51
'0:06.766',2.04
'0:06.770',1.48
'0:06.773',1.06
'0:06.777',0.93
'0:06.781',0.88
'0:06.785',0.84
'0:06.789',0.72
'0:06.793',0.67
'0:06.797',0.48
'0:06.801',0.2
'0:06.805',-0.12
'0:06.809',-0.48
'0:06.813',-0.92
'0:06.816',-1.17
'0:06.820',-1.49
'0:06.824',-2.06
'0:06.828',-2.74
'0:06.832',-3.44
'0:06.836',-3.94
'0:06.840',-4.09
'0:06.844',-3.92
'0:06.848',-3.55
'0:06.852',-3.34
'0:06.855',-3.42
'0:06.859',-3.4
'0:06.863',-3.24
'0:06.867',-3.29
'0:06.871',-3.21
'0:06.875',-3.24
'0:06.879',-2.93
'0:06.883',-2.22
'0:06.887',-2.07
'0:06.891',-2.1
'0:06.895',-1.94
'0:06.898',-2.05
'0:06.902',-2.06
'0:06.906',-2.04
'0:06.910',-2.04
'0:06.914',-1.81
'0:06.918',-1.64
'0:06.922',-1.23
'0:06.926',0.17
'0:06.930',2.61
'0:06.934',5.6
'0:06.938',7.95
'0:06.941',7.91
'0:06.945',4.38
'0:06.949',-1.34
'0:06.953',-6.34
'0:06.957',-9.53
'0:06.961',-10.92
'0:06.965',-11.32
'0:06.969',-11.13
'0:06.973',-10.52
'0:06.977',-9.3
'0:06.980',-7.58
'0:06.984',-5.81
'0:06.988',-4.17
'0:06.992',-2.87
'0:06.996',-1.83
'0:07.000',-1.08
'0:07.004',-0.45
'0:07.008',-0.02
'0:07.012',0.21
'0:07.016',0.4
'0:07.020',0.62
'0:07.023',0.86
'0:07.027',1.02
'0:07.031',1.02
'0:07.035',1.03
'0:07.039',1.31
'0:07.043',1.88
'0:07.047',2.49
'0:07.051',3.02
'0:07.055',3.29
'0:07.059',3.29
'0:07.063',3.45
'0:07.066',3.78
'0:07.070',3.9
'0:07.074',3.82
'0:07.078',3.69
'0:07.082',3.58
'0:07.086',3.63
'0:07.090',3.66
'0:07.094',3.75
'0:07.098',3.75
'0:07.102',3.64
'0:07.105',3.58
'0:07.109',3.43
'0:07.113',3.1
'0:07.117',2.62
'0:07.121',2.15
'0:07.125',1.71
'0:07.129',1.28
'0:07.133',0.74
'0:07.137',0.35
'0:07.141',0.07
'0:07.145',-0.2
'0:07.148',-0.36
'0:07.152',-0.47
'0:07.156',-0.53
'0:07.160',-0.53
'0:07.164',-0.64
'0:07.168',-0.89
'0:07.172',-1.19
'0:07.176',-1.32
'0:07.180',-1.29
'0:07.184',-1.37
'0:07.188',-1.76
'0:07.191',-2.19
'0:07.195',-2.49
'0:07.199',-2.7
'0:07.203',-2.82
'0:07.207',-2.82
'0:07.211',-2.82
'0:07.215',-2.93
'0:07.219',-3.17
'0:07.223',-3.5
'0:07.227',-3.82
'0:07.230',-3.99
'0:07.234',-3.99
'0:07.238',-3.88
'0:07.242',-3.69
'0:07.246',-3.58
'0:07.250',-3.53
'0:07.254',-3.53
'0:07.258',-3.53
'0:07.262',-3.53
'0:07.266',-3.53
'0:07.270',-3.46
'0:07.273',-3.36
'0:07.277',-2.94
'0:07.281',-2.23
'0:07.285',-1.02
'0:07.289',1.08
'0:07.293',4.01
'0:07.297',7.1
'0:07.301',9.18
'0:07.305',8.28
'0:07.309',3.68
'0:07.313',-2.11
'0:07.316',-6.6
'0:07.320',-9.3
'0:07.324',-10.66
'0:07.328',-11.27
'0:07.332',-11.23
'0:07.336',-10.44
'0:07.340',-9.1
'0:07.344',-7.39
'0:07.348',-5.64
'0:07.352',-4.05
'0:07.355',-2.74
'0:07.359',-1.77
'0:07.363',-0.93
'0:07.367',-0.19
'0:07.371',0.3
'0:07.375',0.58
'0:07.379',0.65
'0:07.383',0.63
'0:07.387',0.67
'0:07.391',0.9
'0:07.395',1.26
'0:07.398',1.55
'0:07.402',1.61
'0:07.406',1.53
'0:07.410',1.44
'0:07.414',1.39
'0:07.418',1.45
'0:07.422',1.67
'0:07.426',1.95
'0:07.430',2.2
'0:07.434',2.45
'0:07.438',2.69
'0:07.441',2.84
'0:07.445',3.03
'0:07.449',3.2
'0:07.453',3.24
'0:07.457',3.33
'0:07.461',3.29
'0:07.465',3.18
'0:07.469',3.06
'0:07.473',2.94
'0:07.477',2.82
'0:07.480',2.54
'0:07.484',2.2
'0:07.488',1.89
'0:07.492',1.73
'0:07.496',1.63
'0:07.500',1.61
'0:07.504',1.56
'0:07.508',1.6
'0:07.512',1.8
'0:07.516',2.08
'0:07.520',2.28
'0:07.523',2.34
'0:07.527',2.26
'0:07.531',2.06
'0:07.535',1.93
'0:07.539',1.93
'0:07.543',2.28
'0:07.547',2.07
'0:07.551',1.62
'0:07.555',1.52
'0:07.559',1.42
'0:07.563',1.15
'0:07.566',0.65
'0:07.570',0.54
'0:07.574',0.35
'0:07.578',-0.26
'0:07.582',-0.93
'0:07.586',-1.42
'0:07.590',-1.87
'0:07.594',-2.06
'0:07.598',-2.14
'0:07.602',-2.13
'0:07.605',-1.92
'0:07.609',-1.6
'0:07.613',-1.28
'0:07.617',-0.94
'0:07.621',-0.68
'0:07.625',-0.49
'0:07.629',-0.39
'0:07.633',-0.44
'0:07.637',-0.22
'0:07.641',0.27
'0:07.645',1.24
'0:07.648',3.02
'0:07.652',5.81
'0:07.656',9.21
'0:07.660',12.28
'0:07.664',13.86
'0:07.668',11.96
'0:07.672',6.17
'0:07.676',-0.03
'0:07.680',-4.6
'0:07.684',-7.23
'0:07.688',-8.74
'0:07.691',-9.76
'0:07.695',-9.57
'0:07.699',-8.8
'0:07.703',-7.62
'0:07.707',-5.91
'0:07.711',-4.44
'0:07.715',-3.06
'0:07.719',-1.9
'0:07.723',-0.95
'0:07.727',-0.16
'0:07.730',0.39
'0:07.734',0.6
'0:07.738',0.72
'0:07.742',0.92
'0:07.746',1.27
'0:07.750',1.56
'0:07.754',1.72
'0:07.758',1.86
'0:07.762',1.88
'0:07.766',1.83
'0:07.770',1.83
'0:07.773',1.98
'0:07.777',2.26
'0:07.781',2.54
'0:07.785',2.61
'0:07.789',2.67
'0:07.793',2.91
'0:07.797',3.11
'0:07.801',3.25
'0:07.805',3.47
'0:07.809',3.6
'0:07.813',3.68
'0:07.816',3.83
'0:07.820',3.97
'0:07.824',4.02
'0:07.828',4
'0:07.832',3.87
'0:07.836',3.67
'0:07.840',3.42
'0:07.844',3.03
'0:07.848',2.67
'0:07.852',2.57
'0:07.855',2.51
'0:07.859',2.41
'0:07.863',2.39
'0:07.867',2.48
'0:07.871',2.61
'0:07.875',2.61
'0:07.879',2.61
'0:07.883',2.61
'0:07.887',2.56
'0:07.891',2.49
'0:07.895',2.33
'0:07.898',2.27
'0:07.902',2.27
'0:07.906',2.2
'0:07.910',2.03
'0:07.914',1.72
'0:07.918',1.55
'0:07.922',1.41
'0:07.926',1.21
'0:07.930',1.12
'0:07.934',1.01
'0:07.938',0.74
'0:07.941',0.33
'0:07.945',-0.14
'0:07.949',-0.7
'0:07.953',-1.26
'0:07.957',-1.59
'0:07.961',-1.76
'0:07.965',-1.88
'0:07.969',-2.02
'0:07.973',-2.07
'0:07.977',-2.08
'0:07.980',-2.11
'0:07.984',-2
'0:07.988',-2.02
'0:07.992',-2.11
'0:07.996',-2.11
'0:08.000',-1.72
'0:08.004',-1.03
'0:08.008',0.18
'0:08.012',2.08
'0:08.016',4.93
'0:08.020',8.21
'0:08.023',10.95
'0:08.027',11.74
'0:08.031',8.63
'0:08.035',2.3
'0:08.039',-3.89
'0:08.043',-7.96
'0:08.047',-10.05
'0:08.051',-10.95
'0:08.055',-10.96
'0:08.059',-10.32
'0:08.063',-9.1
'0:08.066',-7.53
'0:08.070',-5.93
'0:08.074',-4.48
'0:08.078',-3.16
'0:08.082',-2.04
'0:08.086',-1.2
'0:08.090',-0.6
'0:08.094',-0.13
'0:08.098',0.25
'0:08.102',0.47
'0:08.105',0.51
'0:08.109',0.49
'0:08.113',0.44
'0:08.117',0.44
'0:08.121',0.55
'0:08.125',0.64
'0:08.129',0.76
'0:08.133',0.88
'0:08.137',0.83
'0:08.141',0.89
'0:08.145',1.01
'0:08.148',1.22
'0:08.152',1.53
'0:08.156',1.77
'0:08.160',1.95
'0:08.164',2.02
'0:08.168',2.12
'0:08.172',2.14
'0:08.176',2.11
'0:08.180',2.16
'0:08.184',2.18
'0:08.188',2.1
'0:08.191',2.06
'0:08.195',1.96
'0:08.199',1.79
'0:08.203',1.55
'0:08.207',1.28
'0:08.211',0.88
'0:08.215',0.52
'0:08.219',0.33
'0:08.223',0.34
'0:08.227',0.47
'0:08.230',0.58
'0:08.234',0.72
'0:08.238',0.81
'0:08.242',0.87
'0:08.246',0.96
'0:08.250',1.06
'0:08.254',1.11
'0:08.258',1.17
'0:08.262',1.19
'0:08.266',1.29
'0:08.270',1.26
'0:08.273',1.11
'0:08.277',1.05
'0:08.281',1.06
'0:08.285',0.96
'0:08.289',0.75
'0:08.293',0.72
'0:08.297',0.79
'0:08.301',0.55
'0:08.305',0.27
'0:08.309',-0.14
'0:08.313',-0.69
'0:08.316',-1.17
'0:08.320',-1.29
'0:08.324',-1.38
'0:08.328',-1.44
'0:08.332',-1.44
'0:08.336',-1.52
'0:08.340',-1.71
'0:08.344',-1.91
'0:08.348',-2.13
'0:08.352',-2.44
'0:08.355',-2.56
'0:08.359',-2.45
'0:08.363',-2.22
'0:08.367',-1.55
'0:08.371',-0.17
'0:08.375',2.18
'0:08.379',5.18
'0:08.383',7.66
'0:08.387',7.79
'0:08.391',4.3
'0:08.395',-1.82
'0:08.398',-7.55
'0:08.402',-11.02
'0:08.406',-12.51
'0:08.410',-12.81
'0:08.414',-12.33
'0:08.418',-10.96
'0:08.422',-9.05
'0:08.426',-6.94
'0:08.430',-4.8
'0:08.434',-2.69
'0:08.438',-1.08
'0:08.441',0.11
'0:08.445',0.93
'0:08.449',1.6
'0:08.453',2.15
'0:08.457',2.8
'0:08.461',3.1
'0:08.465',3.38
'0:08.469',3.64
'0:08.473',3.34
'0:08.477',3.14
'0:08.480',3.35
'0:08.484',3.33
'0:08.488',3.24
'0:08.492',3.29
'0:08.496',3.09
'0:08.500',2.82
'0:08.504',2.66
'0:08.508',2.61
'0:08.512',2.69
'0:08.516',2.8
'0:08.520',2.72
'0:08.523',2.66
'0:08.527',2.79
'0:08.531',2.76
'0:08.535',2.56
'0:08.539',2.29
'0:08.543',2.06
'0:08.547',1.85
'0:08.551',1.78
'0:08.555',1.56
'0:08.559',1.16
'0:08.563',0.64
'0:08.566',0.09
'0:08.570',-0.47
'0:08.574',-1.09
'0:08.578',-1.52
'0:08.582',-1.63
'0:08.586',-1.52
'0:08.590',-1.35
'0:08.594',-1.14
'0:08.598',-0.83
'0:08.602',-0.36
'0:08.605',0.45
'0:08.609',1.42
'0:08.613',2.34
'0:08.617',2.95
'0:08.621',3.21
'0:08.625',3.17
'0:08.629',2.99
'0:08.633',2.86
'0:08.637',2.99
'0:08.641',3.27
'0:08.645',3.68
'0:08.648',3.99
'0:08.652',4.11
'0:08.656',4.06
'0:08.660',3.71
'0:08.664',3.28
'0:08.668',3.02
'0:08.672',2.75
'0:08.676',2.32
'0:08.680',1.9
'0:08.684',1.45
'0:08.688',0.92
'0:08.691',0.4
'0:08.695',-0.17
'0:08.699',-0.76
'0:08.703',-1.25
'0:08.707',-1.57
'0:08.711',-1.9
'0:08.715',-2.15
'0:08.719',-2.19
'0:08.723',-2.03
'0:08.727',-1.69
'0:08.730',-0.81
'0:08.734',1.06
'0:08.738',3.91
'0:08.742',6.61
'0:08.746',7.64
'0:08.750',5.37
'0:08.754',0.19
'0:08.758',-5.64
'0:08.762',-9.81
'0:08.766',-11.93
'0:08.770',-12.6
'0:08.773',-12.55
'0:08.777',-11.92
'0:08.781',-10.67
'0:08.785',-8.8
'0:08.789',-6.7
'0:08.793',-5.02
'0:08.797',-5.02
'0:08.801',-0.81
'0:08.805',-0.09
'0:08.809',0.27
'0:08.813',0.69
'0:08.816',1.03
'0:08.820',1.34
'0:08.824',1.66
'0:08.828',1.89
'0:08.832',2.02
'0:08.836',2.12
'0:08.840',2.1
'0:08.844',2.14
'0:08.848',2.19
'0:08.852',2.22
'0:08.855',2.24
'0:08.859',2.28
'0:08.863',2.31
'0:08.867',2.41
'0:08.871',2.41
'0:08.875',2.37
'0:08.879',2.39
'0:08.883',2.41
'0:08.887',2.36
'0:08.891',2.29
'0:08.895',2.17
'0:08.898',2.12
'0:08.902',2.01
'0:08.906',1.84
'0:08.910',1.69
'0:08.914',1.52
'0:08.918',1.24
'0:08.922',0.88
'0:08.926',0.51
'0:08.930',0.11
'0:08.934',-0.34
'0:08.938',-0.67
'0:08.941',-0.78
'0:08.945',-0.8
'0:08.949',-0.73
'0:08.953',-0.64
'0:08.957',-0.56
'0:08.961',-0.63
'0:08.965',-0.63
'0:08.969',-0.61
'0:08.973',-0.72
'0:08.977',-0.85
'0:08.980',-0.9
'0:08.984',-0.86
'0:08.988',-0.85
'0:08.992',-0.98
'0:08.996',-1.17
'0:09.000',-1.33
'0:09.004',-1.58
'0:09.008',-1.75
'0:09.012',-1.73
'0:09.016',-1.77
'0:09.020',-2.01
'0:09.023',-2.36
'0:09.027',-2.75
'0:09.031',-3.2
'0:09.035',-3.56
'0:09.039',-3.83
'0:09.043',-3.98
'0:09.047',-4.02
'0:09.051',-3.91
'0:09.055',-3.67
'0:09.059',-3.45
'0:09.063',-3.34
'0:09.066',-3.34
'0:09.070',-3.2
'0:09.074',-2.84
'0:09.078',-2.44
'0:09.082',-2.19
'0:09.086',-1.57
'0:09.090',-0.42
'0:09.094',1.57
'0:09.098',4.42
'0:09.102',7.24
'0:09.105',8.74
'0:09.109',7.59
'0:09.113',3.01
'0:09.117',-3.04
'0:09.121',-7.64
'0:09.125',-10.27
'0:09.129',-11.31
'0:09.133',-11.61
'0:09.137',-11.42
'0:09.141',-10.78
'0:09.145',-9.61
'0:09.148',-8.25
'0:09.152',-6.9
'0:09.156',-5.82
'0:09.160',-4.96
'0:09.164',-4.14
'0:09.168',-3.65
'0:09.172',-3.34
'0:09.176',-2.93
'0:09.180',-2.35
'0:09.184',-1.68
'0:09.188',-0.85
'0:09.191',0.07
'0:09.195',0.81
'0:09.199',1.36
'0:09.203',1.8
'0:09.207',2.3
'0:09.211',2.76
'0:09.215',2.99
'0:09.219',3.31
'0:09.223',3.64
'0:09.227',3.79
'0:09.230',4.08
'0:09.234',4.1
'0:09.238',4.05
'0:09.242',3.89
'0:09.246',3.76
'0:09.250',3.63
'0:09.254',3.58
'0:09.258',3.56
'0:09.262',3.53
'0:09.266',3.56
'0:09.270',3.4
'0:09.273',2.91
'0:09.277',2.28
'0:09.281',1.81
'0:09.285',1.59
'0:09.289',1.3
'0:09.293',1.12
'0:09.297',0.71
'0:09.301',0.22
'0:09.305',-0.08
'0:09.309',-0.27
'0:09.313',-0.22
'0:09.316',-0.08
'0:09.320',-0.03
'0:09.324',0.07
'0:09.328',0.11
'0:09.332',0.03
'0:09.336',0.04
'0:09.340',0.11
'0:09.344',0.31
'0:09.348',0.57
'0:09.352',0.69
'0:09.355',0.65
'0:09.359',0.4
'0:09.363',0.23
'0:09.367',0.26
'0:09.371',0.43
'0:09.375',0.6
'0:09.379',0.62
'0:09.383',0.41
'0:09.387',0.16
'0:09.391',-0.06
'0:09.395',-0.06
'0:09.398',-0.13
'0:09.402',-0.14
'0:09.406',0.04
'0:09.410',0.32
'0:09.414',0.57
'0:09.418',0.61
'0:09.422',0.6
'0:09.426',0.57
'0:09.430',0.3
'0:09.434',-0.09
'0:09.438',-0.34
'0:09.441',-0.14
'0:09.445',0.28
'0:09.449',0.65
'0:09.453',1.58
'0:09.457',3.32
'0:09.461',6.14
'0:09.465',9.07
'0:09.469',10.94
'0:09.473',9.68
'0:09.477',4.79
'0:09.480',-1.21
'0:09.484',-5.89
'0:09.488',-8.82
'0:09.492',-10.26
'0:09.496',-10.89
'0:09.500',-10.86
'0:09.504',-10.07
'0:09.508',-8.9
'0:09.512',-7.4
'0:09.516',-5.84
'0:09.520',-4.46
'0:09.523',-3.4
'0:09.527',-2.58
'0:09.531',-1.99
'0:09.535',-1.49
'0:09.539',-1.13
'0:09.543',-0.91
'0:09.547',-0.74
'0:09.551',-0.73
'0:09.555',-0.73
'0:09.559',-0.52
'0:09.563',0
'0:09.566',0.2
'0:09.570',0.22
'0:09.574',0.28
'0:09.578',0.48
'0:09.582',0.69
'0:09.586',0.88
'0:09.590',0.83
'0:09.594',1.06
'0:09.598',1.14
'0:09.602',1.16
'0:09.605',1.23
'0:09.609',1.49
'0:09.613',1.7
'0:09.617',1.67
'0:09.621',1.61
'0:09.625',1.68
'0:09.629',1.59
'0:09.633',1.51
'0:09.637',1.46
'0:09.641',1.54
'0:09.645',1.41
'0:09.648',1.02
'0:09.652',0.71
'0:09.656',0.33
'0:09.660',-0.1
'0:09.664',-0.37
'0:09.668',-0.36
'0:09.672',-0.27
'0:09.676',-0.26
'0:09.680',-0.33
'0:09.684',-0.34
'0:09.688',-0.27
'0:09.691',-0.08
'0:09.695',-0.07
'0:09.699',-0.23
'0:09.703',-0.38
'0:09.707',-0.43
'0:09.711',-0.24
'0:09.715',-0.33
'0:09.719',-0.45
'0:09.723',-0.68
'0:09.727',-0.83
'0:09.730',-1.03
'0:09.734',-1.3
'0:09.738',-1.45
'0:09.742',-1.61
'0:09.746',-1.97
'0:09.750',-2.25
'0:09.754',-2.68
'0:09.758',-2.96
'0:09.762',-3.15
'0:09.766',-3.49
'0:09.770',-3.88
'0:09.773',-3.99
'0:09.777',-3.93
'0:09.781',-3.65
'0:09.785',-3.41
'0:09.789',-3.32
'0:09.793',-3.2
'0:09.797',-2.99
'0:09.801',-2.76
'0:09.805',-2.59
'0:09.809',-2.18
'0:09.813',-1.32
'0:09.816',0.33
'0:09.820',2.57
'0:09.824',3.85
'0:09.828',9.76
'0:09.832',11.87
'0:09.836',11.47
'0:09.840',7.15
'0:09.844',0.3
'0:09.848',-5.31
'0:09.852',-8.83
'0:09.855',-10.93
'0:09.859',-11.79
'0:09.863',-11.79
'0:09.867',-11.04
'0:09.871',-9.78
'0:09.875',-8.05
'0:09.879',-6.2
'0:09.883',-4.63
'0:09.887',-3.38
'0:09.891',-2.32
'0:09.895',-1.48
'0:09.898',-0.81
'0:09.902',-0.21
'0:09.906',0.11
'0:09.910',0.34
'0:09.914',0.39
'0:09.918',0.31
'0:09.922',0.14
'0:09.926',0.34
'0:09.930',0.51
'0:09.934',0.33
'0:09.938',-0.14
'0:09.941',-0.39
'0:09.945',-0.17
'0:09.949',0.12
'0:09.953',0.37
'0:09.957',0.83
'0:09.961',1.11
'0:09.965',1.58
'0:09.969',1.99
'0:09.973',2.23
'0:09.977',2.47
'0:09.980',2.83
'0:09.984',3.13
'0:09.988',3.12
'0:09.992',3.07
'0:09.996',3.17
'0:10.000',3.21
'0:10.004',3.23
'0:10.008',2.85
'0:10.012',2.48
'0:10.016',1.98
'0:10.020',1.63
'0:10.023',1.49
'0:10.027',1.22
'0:10.031',0.97
'0:10.035',0.56
'0:10.039',0.32
'0:10.043',0.38
'0:10.047',0.64
'0:10.051',0.9
'0:10.055',0.93
'0:10.059',0.85
'0:10.063',0.8
'0:10.066',0.78
'0:10.070',0.87
'0:10.074',0.72
'0:10.078',0.47
'0:10.082',0.37
'0:10.086',0.38
'0:10.090',-0.03
'0:10.094',-0.35
'0:10.098',-0.64
'0:10.102',-0.67
'0:10.105',-1.32
'0:10.109',-1.81
'0:10.113',-1.78
'0:10.117',-2.09
'0:10.121',-2.52
'0:10.125',-3.01
'0:10.129',-3.33
'0:10.133',-3.35
'0:10.137',-3.36
'0:10.141',-3.11
'0:10.145',-2.91
'0:10.148',-2.68
'0:10.152',-2.8
'0:10.156',-3.13
'0:10.160',-3.1
'0:10.164',-2.91
'0:10.168',-2.54
'0:10.172',-1.79
'0:10.176',-0.39
'0:10.180',1.57
'0:10.184',4.45
'0:10.188',8.16
'0:10.191',11.65
'0:10.195',14.08
'0:10.199',13.84
'0:10.203',9.62
'0:10.207',3.09
'0:10.211',-2.55
'0:10.215',-6.41
'0:10.219',-8.92
'0:10.223',-9.84
'0:10.227',-10.19
'0:10.230',-10.11
'0:10.234',-9.05
'0:10.238',-7.32
'0:10.242',-5.76
'0:10.246',-4.41
'0:10.250',-3.12
'0:10.254',-1.92
'0:10.258',-0.99
'0:10.262',-0.27
'0:10.266',0.21
'0:10.270',0.61
'0:10.273',0.9
'0:10.277',0.51
'0:10.281',0.33
'0:10.285',0.8
'0:10.289',1.17
'0:10.293',1.26
'0:10.297',0.97
'0:10.301',0.81
'0:10.305',0.94
'0:10.309',1.16
'0:10.313',1.46
'0:10.316',1.64
'0:10.320',1.88
'0:10.324',2.27
'0:10.328',2.57
'0:10.332',2.72
'0:10.336',2.63
'0:10.340',2.62
'0:10.344',2.78
'0:10.348',2.95
'0:10.352',2.86
'0:10.355',2.72
'0:10.359',2.61
'0:10.363',2.62
'0:10.367',2.43
'0:10.371',2.19
'0:10.375',1.85
'0:10.379',1.55
'0:10.383',1.41
'0:10.387',1.35
'0:10.391',1.29
'0:10.395',1.23
'0:10.398',1.27
'0:10.402',1.41
'0:10.406',1.55
'0:10.410',1.75
'0:10.414',1.88
'0:10.418',2.04
'0:10.422',2.3
'0:10.426',2.49
'0:10.430',2.53
'0:10.434',2.69
'0:10.438',2.87
'0:10.441',2.79
'0:10.445',2.53
'0:10.449',2.25
'0:10.453',1.94
'0:10.457',1.67
'0:10.461',1.7
'0:10.465',1.63
'0:10.469',1.24
'0:10.473',0.8
'0:10.477',0.39
'0:10.480',-0.11
'0:10.484',-0.7
'0:10.488',-1.22
'0:10.492',-1.57
'0:10.496',-1.73
'0:10.500',-1.75
'0:10.504',-1.78
'0:10.508',-1.85
'0:10.512',-1.9
'0:10.516',-1.95
'0:10.520',-2.04
'0:10.523',-2.21
'0:10.527',-2.34
'0:10.531',-2.23
'0:10.535',-1.85
'0:10.539',-1.34
'0:10.543',-0.16
'0:10.547',2.04
'0:10.551',5.19
'0:10.555',8.63
'0:10.559',11.42
'0:10.563',12.63
'0:10.566',10.18
'0:10.570',4.21
'0:10.574',-1.65
'0:10.578',-5.66
'0:10.582',-8.04
'0:10.586',-9.46
'0:10.590',-10.04
'0:10.594',-9.89
'0:10.598',-8.99
'0:10.602',-7.38
'0:10.605',-5.73
'0:10.609',-4.24
'0:10.613',-2.83
'0:10.617',-1.69
'0:10.621',-0.91
'0:10.625',-0.29
'0:10.629',0.15
'0:10.633',0.43
'0:10.637',0.73
'0:10.641',1.1
'0:10.645',1.35
'0:10.648',1.49
'0:10.652',1.62
'0:10.656',1.73
'0:10.660',1.88
'0:10.664',2.22
'0:10.668',2.61
'0:10.672',2.97
'0:10.676',3.1
'0:10.680',3.26
'0:10.684',3.29
'0:10.688',3.2
'0:10.691',3.17
'0:10.695',3.43
'0:10.699',3.6
'0:10.703',3.61
'0:10.707',3.54
'0:10.711',3.38
'0:10.715',3.25
'0:10.719',3.04
'0:10.723',2.79
'0:10.727',2.48
'0:10.730',2.13
'0:10.734',1.92
'0:10.738',1.86
'0:10.742',1.77
'0:10.746',1.77
'0:10.750',1.94
'0:10.754',2.24
'0:10.758',2.56
'0:10.762',2.88
'0:10.766',3.06
'0:10.770',3.2
'0:10.773',3.31
'0:10.777',3.2
'0:10.781',3.14
'0:10.785',3.08
'0:10.789',3.09
'0:10.793',3.22
'0:10.797',3.23
'0:10.801',2.97
'0:10.805',2.37
'0:10.809',1.72
'0:10.813',1.22
'0:10.816',0.96
'0:10.820',0.76
'0:10.824',0.71
'0:10.828',0.76
'0:10.832',0.52
'0:10.836',0.16
'0:10.840',-0.44
'0:10.844',-1.16
'0:10.848',-1.65
'0:10.852',-1.91
'0:10.855',-2.05
'0:10.859',-2.18
'0:10.863',-2.35
'0:10.867',-2.37
'0:10.871',-2.35
'0:10.875',-2.54
'0:10.879',-2.83
'0:10.883',-3.07
'0:10.887',-3.08
'0:10.891',-2.73
'0:10.895',-1.98
'0:10.898',-0.67
'0:10.902',1.49
'0:10.906',4.36
'0:10.910',7.21
'0:10.914',8.94
'0:10.918',7.25
'0:10.922',1.72
'0:10.926',-4.8
'0:10.930',-9.35
'0:10.934',-11.74
'0:10.938',-12.74
'0:10.941',-12.62
'0:10.945',-11.83
'0:10.949',-10.59
'0:10.953',-8.94
'0:10.957',-7.12
'0:10.961',-5.17
'0:10.965',-3.49
'0:10.969',-2.27
'0:10.973',-1.45
'0:10.977',-0.79
'0:10.980',-0.04
'0:10.984',0.76
'0:10.988',1.59
'0:10.992',2.35
'0:10.996',3.09
'0:11.000',3.75
'0:11.004',4.48
'0:11.008',5.29
'0:11.012',6.03
'0:11.016',6.63
'0:11.020',7.09
'0:11.023',7.48
'0:11.027',7.83
'0:11.031',8.01
'0:11.035',8.06
'0:11.039',7.97
'0:11.043',7.83
'0:11.047',7.64
'0:11.051',7.51
'0:11.055',7.29
'0:11.059',7.05
'0:11.063',6.77
'0:11.066',6.42
'0:11.070',5.95
'0:11.074',5.44
'0:11.078',4.95
'0:11.082',4.49
'0:11.086',3.96
'0:11.090',3.4
'0:11.094',2.83
'0:11.098',2.29
'0:11.102',1.8
'0:11.105',1.39
'0:11.109',1
'0:11.113',0.61
'0:11.117',0.31
'0:11.121',0.2
'0:11.125',0.26
'0:11.129',0.36
'0:11.133',0.47
'0:11.137',0.55
'0:11.141',0.56
'0:11.145',0.54
'0:11.148',0.51
'0:11.152',0.51
'0:11.156',0.49
'0:11.160',0.54
'0:11.164',0.59
'0:11.168',0.57
'0:11.172',0.38
'0:11.176',0.02
'0:11.180',-0.37
'0:11.184',-0.62
'0:11.188',-0.7
'0:11.191',-0.7
'0:11.195',-0.81
'0:11.199',-1.14
'0:11.203',-1.65
'0:11.207',-2.17
'0:11.211',-2.63
'0:11.215',-2.95
'0:11.219',-3.07
'0:11.223',-3.14
'0:11.227',-3.14
'0:11.230',-3.2
'0:11.234',-3.3
'0:11.238',-3.31
'0:11.242',-3.31
'0:11.246',-3.35
'0:11.250',-3.49
'0:11.254',-3.67
'0:11.258',-3.59
'0:11.262',-3.33
'0:11.266',-2.72
'0:11.270',-1.48
'0:11.273',0.97
'0:11.277',4.22
'0:11.281',7.1
'0:11.285',8.07
'0:11.289',5.44
'0:11.293',-0.14
'0:11.297',-5.65
'0:11.301',-9.36
'0:11.305',-11.12
'0:11.309',-11.76
'0:11.313',-11.8
'0:11.316',-11.25
'0:11.320',-10.08
'0:11.324',-8.43
'0:11.328',-6.74
'0:11.332',-5.22
'0:11.336',-3.87
'0:11.340',-2.76
'0:11.344',-1.88
'0:11.348',-1.25
'0:11.352',-0.73
'0:11.355',-0.36
'0:11.359',-0.11
'0:11.363',-0.01
'0:11.367',0.1
'0:11.371',0.14
'0:11.375',0.26
'0:11.379',0.37
'0:11.383',0.52
'0:11.387',0.72
'0:11.391',0.76
'0:11.395',0.82
'0:11.398',0.92
'0:11.402',1
'0:11.406',1.02
'0:11.410',1.1
'0:11.414',1.22
'0:11.418',1.36
'0:11.422',1.64
'0:11.426',1.89
'0:11.430',2.09
'0:11.434',2.28
'0:11.438',2.54
'0:11.441',2.82
'0:11.445',2.94
'0:11.449',3
'0:11.453',3
'0:11.457',3.02
'0:11.461',3.03
'0:11.465',3
'0:11.469',2.91
'0:11.473',2.74
'0:11.477',2.52
'0:11.480',2.3
'0:11.484',1.97
'0:11.488',1.58
'0:11.492',1.33
'0:11.496',1.11
'0:11.500',0.97
'0:11.504',0.87
'0:11.508',0.51
'0:11.512',0.24
'0:11.516',0.12
'0:11.520',0.22
'0:11.523',0
'0:11.527',-0.55
'0:11.531',-1.38
'0:11.535',-2.63
'0:11.539',-4
'0:11.543',-4.82
'0:11.547',-5.04
'0:11.551',-4.93
'0:11.555',-4.71
'0:11.559',-4.57
'0:11.563',-4.48
'0:11.566',-4.44
'0:11.570',-4.3
'0:11.574',-4.04
'0:11.578',-3.51
'0:11.582',-2.87
'0:11.586',-2.07
'0:11.590',-1.13
'0:11.594',-0.14
'0:11.598',0.8
'0:11.602',1.63
'0:11.605',2.35
'0:11.609',2.93
'0:11.613',3.08
'0:11.617',2.95
'0:11.621',2.82
'0:11.625',2.55
'0:11.629',2.65
'0:11.633',3.52
'0:11.637',5.5
'0:11.641',7.85
'0:11.645',9.15
'0:11.648',8.33
'0:11.652',4.27
'0:11.656',-1.4
'0:11.660',-6.01
'0:11.664',-8.71
'0:11.668',-9.71
'0:11.672',-9.91
'0:11.676',-9.57
'0:11.680',-8.88
'0:11.684',-7.68
'0:11.688',-6.01
'0:11.691',-4.17
'0:11.695',-2.31
'0:11.699',-0.75
'0:11.703',0.28
'0:11.707',0.93
'0:11.711',1.46
'0:11.715',1.88
'0:11.719',2.2
'0:11.723',2.38
'0:11.727',2.44
'0:11.730',2.4
'0:11.734',2.34
'0:11.738',2.41
'0:11.742',2.64
'0:11.746',2.99
'0:11.750',3.58
'0:11.754',4.03
'0:11.758',4.27
'0:11.762',4.45
'0:11.766',4.51
'0:11.770',4.58
'0:11.773',4.75
'0:11.777',4.93
'0:11.781',5.07
'0:11.785',5.2
'0:11.789',5.46
'0:11.793',5.79
'0:11.797',6.03
'0:11.801',6.19
'0:11.805',6.32
'0:11.809',6.46
'0:11.813',6.48
'0:11.816',6.32
'0:11.820',6.08
'0:11.824',5.74
'0:11.828',5.33
'0:11.832',4.84
'0:11.836',4.38
'0:11.840',3.9
'0:11.844',3.46
'0:11.848',2.96
'0:11.852',2.4
'0:11.855',1.9
'0:11.859',1.46
'0:11.863',0.97
'0:11.867',0.48
'0:11.871',0.07
'0:11.875',-0.32
'0:11.879',-0.69
'0:11.883',-1.06
'0:11.887',-1.4
'0:11.891',-1.67
'0:11.895',-1.96
'0:11.898',-2.35
'0:11.902',-2.69
'0:11.906',-3.05
'0:11.910',-3.3
'0:11.914',-3.34
'0:11.918',-3.35
'0:11.922',-3.5
'0:11.926',-3.76
'0:11.930',-4.19
'0:11.934',-4.72
'0:11.938',-5.18
'0:11.941',-5.34
'0:11.945',-5.34
'0:11.949',-5.33
'0:11.953',-4.85
'0:11.957',-4.65
'0:11.961',-4.57
'0:11.965',-4.42
'0:11.969',-4.29
'0:11.973',-4.21
'0:11.977',-4.3
'0:11.980',-4.25
'0:11.984',-3.99
'0:11.988',-3.55
'0:11.992',-2.8
'0:11.996',-1.46
'0:12.000',0.77
'0:12.004',3.68
'0:12.008',6.25
'0:12.012',7.3
'0:12.016',4.94
'0:12.020',-0.26
'0:12.023',-5.2
'0:12.027',-8.69
'0:12.031',-10.72
'0:12.035',-11.56
'0:12.039',-11.7
'0:12.043',-11.28
'0:12.047',-10.47
'0:12.051',-9.11
'0:12.055',-7.37
'0:12.059',-5.6
'0:12.063',-4.08
'0:12.066',-2.87
'0:12.070',-1.85
'0:12.074',-0.96
'0:12.078',-0.28
'0:12.082',0.16
'0:12.086',0.4
'0:12.090',0.53
'0:12.094',0.63
'0:12.098',0.74
'0:12.102',0.87
'0:12.105',0.97
'0:12.109',1.03
'0:12.113',1.07
'0:12.117',1.12
'0:12.121',1.19
'0:12.125',1.22
'0:12.129',1.15
'0:12.133',1.12
'0:12.137',1.23
'0:12.141',1.41
'0:12.145',1.62
'0:12.148',1.77
'0:12.152',1.8
'0:12.156',1.9
'0:12.160',2.06
'0:12.164',2.24
'0:12.168',2.33
'0:12.172',2.29
'0:12.176',2.13
'0:12.180',2.12
'0:12.184',2.12
'0:12.188',2.05
'0:12.191',1.87
'0:12.195',1.47
'0:12.199',1.23
'0:12.203',1.03
'0:12.207',0.97
'0:12.211',0.95
'0:12.215',1.02
'0:12.219',1.14
'0:12.223',1.26
'0:12.227',1.43
'0:12.230',1.6
'0:12.234',1.74
'0:12.238',1.75
'0:12.242',1.7
'0:12.246',1.68
'0:12.250',1.7
'0:12.254',1.64
'0:12.258',1.54
'0:12.262',1.27
'0:12.266',0.8
'0:12.270',0.42
'0:12.273',0.35
'0:12.277',0.48
'0:12.281',0.36
'0:12.285',-0.15
'0:12.289',-0.78
'0:12.293',-1.3
'0:12.297',-2.04
'0:12.301',-2.42
'0:12.305',-2.44
'0:12.309',-2.5
'0:12.313',-2.69
'0:12.316',-2.78
'0:12.320',-2.82
'0:12.324',-2.81
'0:12.328',-2.69
'0:12.332',-2.56
'0:12.336',-2.42
'0:12.340',-2.19
'0:12.344',-1.91
'0:12.348',-1.53
'0:12.352',-1.05
'0:12.355',-0.06
'0:12.359',1.43
'0:12.363',3.58
'0:12.367',6.51
'0:12.371',9.42
'0:12.375',11.31
'0:12.379',9.78
'0:12.383',4.66
'0:12.387',-1.2
'0:12.391',-5.6
'0:12.395',-8.16
'0:12.398',-9.62
'0:12.402',-10.17
'0:12.406',-10.06
'0:12.410',-8.92
'0:12.414',-7.37
'0:12.418',-6.05
'0:12.422',-4.59
'0:12.426',-3.38
'0:12.430',-2.36
'0:12.434',-1.34
'0:12.438',-0.51
'0:12.441',-0.13
'0:12.445',-0.04
'0:12.449',-0.05
'0:12.453',0.18
'0:12.457',0.41
'0:12.461',0.45
'0:12.465',0.54
'0:12.469',0.6
'0:12.473',0.52
'0:12.477',0.65
'0:12.480',0.92
'0:12.484',1.07
'0:12.488',1.01
'0:12.492',0.78
'0:12.496',0.57
'0:12.500',0.7
'0:12.504',0.96
'0:12.508',1.3
'0:12.512',1.74
'0:12.516',2.02
'0:12.520',2.11
'0:12.523',2.03
'0:12.527',1.86
'0:12.531',1.86
'0:12.535',1.8
'0:12.539',1.74
'0:12.543',1.61
'0:12.547',1.54
'0:12.551',1.28
'0:12.555',0.98
'0:12.559',0.73
'0:12.563',0.4
'0:12.566',0.25
'0:12.570',0.27
'0:12.574',0.44
'0:12.578',0.68
'0:12.582',0.76
'0:12.586',0.82
'0:12.590',0.89
'0:12.594',0.98
'0:12.598',1.25
'0:12.602',1.48
'0:12.605',1.65
'0:12.609',1.76
'0:12.613',1.84
'0:12.617',1.97
'0:12.621',2.14
'0:12.625',2.2
'0:12.629',2.1
'0:12.633',1.89
'0:12.637',1.53
'0:12.641',1.12
'0:12.645',0.87
'0:12.648',0.53
'0:12.652',0.24
'0:12.656',-0.08
'0:12.660',-0.56
'0:12.664',-1.09
'0:12.668',-1.61
'0:12.672',-2.07
'0:12.676',-2.42
'0:12.680',-2.72
'0:12.684',-2.89
'0:12.688',-3.03
'0:12.691',-3.14
'0:12.695',-3.14
'0:12.699',-3.18
'0:12.703',-3.28
'0:12.707',-3.43
'0:12.711',-3.44
'0:12.715',-3.1
'0:12.719',-2.48
'0:12.723',-1.31
'0:12.727',0.57
'0:12.730',3.34
'0:12.734',6.48
'0:12.738',9
'0:12.742',9.55
'0:12.746',6.16
'0:12.750',-0.12
'0:12.754',-5.92
'0:12.758',-9.84
'0:12.762',-11.93
'0:12.766',-12.79
'0:12.770',-12.78
'0:12.773',-12.14
'0:12.777',-10.94
'0:12.781',-9.31
'0:12.785',-7.53
'0:12.789',-5.94
'0:12.793',-4.64
'0:12.797',-3.56
'0:12.801',-2.72
'0:12.805',-2.11
'0:12.809',-1.78
'0:12.813',-1.54
'0:12.816',-1.3
'0:12.820',-1.1
'0:12.824',-0.87
'0:12.828',-0.66
'0:12.832',-0.56
'0:12.836',-0.58
'0:12.840',-0.66
'0:12.844',-0.61
'0:12.848',-0.56
'0:12.852',-0.47
'0:12.855',-0.31
'0:12.859',-0.24
'0:12.863',-0.17
'0:12.867',-0.01
'0:12.871',0.19
'0:12.875',0.4
'0:12.879',0.64
'0:12.883',0.84
'0:12.887',0.93
'0:12.891',0.9
'0:12.895',0.83
'0:12.898',0.76
'0:12.902',0.76
'0:12.906',0.68
'0:12.910',0.66
'0:12.914',0.61
'0:12.918',0.45
'0:12.922',0.3
'0:12.926',0.16
'0:12.930',-0.12
'0:12.934',-0.38
'0:12.938',-0.46
'0:12.941',-0.39
'0:12.945',-0.25
'0:12.949',-0.08
'0:12.953',0.14
'0:12.957',0.38
'0:12.961',0.51
'0:12.965',0.47
'0:12.969',0.35
'0:12.973',0.36
'0:12.977',0.51
'0:12.980',0.65
'0:12.984',0.68
'0:12.988',0.48
'0:12.992',0.12
'0:12.996',-0.21
'0:13.000',-0.45
'0:13.004',-0.58
'0:13.008',-0.58
'0:13.012',-0.53
'0:13.016',-0.58
'0:13.020',-0.62
'0:13.023',-0.71
'0:13.027',-0.8
'0:13.031',-0.91
'0:13.035',-1.06
'0:13.039',-1.13
'0:13.043',-1.23
'0:13.047',-1.29
'0:13.051',-1.32
'0:13.055',-1.26
'0:13.059',-1.21
'0:13.063',-1.44
'0:13.066',-1.78
'0:13.070',-2.2
'0:13.074',-2.27
'0:13.078',-2.05
'0:13.082',-1.61
'0:13.086',-0.64
'0:13.090',1.25
'0:13.094',4.01
'0:13.098',6.85
'0:13.102',8.09
'0:13.105',6.11
'0:13.109',1.04
'0:13.113',-4.46
'0:13.117',-8.04
'0:13.121',-9.64
'0:13.125',-9.73
'0:13.129',-9.17
'0:13.133',-8.21
'0:13.137',-6.76
'0:13.141',-5.01
'0:13.145',-3.16
'0:13.148',-1.53
'0:13.152',-0.09
'0:13.156',1.24
'0:13.160',2.43
'0:13.164',3.3
'0:13.168',3.89
'0:13.172',4.19
'0:13.176',4.34
'0:13.180',4.33
'0:13.184',4.06
'0:13.188',3.65
'0:13.191',3.39
'0:13.195',3.54
'0:13.199',3.79
'0:13.203',3.8
'0:13.207',3.8
'0:13.211',3.2
'0:13.215',3.21
'0:13.219',3.32
'0:13.223',3.43
'0:13.227',3.52
'0:13.230',3.71
'0:13.234',4.05
'0:13.238',4.33
'0:13.242',4.55
'0:13.246',4.66
'0:13.250',4.59
'0:13.254',4.38
'0:13.258',4.01
'0:13.262',3.71
'0:13.266',3.47
'0:13.270',3.21
'0:13.273',2.89
'0:13.277',2.64
'0:13.281',2.42
'0:13.285',2.17
'0:13.289',1.77
'0:13.293',1.41
'0:13.297',1.15
'0:13.301',1.03
'0:13.305',0.98
'0:13.309',1.07
'0:13.313',1.35
'0:13.316',1.58
'0:13.320',1.64
'0:13.324',1.72
'0:13.328',2.01
'0:13.332',2.49
'0:13.336',3
'0:13.340',3.53
'0:13.344',3.96
'0:13.348',4.21
'0:13.352',4.13
'0:13.355',3.85
'0:13.359',3.38
'0:13.363',3.12
'0:13.367',3.18
'0:13.371',3.3
'0:13.375',3.21
'0:13.379',2.87
'0:13.383',2.43
'0:13.387',2
'0:13.391',1.53
'0:13.395',1.25
'0:13.398',1.06
'0:13.402',1
'0:13.406',1
'0:13.410',0.98
'0:13.414',0.86
'0:13.418',0.6
'0:13.422',0.29
'0:13.426',-0.1
'0:13.430',-0.48
'0:13.434',-0.76
'0:13.438',-0.87
'0:13.441',-0.74
'0:13.445',-0.2
'0:13.449',1.06
'0:13.453',3.27
'0:13.457',6.18
'0:13.461',8.86
'0:13.465',9.73
'0:13.469',7.26
'0:13.473',1.83
'0:13.477',-4.01
'0:13.480',-8.23
'0:13.484',-10.35
'0:13.488',-10.98
'0:13.492',-10.85
'0:13.496',-10.21
'0:13.500',-9.12
'0:13.504',-7.57
'0:13.508',-5.79
'0:13.512',-3.99
'0:13.516',-2.35
'0:13.520',-1.02
'0:13.523',-0.05
'0:13.527',0.7
'0:13.531',1.23
'0:13.535',1.6
'0:13.539',1.87
'0:13.543',2.05
'0:13.547',2.19
'0:13.551',2.28
'0:13.555',2.45
'0:13.559',2.61
'0:13.563',2.68
'0:13.566',2.66
'0:13.570',2.6
'0:13.574',2.57
'0:13.578',2.54
'0:13.582',2.56
'0:13.586',2.66
'0:13.590',2.66
'0:13.594',2.68
'0:13.598',2.7
'0:13.602',2.73
'0:13.605',2.73
'0:13.609',2.75
'0:13.613',2.69
'0:13.617',2.57
'0:13.621',2.35
'0:13.625',2.2
'0:13.629',2.11
'0:13.633',1.88
'0:13.637',1.48
'0:13.641',1.06
'0:13.645',0.67
'0:13.648',0.33
'0:13.652',0.02
'0:13.656',-0.42
'0:13.660',-0.67
'0:13.664',-0.69
'0:13.668',-0.61
'0:13.672',-0.61
'0:13.676',-0.51
'0:13.680',-0.43
'0:13.684',-0.34
'0:13.688',-0.22
'0:13.691',0
'0:13.695',0.04
'0:13.699',0.07
'0:13.703',0.13
'0:13.707',0.21
'0:13.711',0.2
'0:13.715',0.09
'0:13.719',-0.12
'0:13.723',-0.33
'0:13.727',-0.5
'0:13.730',-0.65
'0:13.734',-0.8
'0:13.738',-0.88
'0:13.742',-0.92
'0:13.746',-1.32
'0:13.750',-1.83
'0:13.754',-2.37
'0:13.758',-2.79
'0:13.762',-3.07
'0:13.766',-2.82
'0:13.770',-2.48
'0:13.773',-2.67
'0:13.777',-2.85
'0:13.781',-2.24
'0:13.785',-1.88
'0:13.789',-1.96
'0:13.793',-2.02
'0:13.797',-1.97
'0:13.801',-1.81
'0:13.805',-1.5
'0:13.809',-0.93
'0:13.813',0.06
'0:13.816',2
'0:13.820',4.84
'0:13.824',7.72
'0:13.828',9.63
'0:13.832',8.55
'0:13.836',3.61
'0:13.840',-2.43
'0:13.844',-6.95
'0:13.848',-9.69
'0:13.852',-11.21
'0:13.855',-12.06
'0:13.859',-12.19
'0:13.863',-11.34
'0:13.867',-9.87
'0:13.871',-8.25
'0:13.875',-6.49
'0:13.879',-4.69
'0:13.883',-3.12
'0:13.887',-1.68
'0:13.891',-0.4
'0:13.895',0.71
'0:13.898',1.58
'0:13.902',2.18
'0:13.906',2.57
'0:13.910',2.89
'0:13.914',3.14
'0:13.918',3.31
'0:13.922',3.58
'0:13.926',3.8
'0:13.930',3.7
'0:13.934',3.54
'0:13.938',3.3
'0:13.941',3.29
'0:13.945',3.45
'0:13.949',3.42
'0:13.953',3.36
'0:13.957',3.29
'0:13.961',3.24
'0:13.965',3.32
'0:13.969',3.48
'0:13.973',3.42
'0:13.977',3.24
'0:13.980',3.34
'0:13.984',3.34
'0:13.988',3.22
'0:13.992',3.07
'0:13.996',2.98
'0:14.000',2.79
'0:14.004',2.51
'0:14.008',2.16
'0:14.012',1.69
'0:14.016',1.32
'0:14.020',1.03
'0:14.023',0.93
'0:14.027',0.99
'0:14.031',1.05
'0:14.035',1.16
'0:14.039',1.08
'0:14.043',1.03
'0:14.047',1.1
'0:14.051',1.1
'0:14.055',1.01
'0:14.059',0.85
'0:14.063',0.8
'0:14.066',0.74
'0:14.070',0.63
'0:14.074',0.71
'0:14.078',0.61
'0:14.082',0.4
'0:14.086',0.32
'0:14.090',0.39
'0:14.094',0.63
'0:14.098',0.9
'0:14.102',0.91
'0:14.105',0.64
'0:14.109',0.44
'0:14.113',0.21
'0:14.117',-0.1
'0:14.121',-0.38
'0:14.125',-0.39
'0:14.129',-0.2
'0:14.133',-0.14
'0:14.137',-0.09
'0:14.141',-0.19
'0:14.145',-0.29
'0:14.148',-0.43
'0:14.152',-0.54
'0:14.156',-0.65
'0:14.160',-0.8
'0:14.164',-0.74
'0:14.168',-0.42
'0:14.172',0.22
'0:14.176',1.47
'0:14.180',3.6
'0:14.184',6.6
'0:14.188',9.73
'0:14.191',11.82
'0:14.195',11.09
'0:14.199',6.36
'0:14.203',-0.01
'0:14.207',-4.96
'0:14.211',-8.21
'0:14.215',-10.02
'0:14.219',-10.89
'0:14.223',-11.01
'0:14.227',-11.01
'0:14.230',-10.57
'0:14.234',-5.65
'0:14.238',-4.76
'0:14.242',-3.44
'0:14.246',-2.41
'0:14.250',-1.56
'0:14.254',-0.89
'0:14.258',-0.42
'0:14.262',-0.01
'0:14.266',0.34
'0:14.270',0.49
'0:14.273',0.6
'0:14.277',0.68
'0:14.281',0.91
'0:14.285',1.07
'0:14.289',1.09
'0:14.293',1.07
'0:14.297',1.03
'0:14.301',1.03
'0:14.305',1.12
'0:14.309',1.29
'0:14.313',1.53
'0:14.316',1.72
'0:14.320',1.92
'0:14.324',2.04
'0:14.328',2.17
'0:14.332',2.15
'0:14.336',2.2
'0:14.340',2.24
'0:14.344',2.23
'0:14.348',2.23
'0:14.352',2.1
'0:14.355',1.91
'0:14.359',1.69
'0:14.363',1.52
'0:14.367',1.37
'0:14.371',1.04
'0:14.375',0.6
'0:14.379',0.22
'0:14.383',0.01
'0:14.387',0
'0:14.391',-0.04
'0:14.395',-0.13
'0:14.398',-0.14
'0:14.402',-0.17
'0:14.406',-0.12
'0:14.410',-0.05
'0:14.414',-0.07
'0:14.418',-0.17
'0:14.422',-0.17
'0:14.426',-0.07
'0:14.430',-0.12
'0:14.434',-0.21
'0:14.438',-0.46
'0:14.441',-0.65
'0:14.445',-0.75
'0:14.449',-0.92
'0:14.453',-1.04
'0:14.457',-0.98
'0:14.461',-0.87
'0:14.465',-0.99
'0:14.469',-1.23
'0:14.473',-1.52
'0:14.477',-1.87
'0:14.480',-2.21
'0:14.484',-2.45
'0:14.488',-2.52
'0:14.492',-2.63
'0:14.496',-2.65
'0:14.500',-2.63
'0:14.504',-2.63
'0:14.508',-2.75
'0:14.512',-2.89
'0:14.516',-2.95
'0:14.520',-2.85
'0:14.523',-2.47
'0:14.527',-1.8
'0:14.531',-1.07
'0:14.535',0.25
'0:14.539',2.45
'0:14.543',5.6
'0:14.547',8.89
'0:14.551',11.3
'0:14.555',10.95
'0:14.559',6.7
'0:14.563',0.18
'0:14.566',-5.46
'0:14.570',-8.98
'0:14.574',-10.8
'0:14.578',-11.67
'0:14.582',-11.56
'0:14.586',-10.63
'0:14.590',-9.37
'0:14.594',-7.84
'0:14.598',-6.37
'0:14.602',-5.06
'0:14.605',-3.95
'0:14.609',-3.36
'0:14.613',-3.36
'0:14.617',-3.36
'0:14.621',-3.36
'0:14.625',-3.36
'0:14.629',-3.36
'0:14.633',-3.36
'0:14.637',-3.36
'0:14.641',0.45
'0:14.645',0.65
'0:14.648',0.74
'0:14.652',1.03
'0:14.656',1.55
'0:14.660',1.97
'0:14.664',2.22
'0:14.668',2.38
'0:14.672',2.63
'0:14.676',2.75
'0:14.680',2.85
'0:14.684',3.11
'0:14.688',3.37
'0:14.691',3.6
'0:14.695',3.68
'0:14.699',3.68
'0:14.703',3.67
'0:14.707',3.57
'0:14.711',3.61
'0:14.715',3.47
'0:14.719',3.05
'0:14.723',2.69
'0:14.727',2.44
'0:14.730',2.04
'0:14.734',1.43
'0:14.738',0.77
'0:14.742',0.73
'0:14.746',0.93
'0:14.750',0.95
'0:14.754',0.99
'0:14.758',1.07
'0:14.762',0.98
'0:14.766',0.79
'0:14.770',0.56
'0:14.773',0.54
'0:14.777',0.58
'0:14.781',0.53
'0:14.785',0.47
'0:14.789',0.4
'0:14.793',0.18
'0:14.797',-0.02
'0:14.801',-0.23
'0:14.805',-0.55
'0:14.809',-0.86
'0:14.813',-1.06
'0:14.816',-1.06
'0:14.820',-0.97
'0:14.824',-0.8
'0:14.828',-0.51
'0:14.832',-0.29
'0:14.836',-0.23
'0:14.840',-0.38
'0:14.844',-0.48
'0:14.848',-0.56
'0:14.852',-0.58
'0:14.855',-0.53
'0:14.859',-0.42
'0:14.863',-0.25
'0:14.867',0.02
'0:14.871',0.17
'0:14.875',0.16
'0:14.879',0.09
'0:14.883',0.05
'0:14.887',0.2
'0:14.891',0.6
'0:14.895',1.67
'0:14.898',3.59
'0:14.902',6.42
'0:14.906',9.37
'0:14.910',11.2
'0:14.914',10
'0:14.918',5.13
'0:14.922',-1.56
'0:14.926',-6.84
'0:14.930',-9.78
'0:14.934',-10.99
'0:14.938',-11.22
'0:14.941',-10.79
'0:14.945',-9.85
'0:14.949',-8.31
'0:14.953',-6.39
'0:14.957',-4.69
'0:14.961',-3.27
'0:14.965',-2.15
'0:14.969',-1.29
'0:14.973',-0.61
'0:14.977',-0.1
'0:14.980',0.09
'0:14.984',0.29
'0:14.988',0.48
'0:14.992',0.6
'0:14.996',0.73
'0:15.000',0.85
'0:15.004',1.04
'0:15.008',1.26
'0:15.012',1.52
'0:15.016',1.68
'0:15.020',1.73
'0:15.023',1.73
'0:15.027',1.81
'0:15.031',1.97
'0:15.035',2.14
'0:15.039',2.31
'0:15.043',2.48
'0:15.047',2.72
'0:15.051',2.87
'0:15.055',2.97
'0:15.059',3.02
'0:15.063',3
'0:15.066',2.86
'0:15.070',2.74
'0:15.074',2.64
'0:15.078',2.44
'0:15.082',2.14
'0:15.086',1.79
'0:15.090',1.4
'0:15.094',0.99
'0:15.098',0.57
'0:15.102',0.26
'0:15.105',0.03
'0:15.109',-0.09
'0:15.113',-0.18
'0:15.117',-0.23
'0:15.121',-0.21
'0:15.125',-0.16
'0:15.129',-0.14
'0:15.133',-0.1
'0:15.137',-0.11
'0:15.141',-0.19
'0:15.145',-0.24
'0:15.148',-0.24
'0:15.152',-0.29
'0:15.156',-0.43
'0:15.160',-0.67
'0:15.164',-0.96
'0:15.168',-1.19
'0:15.172',-1.41
'0:15.176',-1.54
'0:15.180',-1.68
'0:15.184',-1.82
'0:15.188',-2.02
'0:15.191',-2.38
'0:15.195',-2.74
'0:15.199',-2.99
'0:15.203',-3.2
'0:15.207',-3.35
'0:15.211',-3.39
'0:15.215',-3.31
'0:15.219',-3.2
'0:15.223',-3.03
'0:15.227',-2.74
'0:15.230',-2.58
'0:15.234',-2.65
'0:15.238',-2.7
'0:15.242',-2.6
'0:15.246',-2.46
'0:15.250',-2.23
'0:15.254',-1.66
'0:15.258',-0.5
'0:15.262',1.88
'0:15.266',5.18
'0:15.270',8.12
'0:15.273',9.02
'0:15.277',6.47
'0:15.281',1.03
'0:15.285',-4.69
'0:15.289',-8.71
'0:15.293',-10.65
'0:15.297',-11.13
'0:15.301',-10.78
'0:15.305',-9.89
'0:15.309',-8.69
'0:15.313',-7.18
'0:15.316',-5.39
'0:15.320',-3.77
'0:15.324',-2.4
'0:15.328',-1.27
'0:15.332',-0.41
'0:15.336',-0.14
'0:15.340',-0.14
'0:15.344',-0.34
'0:15.348',-0.39
'0:15.352',-0.72
'0:15.355',-1.25
'0:15.359',-1.6
'0:15.363',-1.78
'0:15.367',-1.77
'0:15.371',-1.64
'0:15.375',-1.19
'0:15.379',-0.3
'0:15.383',0.91
'0:15.387',2.13
'0:15.391',3.18
'0:15.395',3.93
'0:15.398',4.66
'0:15.402',5.51
'0:15.406',6.38
'0:15.410',7.14
'0:15.414',7.54
'0:15.418',7.81
'0:15.422',7.89
'0:15.426',7.92
'0:15.430',7.73
'0:15.434',6.95
'0:15.438',6.23
'0:15.441',5.76
'0:15.445',5.1
'0:15.449',4.29
'0:15.453',3.46
'0:15.457',2.59
'0:15.461',1.84
'0:15.465',1.33
'0:15.469',0.99
'0:15.473',0.74
'0:15.477',0.58
'0:15.480',0.47
'0:15.484',0.35
'0:15.488',0.48
'0:15.492',0.44
'0:15.496',0.23
'0:15.500',0.15
'0:15.504',0.05
'0:15.508',0.05
'0:15.512',0.13
'0:15.516',0.1
'0:15.520',-0.01
'0:15.523',-0.2
'0:15.527',-0.36
'0:15.531',-0.55
'0:15.535',-0.67
'0:15.539',-0.61
'0:15.543',-0.6
'0:15.547',-0.72
'0:15.551',-1.06
'0:15.555',-1.52
'0:15.559',-1.84
'0:15.563',-2.21
'0:15.566',-2.6
'0:15.570',-2.7
'0:15.574',-2.34
'0:15.578',-1.77
'0:15.582',-1.11
'0:15.586',-0.66
'0:15.590',-0.49
'0:15.594',-0.49
'0:15.598',-0.69
'0:15.602',-1.01
'0:15.605',-1.31
'0:15.609',-1.28
'0:15.613',-0.75
'0:15.617',0.14
'0:15.621',1.84
'0:15.625',4.52
'0:15.629',7.42
'0:15.633',9.28
'0:15.637',8.16
'0:15.641',3.47
'0:15.645',-2.09
'0:15.648',-6.3
'0:15.652',-8.76
'0:15.656',-9.72
'0:15.660',-10.05
'0:15.664',-9.78
'0:15.668',-9.06
'0:15.672',-7.92
'0:15.676',-6.21
'0:15.680',-4.41
'0:15.684',-2.82
'0:15.688',-1.59
'0:15.691',-0.69
'0:15.695',0.04
'0:15.699',0.55
'0:15.703',0.87
'0:15.707',1.09
'0:15.711',1.22
'0:15.715',1.27
'0:15.719',1.34
'0:15.723',1.17
'0:15.727',1.08
'0:15.730',1.12
'0:15.734',1.14
'0:15.738',1.14
'0:15.742',1.07
'0:15.746',1.05
'0:15.750',1.15
'0:15.754',1.31
'0:15.758',1.51
'0:15.762',1.7
'0:15.766',1.96
'0:15.770',2.12
'0:15.773',2.17
'0:15.777',2.25
'0:15.781',2.22
'0:15.785',2.06
'0:15.789',1.95
'0:15.793',1.98
'0:15.797',2
'0:15.801',1.89
'0:15.805',1.79
'0:15.809',1.62
'0:15.813',1.3
'0:15.816',1.06
'0:15.820',0.69
'0:15.824',0.28
'0:15.828',-0.06
'0:15.832',-0.29
'0:15.836',-0.27
'0:15.840',-0.22
'0:15.844',-0.24
'0:15.848',-0.1
'0:15.852',-0.02
'0:15.855',-0.04
'0:15.859',-0.1
'0:15.863',-0.19
'0:15.867',-0.27
'0:15.871',-0.26
'0:15.875',-0.24
'0:15.879',-0.24
'0:15.883',-0.45
'0:15.887',-0.8
'0:15.891',-1.08
'0:15.895',-1.29
'0:15.898',-1.39
'0:15.902',-1.43
'0:15.906',-1.63
'0:15.910',-1.97
'0:15.914',-2.4
'0:15.918',-2.84
'0:15.922',-3.34
'0:15.926',-3.61
'0:15.930',-3.69
'0:15.934',-3.74
'0:15.938',-3.82
'0:15.941',-3.78
'0:15.945',-3.66
'0:15.949',-3.58
'0:15.953',-3.55
'0:15.957',-3.4
'0:15.961',-3.15
'0:15.965',-3.14
'0:15.969',-3.05
'0:15.973',-2.6
'0:15.977',-1.36
'0:15.980',0.77
'0:15.984',3.67
'0:15.988',7.19
'0:15.992',10.15
'0:15.996',10.92
'0:16.000',7.94
'0:16.004',1.93
'0:16.008',-3.78
'0:16.012',-7.75
'0:16.016',-10.18
'0:16.020',-11.37
'0:16.023',-11.69
'0:16.027',-10.79
'0:16.031',-9.79
'0:16.035',-8.49
'0:16.039',-6.67
'0:16.043',-4.73
'0:16.047',-2.84
'0:16.051',-1.75
'0:16.055',-1.14
'0:16.059',-0.58
'0:16.063',-0.1
'0:16.066',0.4
'0:16.070',0.96
'0:16.074',1
'0:16.078',0.79
'0:16.082',0.69
'0:16.086',0.59
'0:16.090',0.44
'0:16.094',0.4
'0:16.098',0.39
'0:16.102',0.39
'0:16.105',0.4
'0:16.109',0.39
'0:16.113',0.51
'0:16.117',0.62
'0:16.121',0.98
'0:16.125',1.47
'0:16.129',2.06
'0:16.133',2.35
'0:16.137',2.6
'0:16.141',2.82
'0:16.145',2.98
'0:16.148',2.9
'0:16.152',2.9
'0:16.156',2.95
'0:16.160',2.62
'0:16.164',2.47
'0:16.168',2.44
'0:16.172',2.06
'0:16.176',1.74
'0:16.180',1.16
'0:16.184',0.86
'0:16.188',0.76
'0:16.191',0.45
'0:16.195',0.18
'0:16.199',0.2
'0:16.203',0.49
'0:16.207',0.63
'0:16.211',0.57
'0:16.215',0.35
'0:16.219',0.22
'0:16.223',0.32
'0:16.227',0.48
'0:16.230',0.61
'0:16.234',0.68
'0:16.238',0.66
'0:16.242',0.52
'0:16.246',0.2
'0:16.250',-0.31
'0:16.254',-0.46
'0:16.258',-0.32
'0:16.262',-0.17
'0:16.266',-0.4
'0:16.270',-0.93
'0:16.273',-1.5
'0:16.277',-2.09
'0:16.281',-2.29
'0:16.285',-2.31
'0:16.289',-2.69
'0:16.293',-3.02
'0:16.297',-3.14
'0:16.301',-3.05
'0:16.305',-2.83
'0:16.309',-2.63
'0:16.313',-2.58
'0:16.316',-2.65
'0:16.320',-2.73
'0:16.324',-2.51
'0:16.328',-2.01
'0:16.332',-1.3
'0:16.336',-0.17
'0:16.340',1.68
'0:16.344',4.4
'0:16.348',7.9
'0:16.352',11.25
'0:16.355',12.8
'0:16.359',10.36
'0:16.363',4.47
'0:16.367',-1.75
'0:16.371',-6.37
'0:16.375',-9.04
'0:16.379',-10.22
'0:16.383',-10.53
'0:16.387',-10.07
'0:16.391',-8.9
'0:16.395',-7.21
'0:16.398',-5.7
'0:16.402',-4.43
'0:16.406',-3.15
'0:16.410',-2.07
'0:16.414',-1.33
'0:16.418',-0.69
'0:16.422',-0.11
'0:16.426',0.34
'0:16.430',0.69
'0:16.434',0.92
'0:16.438',1
'0:16.441',1.1
'0:16.445',1.01
'0:16.449',0.93
'0:16.453',0.76
'0:16.457',0.76
'0:16.461',0.85
'0:16.465',0.95
'0:16.469',1.03
'0:16.473',1.24
'0:16.477',1.45
'0:16.480',1.65
'0:16.484',1.8
'0:16.488',1.95
'0:16.492',2.19
'0:16.496',2.36
'0:16.500',2.39
'0:16.504',2.37
'0:16.508',2.29
'0:16.512',2.24
'0:16.516',2.27
'0:16.520',2.25
'0:16.523',2.1
'0:16.527',1.93
'0:16.531',1.76
'0:16.535',1.59
'0:16.539',1.36
'0:16.543',1.08
'0:16.547',0.86
'0:16.551',0.69
'0:16.555',0.66
'0:16.559',0.68
'0:16.563',0.61
'0:16.566',0.56
'0:16.570',0.61
'0:16.574',0.68
'0:16.578',0.71
'0:16.582',0.59
'0:16.586',0.6
'0:16.590',0.65
'0:16.594',0.61
'0:16.598',0.35
'0:16.602',-0.06
'0:16.605',-0.39
'0:16.609',-0.55
'0:16.613',-0.71
'0:16.617',-0.87
'0:16.621',-1.08
'0:16.625',-1.34
'0:16.629',-1.67
'0:16.633',-2.11
'0:16.637',-2.62
'0:16.641',-3.11
'0:16.645',-3.33
'0:16.648',-3.28
'0:16.652',-3.17
'0:16.656',-3.07
'0:16.660',-3.09
'0:16.664',-3.02
'0:16.668',-2.81
'0:16.672',-2.71
'0:16.676',-2.73
'0:16.680',-2.82
'0:16.684',-2.63
'0:16.688',-2.18
'0:16.691',-1.35
'0:16.695',0.08
'0:16.699',1.71
'0:16.703',4.83
'0:16.707',8.18
'0:16.711',10.9
'0:16.715',10.96
'0:16.719',6.68
'0:16.723',0.64
'0:16.727',0.61
'0:16.730',0.61
'0:16.734',-10.9
'0:16.738',-11.94
'0:16.742',-11.92
'0:16.746',-11.19
'0:16.750',-9.96
'0:16.754',-8.28
'0:16.758',-6.51
'0:16.762',-4.85
'0:16.766',-3.56
'0:16.770',-2.58
'0:16.773',-1.51
'0:16.777',-0.6
'0:16.781',-0.15
'0:16.785',0.1
'0:16.789',0.36
'0:16.793',0.63
'0:16.797',0.87
'0:16.801',1.12
'0:16.805',1.22
'0:16.809',1.08
'0:16.813',1.08
'0:16.816',1.24
'0:16.820',1.48
'0:16.824',1.49
'0:16.828',1.3
'0:16.832',1.14
'0:16.836',1.1
'0:16.840',1.1
'0:16.844',1.1
'0:16.848',1.1
'0:16.852',1.06
'0:16.855',1.09
'0:16.859',1.21
'0:16.863',1.29
'0:16.867',1.51
'0:16.871',1.73
'0:16.875',2.02
'0:16.879',2.08
'0:16.883',2.33
'0:16.887',2.6
'0:16.891',2.67
'0:16.895',2.68
'0:16.898',2.46
'0:16.902',1.98
'0:16.906',1.92
'0:16.910',2.02
'0:16.914',2.31
'0:16.918',2.46
'0:16.922',2.32
'0:16.926',2.27
'0:16.930',2.29
'0:16.934',2.3
'0:16.938',2.18
'0:16.941',2.12
'0:16.945',2.14
'0:16.949',2.1
'0:16.953',1.9
'0:16.957',1.62
'0:16.961',1.39
'0:16.965',1.17
'0:16.969',1
'0:16.973',0.76
'0:16.977',0.72
'0:16.980',0.57
'0:16.984',0.16
'0:16.988',-0.29
'0:16.992',-0.75
'0:16.996',-1.28
'0:17.000',-1.89
'0:17.004',-2.26
'0:17.008',-2.31
'0:17.012',-2.17
'0:17.016',-2.05
'0:17.020',-1.99
'0:17.023',-2
'0:17.027',-2.03
'0:17.031',-1.91
'0:17.035',-1.97
'0:17.039',-2.09
'0:17.043',-1.95
'0:17.047',-1.83
'0:17.051',-1.4
'0:17.055',-0.34
'0:17.059',1.74
'0:17.063',5.02
'0:17.066',8.54
'0:17.070',10.81
'0:17.074',9.94
'0:17.078',5.33
'0:17.082',-0.89
'0:17.086',-5.68
'0:17.090',-8.24
'0:17.094',-9.1
'0:17.098',-8.99
'0:17.102',-8.15
'0:17.105',-6.79
'0:17.109',-5.06
'0:17.113',-3.22
'0:17.117',-1.54
'0:17.121',-0.09
'0:17.125',1.12
'0:17.129',1.91
'0:17.133',2.32
'0:17.137',2.6
'0:17.141',2.87
'0:17.145',3.09
'0:17.148',3.17
'0:17.152',3.17
'0:17.156',3.24
'0:17.160',3.22
'0:17.164',3.19
'0:17.168',3.1
'0:17.172',3
'0:17.176',2.95
'0:17.180',2.87
'0:17.184',2.73
'0:17.188',2.68
'0:17.191',2.66
'0:17.195',2.68
'0:17.199',2.74
'0:17.203',2.92
'0:17.207',3.25
'0:17.211',3.55
'0:17.215',3.73
'0:17.219',3.83
'0:17.223',3.81
'0:17.227',3.75
'0:17.230',3.66
'0:17.234',3.48
'0:17.238',3.27
'0:17.242',3.07
'0:17.246',2.86
'0:17.250',2.56
'0:17.254',2.27
'0:17.258',1.93
'0:17.262',1.68
'0:17.266',1.54
'0:17.270',1.32
'0:17.273',1.15
'0:17.277',1.14
'0:17.281',1.21
'0:17.285',1.19
'0:17.289',1.1
'0:17.293',1
'0:17.297',0.95
'0:17.301',0.93
'0:17.305',0.98
'0:17.309',0.9
'0:17.313',0.66
'0:17.316',0.4
'0:17.320',0.08
'0:17.324',-0.18
'0:17.328',-0.52
'0:17.332',-0.82
'0:17.336',-1.04
'0:17.340',-1.16
'0:17.344',-1.44
'0:17.348',-1.89
'0:17.352',-2.36
'0:17.355',-2.75
'0:17.359',-3.12
'0:17.363',-3.43
'0:17.367',-3.67
'0:17.371',-3.73
'0:17.375',-3.68
'0:17.379',-3.7
'0:17.383',-3.68
'0:17.387',-3.58
'0:17.391',-3.53
'0:17.395',-3.58
'0:17.398',-3.65
'0:17.402',-3.58
'0:17.406',-3.34
'0:17.410',-2.85
'0:17.414',-1.87
'0:17.418',0.19
'0:17.422',3.29
'0:17.426',6.38
'0:17.430',7.89
'0:17.434',6.27
'0:17.438',1.46
'0:17.441',-4.2
'0:17.445',-8.23
'0:17.449',-10.2
'0:17.453',-10.92
'0:17.457',-10.98
'0:17.461',-10.22
'0:17.465',-8.97
'0:17.469',-7.41
'0:17.473',-5.64
'0:17.477',-4.14
'0:17.480',-2.53
'0:17.484',-1.05
'0:17.488',-0.18
'0:17.492',0.41
'0:17.496',0.9
'0:17.500',1.28
'0:17.504',1.61
'0:17.508',1.93
'0:17.512',2.12
'0:17.516',2.13
'0:17.520',2.31
'0:17.523',2.59
'0:17.527',2.87
'0:17.531',3.06
'0:17.535',2.98
'0:17.539',2.97
'0:17.543',2.92
'0:17.547',3.05
'0:17.551',3.36
'0:17.555',3.44
'0:17.559',3.41
'0:17.563',3.31
'0:17.566',3.11
'0:17.570',2.83
'0:17.574',2.66
'0:17.578',2.44
'0:17.582',2.29
'0:17.586',2.03
'0:17.590',1.66
'0:17.594',1.2
'0:17.598',0.83
'0:17.602',0.48
'0:17.605',0.46
'0:17.609',0.46
'0:17.613',0.46
'0:17.617',0.46
'0:17.621',0.46
'0:17.625',0.46
'0:17.629',0.46
'0:17.633',1.48
'0:17.637',1.8
'0:17.641',1.97
'0:17.645',2.05
'0:17.648',2
'0:17.652',2.13
'0:17.656',2.43
'0:17.660',2.53
'0:17.664',2.46
'0:17.668',2.53
'0:17.672',2.18
'0:17.676',1.5
'0:17.680',0.98
'0:17.684',0.35
'0:17.688',-0.02
'0:17.691',-0.36
'0:17.695',-0.68
'0:17.699',-1.16
'0:17.703',-1.8
'0:17.707',-2.34
'0:17.711',-2.65
'0:17.715',-3.16
'0:17.719',-3.67
'0:17.723',-3.92
'0:17.727',-3.75
'0:17.730',-3.68
'0:17.734',-3.82
'0:17.738',-3.99
'0:17.742',-4.02
'0:17.746',-3.97
'0:17.750',-3.88
'0:17.754',-3.8
'0:17.758',-3.85
'0:17.762',-3.81
'0:17.766',-3.65
'0:17.770',-3.05
'0:17.773',-1.6
'0:17.777',0.97
'0:17.781',3.84
'0:17.785',6.16
'0:17.789',6.72
'0:17.793',3.92
'0:17.797',-1.16
'0:17.801',-5.83
'0:17.805',-9.14
'0:17.809',-10.75
'0:17.813',-11.09
'0:17.816',-10.63
'0:17.820',-9.49
'0:17.824',-7.98
'0:17.828',-6.48
'0:17.832',-4.72
'0:17.836',-2.82
'0:17.840',-1.16
'0:17.844',0.23
'0:17.848',1.25
'0:17.852',2.02
'0:17.855',2.67
'0:17.859',3.22
'0:17.863',3.44
'0:17.867',3.51
'0:17.871',3.48
'0:17.875',3.36
'0:17.879',3.31
'0:17.883',3.27
'0:17.887',3.15
'0:17.891',3.15
'0:17.895',3.22
'0:17.898',3.29
'0:17.902',3.39
'0:17.906',3.52
'0:17.910',3.68
'0:17.914',3.92
'0:17.918',4.05
'0:17.922',4.19
'0:17.926',4.22
'0:17.930',4.24
'0:17.934',4.23
'0:17.938',4.1
'0:17.941',3.9
'0:17.945',3.71
'0:17.949',3.68
'0:17.953',3.73
'0:17.957',3.63
'0:17.961',3.43
'0:17.965',3.13
'0:17.969',2.88
'0:17.973',2.56
'0:17.977',2.35
'0:17.980',2.17
'0:17.984',2.01
'0:17.988',2.02
'0:17.992',2.02
'0:17.996',1.97
'0:18.000',2.04
'0:18.004',2.12
'0:18.008',2.15
'0:18.012',2.05
'0:18.016',1.88
'0:18.020',1.85
'0:18.023',1.83
'0:18.027',1.8
'0:18.031',1.71
'0:18.035',1.46
'0:18.039',1.26
'0:18.043',1.1
'0:18.047',0.88
'0:18.051',0.74
'0:18.055',0.72
'0:18.059',0.51
'0:18.063',0.18
'0:18.066',-0.3
'0:18.070',-0.77
'0:18.074',-1.24
'0:18.078',-1.53
'0:18.082',-1.63
'0:18.086',-1.66
'0:18.090',-1.8
'0:18.094',-1.73
'0:18.098',-1.56
'0:18.102',-1.32
'0:18.105',-1.26
'0:18.109',-1.41
'0:18.113',-1.6
'0:18.117',-1.73
'0:18.121',-1.61
'0:18.125',-1.2
'0:18.129',-0.21
'0:18.133',1.7
'0:18.137',4.59
'0:18.141',7.83
'0:18.145',10.63
'0:18.148',11.64
'0:18.152',8.72
'0:18.156',2.8
'0:18.160',-2.67
'0:18.164',-6.54
'0:18.168',-8.65
'0:18.172',-9.63
'0:18.176',-9.91
'0:18.180',-9.48
'0:18.184',-8.3
'0:18.188',-6.66
'0:18.191',-4.92
'0:18.195',-3.11
'0:18.199',-1.74
'0:18.203',-0.69
'0:18.207',0.16
'0:18.211',0.94
'0:18.215',1.55
'0:18.219',1.83
'0:18.223',2.02
'0:18.227',2.02
'0:18.230',2.02
'0:18.234',2.03
'0:18.238',2.89
'0:18.242',2.99
'0:18.246',2.81
'0:18.250',2.61
'0:18.254',2.44
'0:18.258',2.47
'0:18.262',2.7
'0:18.266',3.09
'0:18.270',3.44
'0:18.273',3.7
'0:18.277',3.87
'0:18.281',4
'0:18.285',4.21
'0:18.289',4.41
'0:18.293',4.52
'0:18.297',4.53
'0:18.301',4.48
'0:18.305',4.51
'0:18.309',4.46
'0:18.313',4.27
'0:18.316',4.1
'0:18.320',3.8
'0:18.324',3.18
'0:18.328',2.61
'0:18.332',2.17
'0:18.336',2.14
'0:18.340',2.13
'0:18.344',1.95
'0:18.348',1.95
'0:18.352',1.73
'0:18.355',1.64
'0:18.359',1.66
'0:18.363',1.66
'0:18.367',1.78
'0:18.371',1.99
'0:18.375',2.22
'0:18.379',2.15
'0:18.383',2.02
'0:18.387',1.99
'0:18.391',2.02
'0:18.395',1.74
'0:18.398',1.66
'0:18.402',1.73
'0:18.406',1.73
'0:18.410',1.63
'0:18.414',1.34
'0:18.418',0.99
'0:18.422',0.7
'0:18.426',0.37
'0:18.430',-0.33
'0:18.434',-0.93
'0:18.438',-1.41
'0:18.441',-1.63
'0:18.445',-1.55
'0:18.449',-1.51
'0:18.453',-1.77
'0:18.457',-1.77
'0:18.461',-1.8
'0:18.465',-1.95
'0:18.469',-1.87
'0:18.473',-1.92
'0:18.477',-1.72
'0:18.480',-0.98
'0:18.484',0.33
'0:18.488',2.32
'0:18.492',5.09
'0:18.496',8.06
'0:18.500',9.81
'0:18.504',11.12
'0:18.508',8.73
'0:18.512',2.81
'0:18.516',-3.32
'0:18.520',-7.61
'0:18.523',-10.04
'0:18.527',-11.24
'0:18.531',-11.49
'0:18.535',-10.99
'0:18.539',-9.85
'0:18.543',-8.11
'0:18.547',-6.19
'0:18.551',-4.49
'0:18.555',-2.84
'0:18.559',-1.35
'0:18.563',-0.11
'0:18.566',0.96
'0:18.570',1.68
'0:18.574',2.07
'0:18.578',2.34
'0:18.582',2.43
'0:18.586',2.59
'0:18.590',2.89
'0:18.594',3.05
'0:18.598',3
'0:18.602',3
'0:18.605',2.91
'0:18.609',2.68
'0:18.613',2.54
'0:18.617',2.49
'0:18.621',2.57
'0:18.625',2.68
'0:18.629',2.87
'0:18.633',2.97
'0:18.637',3.09
'0:18.641',3.2
'0:18.645',3.36
'0:18.648',3.56
'0:18.652',3.68
'0:18.656',3.59
'0:18.660',3.42
'0:18.664',3.33
'0:18.668',3.11
'0:18.672',2.78
'0:18.676',2.44
'0:18.680',2.12
'0:18.684',1.73
'0:18.688',1.32
'0:18.691',0.93
'0:18.695',0.69
'0:18.699',0.61
'0:18.703',0.61
'0:18.707',0.61
'0:18.711',0.61
'0:18.715',0.71
'0:18.719',0.76
'0:18.723',0.77
'0:18.727',0.78
'0:18.730',0.83
'0:18.734',0.96
'0:18.738',1.04
'0:18.742',1.1
'0:18.746',1.08
'0:18.750',0.93
'0:18.754',0.7
'0:18.758',0.48
'0:18.762',0.18
'0:18.766',-0.11
'0:18.770',-0.1
'0:18.773',-0.18
'0:18.777',-0.38
'0:18.781',-0.78
'0:18.785',-1.26
'0:18.789',-1.69
'0:18.793',-2.16
'0:18.797',-2.51
'0:18.801',-2.66
'0:18.805',-2.72
'0:18.809',-2.8
'0:18.813',-2.85
'0:18.816',-2.92
'0:18.820',-3.02
'0:18.824',-3.16
'0:18.828',-3.31
'0:18.832',-3.26
'0:18.836',-2.98
'0:18.840',-2.44
'0:18.844',-1.43
'0:18.848',0.42
'0:18.852',3.31
'0:18.855',6.57
'0:18.859',8.84
'0:18.863',8
'0:18.867',3.43
'0:18.871',-2.88
'0:18.875',-7.9
'0:18.879',-10.77
'0:18.883',-11.99
'0:18.887',-12.39
'0:18.891',-12.1
'0:18.895',-11.15
'0:18.898',-9.5
'0:18.902',-7.52
'0:18.906',-5.7
'0:18.910',-4.15
'0:18.914',-2.94
'0:18.918',-2.01
'0:18.922',-1.22
'0:18.926',-0.66
'0:18.930',-0.37
'0:18.934',-0.15
'0:18.938',0.22
'0:18.941',0.42
'0:18.945',0.41
'0:18.949',0.41
'0:18.953',0.42
'0:18.957',0.42
'0:18.961',0.41
'0:18.965',0.42
'0:18.969',0.41
'0:18.973',1.4
'0:18.977',1.52
'0:18.980',1.7
'0:18.984',1.76
'0:18.988',1.95
'0:18.992',2.17
'0:18.996',2.41
'0:19.000',2.55
'0:19.004',2.58
'0:19.008',2.64
'0:19.012',2.78
'0:19.016',2.88
'0:19.020',2.88
'0:19.023',2.73
'0:19.027',2.56
'0:19.031',2.44
'0:19.035',2.24
'0:19.039',1.91
'0:19.043',1.57
'0:19.047',1.17
'0:19.051',0.93
'0:19.055',0.95
'0:19.059',0.92
'0:19.063',0.66
'0:19.066',0.59
'0:19.070',0.42
'0:19.074',0.06
'0:19.078',-0.14
'0:19.082',-0.38
'0:19.086',-0.69
'0:19.090',-0.94
'0:19.094',-1.14
'0:19.098',-1.55
'0:19.102',-2.18
'0:19.105',-2.84
'0:19.109',-2.96
'0:19.113',-2.75
'0:19.117',-2.46
'0:19.121',-2.25
'0:19.125',-2.04
'0:19.129',-1.8
'0:19.133',-1.68
'0:19.137',-1.87
'0:19.141',-2.07
'0:19.145',-2.06
'0:19.148',-1.95
'0:19.152',-1.97
'0:19.156',-2.04
'0:19.160',-1.82
'0:19.164',-1.49
'0:19.168',-1.37
'0:19.172',-1.22
'0:19.176',-1.05
'0:19.180',-1.19
'0:19.184',-1.53
'0:19.188',-1.68
'0:19.191',-1.49
'0:19.195',-1.02
'0:19.199',-0.04
'0:19.203',1.71
'0:19.207',4.31
'0:19.211',7.28
'0:19.215',9.1
'0:19.219',7.91
'0:19.223',3.34
'0:19.227',-2.62
'0:19.230',-7.24
'0:19.234',-10.06
'0:19.238',-11.44
'0:19.242',-11.62
'0:19.246',-11.22
'0:19.250',-10.1
'0:19.254',-8.27
'0:19.258',-5.96
'0:19.262',-4.11
'0:19.266',-2.45
'0:19.270',-0.67
'0:19.273',0.48
'0:19.277',1.11
'0:19.281',1.5
'0:19.285',1.92
'0:19.289',2.5
'0:19.293',2.78
'0:19.297',2.88
'0:19.301',2.95
'0:19.305',2.93
'0:19.309',2.99
'0:19.313',3.14
'0:19.316',3.37
'0:19.320',3.65
'0:19.324',3.9
'0:19.328',4.09
'0:19.332',4.19
'0:19.336',4.43
'0:19.340',4.78
'0:19.344',4.95
'0:19.348',4.96
'0:19.352',5.02
'0:19.355',5.09
'0:19.359',5.02
'0:19.363',4.87
'0:19.367',4.82
'0:19.371',4.66
'0:19.375',4.51
'0:19.379',4.22
'0:19.383',3.85
'0:19.387',3.46
'0:19.391',3
'0:19.395',2.55
'0:19.398',2.2
'0:19.402',1.83
'0:19.406',1.44
'0:19.410',1.14
'0:19.414',0.89
'0:19.418',0.69
'0:19.422',0.53
'0:19.426',0.42
'0:19.430',0.39
'0:19.434',0.4
'0:19.438',0.3
'0:19.441',0.15
'0:19.445',0
'0:19.449',-0.1
'0:19.453',-0.24
'0:19.457',-0.43
'0:19.461',-0.7
'0:19.465',-1.04
'0:19.469',-1.09
'0:19.473',-1.09
'0:19.477',-2
'0:19.480',-2.12
'0:19.484',-2.26
'0:19.488',-2.51
'0:19.492',-2.96
'0:19.496',-3.5
'0:19.500',-3.95
'0:19.504',-4.13
'0:19.508',-4.17
'0:19.512',-4.22
'0:19.516',-4.23
'0:19.520',-4.12
'0:19.523',-3.94
'0:19.527',-3.89
