'0:00.000',-1.3
'0:00.004',-1.34
'0:00.008',-1.86
'0:00.012',-2.21
'0:00.016',-2.33
'0:00.020',-2.31
'0:00.023',-2.15
'0:00.027',-2.38
'0:00.031',-2.53
'0:00.035',-2.49
'0:00.039',-2.44
'0:00.043',-2.46
'0:00.047',-2.29
'0:00.051',-2.2
'0:00.055',-2.05
'0:00.059',-2.04
'0:00.063',-2.01
'0:00.066',-2.42
'0:00.070',-3.04
'0:00.074',-2.86
'0:00.078',-2.22
'0:00.082',-1.67
'0:00.086',-0.54
'0:00.090',1.02
'0:00.094',3.62
'0:00.098',6.01
'0:00.102',5.7
'0:00.105',2
'0:00.109',-3.85
'0:00.113',-8.57
'0:00.117',-10.88
'0:00.121',-11.09
'0:00.125',-10.05
'0:00.129',-8.31
'0:00.133',-6.62
'0:00.137',-5.5
'0:00.141',-4.33
'0:00.145',-3.41
'0:00.148',-2.66
'0:00.152',-2.17
'0:00.156',-2.12
'0:00.160',-2.1
'0:00.164',-1.43
'0:00.168',-1.04
'0:00.172',-0.9
'0:00.176',-0.82
'0:00.180',-0.73
'0:00.184',-0.38
'0:00.188',-0.12
'0:00.191',0.07
'0:00.195',0.58
'0:00.199',1.23
'0:00.203',1.46
'0:00.207',1.75
'0:00.211',2.11
'0:00.215',2.31
'0:00.219',2.84
'0:00.223',3.04
'0:00.227',2.6
'0:00.230',2.32
'0:00.234',2.87
'0:00.238',3.76
'0:00.242',4.15
'0:00.246',4.38
'0:00.250',4.91
'0:00.254',4.95
'0:00.258',5.37
'0:00.262',5.51
'0:00.266',5.02
'0:00.270',4.23
'0:00.273',3.76
'0:00.277',3.71
'0:00.281',3.44
'0:00.285',3.32
'0:00.289',2.82
'0:00.293',2.23
'0:00.297',1.86
'0:00.301',1.73
'0:00.305',2.14
'0:00.309',2.39
'0:00.313',2.32
'0:00.316',1.82
'0:00.320',1.3
'0:00.324',1.2
'0:00.328',1.55
'0:00.332',1.35
'0:00.336',0.77
'0:00.340',0.47
'0:00.344',0.35
'0:00.348',0.27
'0:00.352',0.01
'0:00.355',-0.28
'0:00.359',-0.7
'0:00.363',-1.07
'0:00.367',-0.95
'0:00.371',-0.67
'0:00.375',-0.44
'0:00.379',-0.43
'0:00.383',-0.29
'0:00.387',-0.18
'0:00.391',-0.52
'0:00.395',-0.75
'0:00.398',-0.47
'0:00.402',0.2
'0:00.406',0.98
'0:00.410',1.56
'0:00.414',2.84
'0:00.418',5.35
'0:00.422',8.16
'0:00.426',9.73
'0:00.430',8.09
'0:00.434',2.81
'0:00.438',-3.29
'0:00.441',-7.39
'0:00.445',-8.99
'0:00.449',-8.76
'0:00.453',-7.79
'0:00.457',-5.93
'0:00.461',-3.5
'0:00.465',-1.99
'0:00.469',-1.82
'0:00.473',-1.58
'0:00.477',-1.39
'0:00.480',-1.06
'0:00.484',-0.61
'0:00.488',-0.44
'0:00.492',-0.01
'0:00.496',0.12
'0:00.500',-0.23
'0:00.504',-1.13
'0:00.508',-1.59
'0:00.512',-1.56
'0:00.516',-0.77
'0:00.520',0.1
'0:00.523',0.82
'0:00.527',1.06
'0:00.531',0.11
'0:00.535',-0.17
'0:00.539',0.52
'0:00.543',2.09
'0:00.547',3.23
'0:00.551',3.39
'0:00.555',3.43
'0:00.559',3.99
'0:00.563',3.65
'0:00.566',3.29
'0:00.570',3.41
'0:00.574',3.56
'0:00.578',3.68
'0:00.582',3.85
'0:00.586',3.33
'0:00.590',3.16
'0:00.594',2.49
'0:00.598',1.46
'0:00.602',1.2
'0:00.605',1.24
'0:00.609',1.2
'0:00.613',0.47
'0:00.617',0
'0:00.621',-0.14
'0:00.625',-0.69
'0:00.629',-0.86
'0:00.633',-0.7
'0:00.637',-0.63
'0:00.641',-0.8
'0:00.645',-1.26
'0:00.648',-1.29
'0:00.652',-1.05
'0:00.656',-0.66
'0:00.660',-0.65
'0:00.664',-0.29
'0:00.668',0.03
'0:00.672',-0.04
'0:00.676',-0.6
'0:00.680',-1.04
'0:00.684',-1.56
'0:00.688',-2.32
'0:00.691',-2.91
'0:00.695',-3.01
'0:00.699',-3.02
'0:00.703',-2.8
'0:00.707',-2.71
'0:00.711',-2.47
'0:00.715',-2.34
'0:00.719',-2.43
'0:00.723',-2.91
'0:00.727',-2.85
'0:00.730',-2.44
'0:00.734',-2.12
'0:00.738',-1.76
'0:00.742',-0.93
'0:00.746',0.34
'0:00.750',2.97
'0:00.754',6.21
'0:00.758',7.75
'0:00.762',5.19
'0:00.766',-0.41
'0:00.770',-6.1
'0:00.773',-9.58
'0:00.777',-10.28
'0:00.781',-9.58
'0:00.785',-7.7
'0:00.789',-5.82
'0:00.793',-4.24
'0:00.797',-2.8
'0:00.801',-1.67
'0:00.805',-1.31
'0:00.809',-1.62
'0:00.813',-1.44
'0:00.816',-1.12
'0:00.820',-0.57
'0:00.824',0.17
'0:00.828',0.63
'0:00.832',1
'0:00.836',1.1
'0:00.840',1.17
'0:00.844',1.7
'0:00.848',1.77
'0:00.852',1.83
'0:00.855',2.16
'0:00.859',2.34
'0:00.863',1.98
'0:00.867',1.85
'0:00.871',2.06
'0:00.875',2.46
'0:00.879',2.9
'0:00.883',3.48
'0:00.887',3.78
'0:00.891',3.97
'0:00.895',4.42
'0:00.898',5.06
'0:00.902',5.64
'0:00.906',5.48
'0:00.910',4.96
'0:00.914',4.54
'0:00.918',4.01
'0:00.922',2.94
'0:00.926',1.77
'0:00.930',0.84
'0:00.934',0.47
'0:00.938',0.13
'0:00.941',-0.11
'0:00.945',-0.22
'0:00.949',-0.58
'0:00.953',-0.91
'0:00.957',-1.09
'0:00.961',-0.98
'0:00.965',-0.73
'0:00.969',-0.69
'0:00.973',-0.91
'0:00.977',-1.12
'0:00.980',-1.34
'0:00.984',-1.53
'0:00.988',-1.36
'0:00.992',-1.26
'0:00.996',-1.34
'0:01.000',-1.64
'0:01.004',-1.8
'0:01.008',-2.02
'0:01.012',-2.67
'0:01.016',-3.4
'0:01.020',-3.5
'0:01.023',-3.34
'0:01.027',-3.34
'0:01.031',-3.28
'0:01.035',-3.1
'0:01.039',-3.23
'0:01.043',-3.6
'0:01.047',-3.8
'0:01.051',-3.83
'0:01.055',-3.63
'0:01.059',-3.39
'0:01.063',-3.02
'0:01.066',-2.42
'0:01.070',-1.5
'0:01.074',-0.03
'0:01.078',2.11
'0:01.082',4.74
'0:01.086',6.93
'0:01.090',6.59
'0:01.094',2.87
'0:01.098',-2.91
'0:01.102',-7.55
'0:01.105',-9.83
'0:01.109',-9.38
'0:01.113',-7.95
'0:01.117',-6.22
'0:01.121',-4.69
'0:01.125',-3.51
'0:01.129',-3.02
'0:01.133',-2.68
'0:01.137',-1.72
'0:01.141',-0.81
'0:01.145',-0.37
'0:01.148',-0.26
'0:01.152',-0.43
'0:01.156',-0.43
'0:01.160',-0.51
'0:01.164',-0.75
'0:01.168',-0.15
'0:01.172',0.97
'0:01.176',1.99
'0:01.180',2.61
'0:01.184',2.7
'0:01.188',2.61
'0:01.191',2.53
'0:01.195',2.4
'0:01.199',2.49
'0:01.203',2.98
'0:01.207',3.46
'0:01.211',3.92
'0:01.215',4.39
'0:01.219',4.75
'0:01.223',5.02
'0:01.227',5.45
'0:01.230',5.51
'0:01.234',5.37
'0:01.238',5.38
'0:01.242',5.08
'0:01.246',5
'0:01.250',4.8
'0:01.254',4.01
'0:01.258',3.35
'0:01.262',3.15
'0:01.266',3.19
'0:01.270',3.19
'0:01.273',2.52
'0:01.277',1.48
'0:01.281',0.84
'0:01.285',0.64
'0:01.289',0.3
'0:01.293',-0.13
'0:01.297',-0.07
'0:01.301',0.07
'0:01.305',-0.39
'0:01.309',-0.75
'0:01.313',-0.68
'0:01.316',-0.29
'0:01.320',0
'0:01.324',-0.04
'0:01.328',-0.26
'0:01.332',-0.87
'0:01.336',-1.22
'0:01.340',-1.38
'0:01.344',-1.99
'0:01.348',-2.45
'0:01.352',-1.8
'0:01.355',-0.83
'0:01.359',-0.6
'0:01.363',-0.89
'0:01.367',-1.44
'0:01.371',-1.85
'0:01.375',-2.09
'0:01.379',-2.05
'0:01.383',-1.9
'0:01.387',-1.73
'0:01.391',-1.27
'0:01.395',-0.75
'0:01.398',-0.1
'0:01.402',1.12
'0:01.406',3.02
'0:01.410',5.5
'0:01.414',7.68
'0:01.418',7.1
'0:01.422',2.93
'0:01.426',-2.82
'0:01.430',-6.75
'0:01.434',-8.22
'0:01.438',-8.06
'0:01.441',-7.16
'0:01.445',-5.71
'0:01.449',-4.71
'0:01.453',-3.68
'0:01.457',-2.44
'0:01.461',-1.37
'0:01.465',-1.02
'0:01.469',-0.99
'0:01.473',-0.66
'0:01.477',-0.29
'0:01.480',0.01
'0:01.484',0
'0:01.488',-0.07
'0:01.492',-0.2
'0:01.496',-0.33
'0:01.500',-0.19
'0:01.504',0.2
'0:01.508',0.49
'0:01.512',0.49
'0:01.516',0.35
'0:01.520',0.35
'0:01.523',0.46
'0:01.527',0.37
'0:01.531',0.34
'0:01.535',0.25
'0:01.539',0.56
'0:01.543',1.1
'0:01.547',1.95
'0:01.551',2.51
'0:01.555',2.71
'0:01.559',2.88
'0:01.563',3.24
'0:01.566',3.3
'0:01.570',3.24
'0:01.574',3
'0:01.578',2.47
'0:01.582',1.33
'0:01.586',0.3
'0:01.590',0.47
'0:01.594',0.92
'0:01.598',0.59
'0:01.602',0.27
'0:01.605',0.19
'0:01.609',-0.35
'0:01.613',-1.3
'0:01.617',-1.33
'0:01.621',-0.82
'0:01.625',-0.19
'0:01.629',0.17
'0:01.633',0.08
'0:01.637',-0.29
'0:01.641',-0.8
'0:01.645',-0.93
'0:01.648',-0.56
'0:01.652',0.03
'0:01.656',0
'0:01.660',-0.12
'0:01.664',-0.55
'0:01.668',-0.94
'0:01.672',-1
'0:01.676',-1.32
'0:01.680',-1.68
'0:01.684',-1.85
'0:01.688',-1.94
'0:01.691',-1.9
'0:01.695',-1.78
'0:01.699',-1.82
'0:01.703',-2.41
'0:01.707',-2.52
'0:01.711',-2.17
'0:01.715',-1.85
'0:01.719',-1.24
'0:01.723',-0.88
'0:01.727',-0.28
'0:01.730',1.56
'0:01.734',4.07
'0:01.738',6.53
'0:01.742',7.64
'0:01.746',5.58
'0:01.750',0.87
'0:01.754',-4.4
'0:01.758',-7.93
'0:01.762',-9.41
'0:01.766',-8.81
'0:01.770',-6.97
'0:01.773',-5.28
'0:01.777',-4.17
'0:01.781',-3.14
'0:01.785',-2.28
'0:01.789',-1.07
'0:01.793',-0.26
'0:01.797',-0.56
'0:01.801',-1.29
'0:01.805',-1.02
'0:01.809',-0.44
'0:01.813',-0.4
'0:01.816',-0.6
'0:01.820',-0.23
'0:01.824',0.14
'0:01.828',-0.24
'0:01.832',-0.58
'0:01.836',-0.31
'0:01.840',0.52
'0:01.844',1.34
'0:01.848',2.05
'0:01.852',2.36
'0:01.855',2.38
'0:01.859',2.58
'0:01.863',2.86
'0:01.867',3.12
'0:01.871',3.4
'0:01.875',3.81
'0:01.879',4.16
'0:01.883',4.41
'0:01.887',4.41
'0:01.891',4.25
'0:01.895',4.23
'0:01.898',4.22
'0:01.902',3.9
'0:01.906',3.32
'0:01.910',2.44
'0:01.914',1.51
'0:01.918',0.95
'0:01.922',0.76
'0:01.926',0.46
'0:01.930',-0.06
'0:01.934',-0.26
'0:01.938',-0.22
'0:01.941',-0.43
'0:01.945',-0.45
'0:01.949',0.23
'0:01.953',1.05
'0:01.957',1.22
'0:01.961',0.36
'0:01.965',-0.67
'0:01.969',-1.42
'0:01.973',-1.3
'0:01.977',-0.58
'0:01.980',-0.2
'0:01.984',-0.59
'0:01.988',-1.26
'0:01.992',-1.19
'0:01.996',-1
'0:02.000',-1.42
'0:02.004',-1.97
'0:02.008',-2.22
'0:02.012',-2.12
'0:02.016',-1.82
'0:02.020',-1.72
'0:02.023',-1.92
'0:02.027',-2.21
'0:02.031',-2.24
'0:02.035',-1.95
'0:02.039',-1.58
'0:02.043',-1.53
'0:02.047',-1.65
'0:02.051',-1.38
'0:02.055',-0.54
'0:02.059',0.77
'0:02.063',2.69
'0:02.066',5.16
'0:02.070',7.73
'0:02.074',7.99
'0:02.078',4.82
'0:02.082',-0.79
'0:02.086',-6.02
'0:02.090',-8.96
'0:02.094',-9.59
'0:02.098',-8.62
'0:02.102',-7.1
'0:02.105',-5.46
'0:02.109',-3.42
'0:02.113',-1.82
'0:02.117',-0.85
'0:02.121',-0.63
'0:02.125',-0.5
'0:02.129',-0.11
'0:02.133',0.27
'0:02.137',0.08
'0:02.141',-0.19
'0:02.145',-0.19
'0:02.148',-0.14
'0:02.152',-0.21
'0:02.156',-0.06
'0:02.160',0.17
'0:02.164',0.02
'0:02.168',-0.03
'0:02.172',0.54
'0:02.176',0.83
'0:02.180',0.97
'0:02.184',1.25
'0:02.188',1.47
'0:02.191',1.88
'0:02.195',2.24
'0:02.199',2.62
'0:02.203',3.32
'0:02.207',3.84
'0:02.211',4.35
'0:02.215',4.78
'0:02.219',4.83
'0:02.223',4.56
'0:02.227',4.22
'0:02.230',4.09
'0:02.234',3.76
'0:02.238',3.66
'0:02.242',3.43
'0:02.246',2.6
'0:02.250',1.58
'0:02.254',1.21
'0:02.258',1.34
'0:02.262',1.22
'0:02.266',0.8
'0:02.270',0.67
'0:02.273',0.53
'0:02.277',0.25
'0:02.281',0.27
'0:02.285',0.18
'0:02.289',0.13
'0:02.293',0.5
'0:02.297',0.88
'0:02.301',0.83
'0:02.305',0.36
'0:02.309',-0.27
'0:02.313',-0.51
'0:02.316',-0.2
'0:02.320',-0.81
'0:02.324',-1.48
'0:02.328',-1.61
'0:02.332',-1.74
'0:02.336',-1.51
'0:02.340',-1.39
'0:02.344',-1.29
'0:02.348',-1.78
'0:02.352',-2.41
'0:02.355',-2.87
'0:02.359',-3.36
'0:02.363',-3.45
'0:02.367',-3.18
'0:02.371',-2.79
'0:02.375',-2.28
'0:02.379',-1.57
'0:02.383',-0.72
'0:02.387',0.84
'0:02.391',2.93
'0:02.395',5.49
'0:02.398',7.53
'0:02.402',6.33
'0:02.406',1.46
'0:02.410',-4.43
'0:02.414',-8.27
'0:02.418',-9.64
'0:02.422',-9.16
'0:02.426',-7.85
'0:02.430',-6.46
'0:02.434',-5.39
'0:02.438',-4.3
'0:02.441',-3.42
'0:02.445',-2.74
'0:02.449',-2.11
'0:02.453',-1.67
'0:02.457',-1.21
'0:02.461',-0.92
'0:02.465',-0.84
'0:02.469',-0.77
'0:02.473',-0.56
'0:02.477',-0.33
'0:02.480',-0.09
'0:02.484',0.1
'0:02.488',0.26
'0:02.492',0.59
'0:02.496',0.73
'0:02.500',0.68
'0:02.504',0.54
'0:02.508',0.09
'0:02.512',-0.04
'0:02.516',0.7
'0:02.520',1.72
'0:02.523',2.51
'0:02.527',2.88
'0:02.531',2.87
'0:02.535',2.74
'0:02.539',2.93
'0:02.543',3.54
'0:02.547',4.3
'0:02.551',4.61
'0:02.555',4.23
'0:02.559',3.63
'0:02.563',2.84
'0:02.566',2.41
'0:02.570',1.82
'0:02.574',0.82
'0:02.578',0.81
'0:02.582',1.39
'0:02.586',1.41
'0:02.590',1.15
'0:02.594',0.87
'0:02.598',0.75
'0:02.602',0.62
'0:02.605',0.09
'0:02.609',-0.19
'0:02.613',0.02
'0:02.617',0.52
'0:02.621',0.61
'0:02.625',0.36
'0:02.629',-0.01
'0:02.633',0.55
'0:02.637',0.82
'0:02.641',0.58
'0:02.645',-0.06
'0:02.648',-1.47
'0:02.652',-2.46
'0:02.656',-2.4
'0:02.660',-1.95
'0:02.664',-2.08
'0:02.668',-2.54
'0:02.672',-2.77
'0:02.676',-2.65
'0:02.680',-1.84
'0:02.684',-0.88
'0:02.688',-0.38
'0:02.691',-0.22
'0:02.695',-0.46
'0:02.699',-0.88
'0:02.703',-1.09
'0:02.707',-0.89
'0:02.711',0
'0:02.715',2.02
'0:02.719',4.78
'0:02.723',7.34
'0:02.727',7.89
'0:02.730',5.42
'0:02.734',0.42
'0:02.738',-5.18
'0:02.742',-8.73
'0:02.746',-9.78
'0:02.750',-8.59
'0:02.754',-6.89
'0:02.758',-5.6
'0:02.762',-4.12
'0:02.766',-2.65
'0:02.770',-1.54
'0:02.773',-1.04
'0:02.777',-0.78
'0:02.781',-0.84
'0:02.785',-0.86
'0:02.789',-1.12
'0:02.793',-0.44
'0:02.797',0.83
'0:02.801',1.43
'0:02.805',0.72
'0:02.809',0.54
'0:02.813',0.82
'0:02.816',1.55
'0:02.820',2.01
'0:02.824',1.89
'0:02.828',0.94
'0:02.832',0.56
'0:02.836',1.22
'0:02.840',2.43
'0:02.844',2.84
'0:02.848',2.8
'0:02.852',2.64
'0:02.855',3.51
'0:02.859',4.71
'0:02.863',4.94
'0:02.867',4.97
'0:02.871',4.46
'0:02.875',4.43
'0:02.879',5.33
'0:02.883',6.15
'0:02.887',6.09
'0:02.891',5.73
'0:02.895',5.35
'0:02.898',4.52
'0:02.902',3.34
'0:02.906',2.35
'0:02.910',1.82
'0:02.914',1.48
'0:02.918',1.08
'0:02.922',0.6
'0:02.926',0.25
'0:02.930',0.02
'0:02.934',-0.13
'0:02.938',-0.34
'0:02.941',-0.54
'0:02.945',-0.63
'0:02.949',-0.64
'0:02.953',-0.8
'0:02.957',-1.12
'0:02.961',-1.19
'0:02.965',-0.96
'0:02.969',-0.58
'0:02.973',-0.43
'0:02.977',-0.61
'0:02.980',-0.66
'0:02.984',-0.91
'0:02.988',-1.37
'0:02.992',-2.04
'0:02.996',-2.51
'0:03.000',-2.81
'0:03.004',-2.95
'0:03.008',-2.8
'0:03.012',-2.47
'0:03.016',-2.22
'0:03.020',-2.22
'0:03.023',-2.22
'0:03.027',-2.3
'0:03.031',-2.31
'0:03.035',-1.81
'0:03.039',-0.98
'0:03.043',0.22
'0:03.047',1.99
'0:03.051',4.27
'0:03.055',5.69
'0:03.059',4.03
'0:03.063',0.09
'0:03.066',-4.42
'0:03.070',-7.58
'0:03.074',-8.72
'0:03.078',-8.48
'0:03.082',-7.5
'0:03.086',-5.91
'0:03.090',-4.04
'0:03.094',-2.71
'0:03.098',-1.94
'0:03.102',-1.65
'0:03.105',-1.45
'0:03.109',-1.27
'0:03.113',-1.23
'0:03.117',-0.96
'0:03.121',-0.57
'0:03.125',-0.35
'0:03.129',-0.42
'0:03.133',-0.76
'0:03.137',-0.77
'0:03.141',-0.52
'0:03.145',-0.14
'0:03.148',0.28
'0:03.152',0.6
'0:03.156',0.83
'0:03.160',1.02
'0:03.164',0.91
'0:03.168',0.84
'0:03.172',1.16
'0:03.176',1.56
'0:03.180',1.8
'0:03.184',2.24
'0:03.188',2.92
'0:03.191',3.22
'0:03.195',3.35
'0:03.199',3.54
'0:03.203',3.57
'0:03.207',3.43
'0:03.211',3.5
'0:03.215',3.33
'0:03.219',3.04
'0:03.223',2.8
'0:03.227',2.38
'0:03.230',2.02
'0:03.234',1.54
'0:03.238',0.8
'0:03.242',0.23
'0:03.246',-0.02
'0:03.250',-0.11
'0:03.254',-0.27
'0:03.258',-0.56
'0:03.262',-0.62
'0:03.266',-0.53
'0:03.270',-0.43
'0:03.273',-0.19
'0:03.277',-0.3
'0:03.281',-0.38
'0:03.285',-0.29
'0:03.289',-0.44
'0:03.293',-0.49
'0:03.297',-0.64
'0:03.301',-0.95
'0:03.305',-1.57
'0:03.309',-2.07
'0:03.313',-2.13
'0:03.316',-2.75
'0:03.320',-3.62
'0:03.324',-3.81
'0:03.328',-3.3
'0:03.332',-2.82
'0:03.336',-2.49
'0:03.340',-2.72
'0:03.344',-3.24
'0:03.348',-3.31
'0:03.352',-3.23
'0:03.355',-2.93
'0:03.359',-2.51
'0:03.363',-2.19
'0:03.367',-1.12
'0:03.371',1.02
'0:03.375',3.93
'0:03.379',6.81
'0:03.383',7.46
'0:03.387',4.48
'0:03.391',-0.99
'0:03.395',-6.27
'0:03.398',-9.25
'0:03.402',-9.95
'0:03.406',-9.14
'0:03.410',-7.61
'0:03.414',-5.93
'0:03.418',-4.44
'0:03.422',-2.97
'0:03.426',-2.05
'0:03.430',-1.71
'0:03.434',-1.52
'0:03.438',-1.19
'0:03.441',-0.9
'0:03.445',-0.44
'0:03.449',0.07
'0:03.453',0.34
'0:03.457',0.52
'0:03.461',0.82
'0:03.465',1.19
'0:03.469',1.47
'0:03.473',1.72
'0:03.477',1.93
'0:03.480',1.97
'0:03.484',1.64
'0:03.488',1.15
'0:03.492',1.26
'0:03.496',1.77
'0:03.500',2.26
'0:03.504',2.8
'0:03.508',3.6
'0:03.512',4.35
'0:03.516',4.8
'0:03.520',4.66
'0:03.523',3.97
'0:03.527',3.75
'0:03.531',3.69
'0:03.535',3.89
'0:03.539',3.65
'0:03.543',2.64
'0:03.547',2.16
'0:03.551',2.16
'0:03.555',2.04
'0:03.559',1.6
'0:03.563',0.95
'0:03.566',0.76
'0:03.570',0.81
'0:03.574',0.62
'0:03.578',0.37
'0:03.582',0
'0:03.586',-0.46
'0:03.590',-0.38
'0:03.594',0.11
'0:03.598',0.29
'0:03.602',0.2
'0:03.605',-0.24
'0:03.609',-0.1
'0:03.613',-0.26
'0:03.617',-0.94
'0:03.621',-1.11
'0:03.625',-0.69
'0:03.629',-0.43
'0:03.633',-0.55
'0:03.637',-1.42
'0:03.641',-2.1
'0:03.645',-1.96
'0:03.648',-1.56
'0:03.652',-1.49
'0:03.656',-1.49
'0:03.660',-1.72
'0:03.664',-1.59
'0:03.668',-1.47
'0:03.672',-1.71
'0:03.676',-1.77
'0:03.680',-1.3
'0:03.684',-1.25
'0:03.688',-1.12
'0:03.691',-0.01
'0:03.695',2.08
'0:03.699',4.75
'0:03.703',7.53
'0:03.707',7.95
'0:03.711',5.88
'0:03.715',2.05
'0:03.719',-2.6
'0:03.723',-6.15
'0:03.727',-8.14
'0:03.730',-8.06
'0:03.734',-6.79
'0:03.738',-5.03
'0:03.742',-3.43
'0:03.746',-1.98
'0:03.750',-1.5
'0:03.754',-1.96
'0:03.758',-2.12
'0:03.762',-1.14
'0:03.766',0.47
'0:03.770',1.26
'0:03.773',0.56
'0:03.777',0.03
'0:03.781',0.26
'0:03.785',0.74
'0:03.789',1.16
'0:03.793',1.87
'0:03.797',2.02
'0:03.801',1.74
'0:03.805',1.14
'0:03.809',1.37
'0:03.813',1.89
'0:03.816',2.42
'0:03.820',2.77
'0:03.824',3.2
'0:03.828',3.1
'0:03.832',2.94
'0:03.836',3.61
'0:03.840',4.51
'0:03.844',4.99
'0:03.848',5.11
'0:03.852',4.98
'0:03.855',5.22
'0:03.859',6.1
'0:03.863',6.42
'0:03.867',6.2
'0:03.871',5.49
'0:03.875',4.98
'0:03.879',4.37
'0:03.883',3.45
'0:03.887',2.81
'0:03.891',2.04
'0:03.895',1.35
'0:03.898',1.22
'0:03.902',1.11
'0:03.906',1.1
'0:03.910',1.03
'0:03.914',1.18
'0:03.918',1.48
'0:03.922',1.82
'0:03.926',1.95
'0:03.930',1.74
'0:03.934',1.23
'0:03.938',0.72
'0:03.941',0.49
'0:03.945',0.44
'0:03.949',0.52
'0:03.953',0.74
'0:03.957',0.42
'0:03.961',-0.27
'0:03.965',-0.89
'0:03.969',-1.29
'0:03.973',-1.58
'0:03.977',-1.84
'0:03.980',-2.23
'0:03.984',-2.55
'0:03.988',-2.68
'0:03.992',-2.68
'0:03.996',-2.63
'0:04.000',-2.7
'0:04.004',-2.98
'0:04.008',-3.44
'0:04.012',-3.32
'0:04.016',-3.1
'0:04.020',-2.13
'0:04.023',-0.2
'0:04.027',2.07
'0:04.031',4.34
'0:04.035',6.14
'0:04.039',5.25
'0:04.043',1.57
'0:04.047',-3.58
'0:04.051',-7.86
'0:04.055',-10.12
'0:04.059',-10.35
'0:04.063',-9.46
'0:04.066',-8.13
'0:04.070',-6.77
'0:04.074',-5.5
'0:04.078',-4.3
'0:04.082',-3.36
'0:04.086',-2.66
'0:04.090',-2.2
'0:04.094',-1.78
'0:04.098',-1.4
'0:04.102',-0.98
'0:04.105',-0.75
'0:04.109',-1.02
'0:04.113',-1.16
'0:04.117',-1.07
'0:04.121',-1.01
'0:04.125',-0.9
'0:04.129',-0.79
'0:04.133',-0.52
'0:04.137',-0.21
'0:04.141',0.15
'0:04.145',0.54
'0:04.148',0.66
'0:04.152',0.88
'0:04.156',1.5
'0:04.160',1.94
'0:04.164',2.55
'0:04.168',3.04
'0:04.172',3.07
'0:04.176',2.91
'0:04.180',3.02
'0:04.184',3.02
'0:04.188',3.05
'0:04.191',3.1
'0:04.195',3.11
'0:04.199',2.95
'0:04.203',2.64
'0:04.207',2.25
'0:04.211',1.68
'0:04.215',1.23
'0:04.219',0.54
'0:04.223',-0.14
'0:04.227',-0.75
'0:04.230',-1.23
'0:04.234',-1.21
'0:04.238',-1.12
'0:04.242',-1.28
'0:04.246',-1.72
'0:04.250',-1.82
'0:04.254',-1.37
'0:04.258',-0.99
'0:04.262',-0.82
'0:04.266',-0.62
'0:04.270',-0.53
'0:04.273',-0.36
'0:04.277',-0.78
'0:04.281',-1.47
'0:04.285',-1.85
'0:04.289',-1.9
'0:04.293',-1.87
'0:04.297',-1.96
'0:04.301',-2
'0:04.305',-1.9
'0:04.309',-1.75
'0:04.313',-2.08
'0:04.316',-2.71
'0:04.320',-2.89
'0:04.324',-2.83
'0:04.328',-2.34
'0:04.332',-1.96
'0:04.336',-1.77
'0:04.340',-1.86
'0:04.344',-1.37
'0:04.348',-0.68
'0:04.352',0.79
'0:04.355',3.5
'0:04.359',6.9
'0:04.363',8.45
'0:04.367',5.88
'0:04.371',0.13
'0:04.375',-5.47
'0:04.379',-8.89
'0:04.383',-10.01
'0:04.387',-9.98
'0:04.391',-9.39
'0:04.395',-8.27
'0:04.398',-6.8
'0:04.402',-5.06
'0:04.406',-3.78
'0:04.410',-2.77
'0:04.414',-2.14
'0:04.418',-1.78
'0:04.422',-1.37
'0:04.426',-0.8
'0:04.430',-0.45
'0:04.434',-0.51
'0:04.438',-0.45
'0:04.441',-0.36
'0:04.445',-0.43
'0:04.449',-0.36
'0:04.453',-0.57
'0:04.457',-0.75
'0:04.461',-0.63
'0:04.465',0.33
'0:04.469',1.67
'0:04.473',3.01
'0:04.477',4.2
'0:04.480',4.8
'0:04.484',5.23
'0:04.488',5.47
'0:04.492',5.65
'0:04.496',6.01
'0:04.500',6.43
'0:04.504',6.74
'0:04.508',6.73
'0:04.512',6.25
'0:04.516',5.73
'0:04.520',5.16
'0:04.523',4.81
'0:04.527',4.25
'0:04.531',3.41
'0:04.535',2.69
'0:04.539',2.09
'0:04.543',2.05
'0:04.547',2.28
'0:04.551',2.43
'0:04.555',2.02
'0:04.559',1.44
'0:04.563',0.61
'0:04.566',0.18
'0:04.570',0.31
'0:04.574',0.63
'0:04.578',0.94
'0:04.582',0.04
'0:04.586',-0.31
'0:04.590',-0.33
'0:04.594',-0.13
'0:04.598',0.42
'0:04.602',1.06
'0:04.605',1.07
'0:04.609',0.66
'0:04.613',0.11
'0:04.617',-0.4
'0:04.621',-0.99
'0:04.625',-1.49
'0:04.629',-1.67
'0:04.633',-1.16
'0:04.637',-0.84
'0:04.641',-0.64
'0:04.645',-0.32
'0:04.648',-0.32
'0:04.652',-0.51
'0:04.656',-0.26
'0:04.660',-0.39
'0:04.664',-0.63
'0:04.668',-0.36
'0:04.672',0.38
'0:04.676',1.26
'0:04.680',3.22
'0:04.684',5.96
'0:04.688',8.71
'0:04.691',8.76
'0:04.695',5.49
'0:04.699',0.21
'0:04.703',-5.33
'0:04.707',-8.56
'0:04.711',-9.09
'0:04.715',-7.86
'0:04.719',-6.27
'0:04.723',-4.71
'0:04.727',-4.3
'0:04.730',-3.7
'0:04.734',-2.63
'0:04.738',-2.3
'0:04.742',-1.98
'0:04.746',-0.57
'0:04.750',0.92
'0:04.754',1.19
'0:04.758',0.76
'0:04.762',0.79
'0:04.766',1.31
'0:04.770',1.42
'0:04.773',1.3
'0:04.777',1.41
'0:04.781',0.69
'0:04.785',-0.24
'0:04.789',-0.65
'0:04.793',-0.41
'0:04.797',-0.06
'0:04.801',0.56
'0:04.805',1.76
'0:04.809',2.2
'0:04.813',3.23
'0:04.816',4.03
'0:04.820',4.4
'0:04.824',4.23
'0:04.828',3.97
'0:04.832',3.62
'0:04.836',4.57
'0:04.840',5.32
'0:04.844',4.81
'0:04.848',4.99
'0:04.852',5.29
'0:04.855',5.12
'0:04.859',4.37
'0:04.863',3.28
'0:04.867',2.62
'0:04.871',2.37
'0:04.875',1.96
'0:04.879',1.75
'0:04.883',1.58
'0:04.887',1.17
'0:04.891',0.61
'0:04.895',0.35
'0:04.898',0.26
'0:04.902',-0.04
'0:04.906',-0.4
'0:04.910',-0.6
'0:04.914',-0.5
'0:04.918',-0.34
'0:04.922',-0.32
'0:04.926',-0.59
'0:04.930',-0.99
'0:04.934',-1.33
'0:04.938',-1.56
'0:04.941',-1.62
'0:04.945',-1.58
'0:04.949',-1.76
'0:04.953',-2.05
'0:04.957',-2.42
'0:04.961',-2.72
'0:04.965',-2.91
'0:04.969',-3.1
'0:04.973',-3.35
'0:04.977',-3.63
'0:04.980',-3.75
'0:04.984',-3.93
'0:04.988',-4.23
'0:04.992',-4.44
'0:04.996',-4.3
'0:05.000',-3.61
'0:05.004',-2.41
'0:05.008',-0.57
'0:05.012',1.83
'0:05.016',4.38
'0:05.020',5.62
'0:05.023',3.76
'0:05.027',-0.54
'0:05.031',-5.36
'0:05.035',-8.51
'0:05.039',-9.66
'0:05.043',-9.1
'0:05.047',-7.9
'0:05.051',-6.78
'0:05.055',-5.76
'0:05.059',-4.73
'0:05.063',-3.79
'0:05.066',-3.08
'0:05.070',-2.64
'0:05.074',-2.43
'0:05.078',-2.23
'0:05.082',-2.15
'0:05.086',-2.06
'0:05.090',-1.86
'0:05.094',-1.57
'0:05.098',-1.57
'0:05.102',-1.57
'0:05.105',-1.37
'0:05.109',-1.17
'0:05.113',-0.85
'0:05.117',-0.43
'0:05.121',-0.22
'0:05.125',0.08
'0:05.129',0.43
'0:05.133',0.79
'0:05.137',0.9
'0:05.141',1
'0:05.145',1.65
'0:05.148',2.74
'0:05.152',3.48
'0:05.156',3.83
'0:05.160',4.08
'0:05.164',4.13
'0:05.168',4.11
'0:05.172',3.91
'0:05.176',3.59
'0:05.180',2.92
'0:05.184',2.04
'0:05.188',1.52
'0:05.191',1.8
'0:05.195',2.12
'0:05.199',1.88
'0:05.203',0.8
'0:05.207',-0.38
'0:05.211',-1.07
'0:05.215',-1.34
'0:05.219',-0.92
'0:05.223',-0.58
'0:05.227',-0.91
'0:05.230',-1.42
'0:05.234',-1.9
'0:05.238',-1.9
'0:05.242',-2.04
'0:05.246',-1.94
'0:05.250',-1.57
'0:05.254',-1.42
'0:05.258',-1.68
'0:05.262',-2.13
'0:05.266',-2.42
'0:05.270',-2.72
'0:05.273',-3.03
'0:05.277',-2.95
'0:05.281',-3
'0:05.285',-3.39
'0:05.289',-3.81
'0:05.293',-3.7
'0:05.297',-3.14
'0:05.301',-2.76
'0:05.305',-2.82
'0:05.309',-2.74
'0:05.313',-2.76
'0:05.316',-2.88
'0:05.320',-2.63
'0:05.324',-2.29
'0:05.328',-1.66
'0:05.332',-0.26
'0:05.336',2.32
'0:05.340',5.78
'0:05.344',8.81
'0:05.348',9.21
'0:05.352',5.6
'0:05.355',-0.98
'0:05.359',-6.56
'0:05.363',-8.16
'0:05.367',-7.35
'0:05.371',-6.63
'0:05.375',-6.2
'0:05.379',-5.35
'0:05.383',-4.39
'0:05.387',-3.34
'0:05.391',-2.33
'0:05.395',-1.33
'0:05.398',-0.52
'0:05.402',-0.04
'0:05.406',-0.04
'0:05.410',0.22
'0:05.414',0.73
'0:05.418',0.83
'0:05.422',1.23
'0:05.426',1.99
'0:05.430',2.13
'0:05.434',2.47
'0:05.438',2.46
'0:05.441',2.44
'0:05.445',2.67
'0:05.449',2.94
'0:05.453',3.26
'0:05.457',3.38
'0:05.461',3.31
'0:05.465',3.29
'0:05.469',3.05
'0:05.473',3.48
'0:05.477',4.24
'0:05.480',5.29
'0:05.484',6.33
'0:05.488',6.25
'0:05.492',5.79
'0:05.496',5.61
'0:05.500',5.47
'0:05.504',5.21
'0:05.508',4.79
'0:05.512',4.53
'0:05.516',4.36
'0:05.520',3.97
'0:05.523',2.96
'0:05.527',1.93
'0:05.531',1.25
'0:05.535',1.01
'0:05.539',0.58
'0:05.543',0.96
'0:05.547',1.52
'0:05.551',1.56
'0:05.555',1.53
'0:05.559',1.06
'0:05.563',0.61
'0:05.566',0.77
'0:05.570',1.51
'0:05.574',1.54
'0:05.578',1.35
'0:05.582',1.69
'0:05.586',1.69
'0:05.590',1.15
'0:05.594',0.01
'0:05.598',-1.01
'0:05.602',-0.84
'0:05.605',-1.03
'0:05.609',-0.5
'0:05.613',-0.41
'0:05.617',-1.44
'0:05.621',-2.81
'0:05.625',-3.18
'0:05.629',-2.95
'0:05.633',-2.3
'0:05.637',-1.34
'0:05.641',-1.1
'0:05.645',-1.48
'0:05.648',-1.81
'0:05.652',-1.66
'0:05.656',-1.21
'0:05.660',0.09
'0:05.664',1.9
'0:05.668',4.62
'0:05.672',7.28
'0:05.676',6.71
'0:05.680',3.67
'0:05.684',-0.86
'0:05.688',-5.06
'0:05.691',-7.61
'0:05.695',-8.21
'0:05.699',-7.39
'0:05.703',-5.6
'0:05.707',-4.01
'0:05.711',-3.76
'0:05.715',-3.37
'0:05.719',-2.07
'0:05.723',-1.66
'0:05.727',-1.25
'0:05.730',0.05
'0:05.734',0.57
'0:05.738',-0.71
'0:05.742',-0.64
'0:05.746',0.4
'0:05.750',1.03
'0:05.754',1.92
'0:05.758',1.99
'0:05.762',1.15
'0:05.766',0.77
'0:05.770',0.58
'0:05.773',0.73
'0:05.777',1.09
'0:05.781',1.81
'0:05.785',2.26
'0:05.789',2.82
'0:05.793',3.61
'0:05.797',4.11
'0:05.801',4.5
'0:05.805',4.22
'0:05.809',4.12
'0:05.813',4.72
'0:05.816',5.2
'0:05.820',4.48
'0:05.824',4.36
'0:05.828',5.22
'0:05.832',5.37
'0:05.836',5.29
'0:05.840',4.7
'0:05.844',3.92
'0:05.848',3.19
'0:05.852',2.53
'0:05.855',2.22
'0:05.859',1.83
'0:05.863',1.3
'0:05.867',0.6
'0:05.871',-0.04
'0:05.875',-0.49
'0:05.879',-0.57
'0:05.883',-0.84
'0:05.887',-1.36
'0:05.891',-1.71
'0:05.895',-1.8
'0:05.898',-1.82
'0:05.902',-1.73
'0:05.906',-1.66
'0:05.910',-1.73
'0:05.914',-2.05
'0:05.918',-2.37
'0:05.922',-2.61
'0:05.926',-2.78
'0:05.930',-2.63
'0:05.934',-2.41
'0:05.938',-2.51
'0:05.941',-2.73
'0:05.945',-2.69
'0:05.949',-2.45
'0:05.953',-2.39
'0:05.957',-2.37
'0:05.961',-2.57
'0:05.965',-2.78
'0:05.969',-2.8
'0:05.973',-2.8
'0:05.977',-2.82
'0:05.980',-2.66
'0:05.984',-1.87
'0:05.988',-0.24
'0:05.992',2.05
'0:05.996',4.48
'0:06.000',6.18
'0:06.004',5.18
'0:06.008',1.28
'0:06.012',-4.11
'0:06.016',-8.44
'0:06.020',-10.4
'0:06.023',-10.41
'0:06.027',-9.45
'0:06.031',-8.05
'0:06.035',-6.56
'0:06.039',-5.43
'0:06.043',-4.39
'0:06.047',-3.54
'0:06.051',-2.9
'0:06.055',-2.22
'0:06.059',-1.74
'0:06.063',-1.38
'0:06.066',-1.26
'0:06.070',-0.93
'0:06.074',-0.49
'0:06.078',-0.07
'0:06.082',0.07
'0:06.086',-0.34
'0:06.090',-0.65
'0:06.094',-0.51
'0:06.098',-0.54
'0:06.102',-0.52
'0:06.105',-0.22
'0:06.109',0.22
'0:06.113',0.53
'0:06.117',1.03
'0:06.121',1.5
'0:06.125',1.95
'0:06.129',2.2
'0:06.133',2.42
'0:06.137',2.55
'0:06.141',3.07
'0:06.145',3.55
'0:06.148',3.59
'0:06.152',3.12
'0:06.156',2.68
'0:06.160',2.27
'0:06.164',1.68
'0:06.168',1.25
'0:06.172',0.9
'0:06.176',0.67
'0:06.180',0.1
'0:06.184',-0.45
'0:06.188',-0.78
'0:06.191',-0.8
'0:06.195',-0.87
'0:06.199',-0.93
'0:06.203',-1.07
'0:06.207',-1.11
'0:06.211',-0.97
'0:06.215',-1.04
'0:06.219',-0.96
'0:06.223',-1.02
'0:06.227',-0.86
'0:06.230',-0.62
'0:06.234',-0.59
'0:06.238',-1.03
'0:06.242',-1.59
'0:06.246',-2.11
'0:06.250',-2.27
'0:06.254',-2.27
'0:06.258',-2.16
'0:06.262',-2.09
'0:06.266',-2.09
'0:06.270',-1.98
'0:06.273',-1.73
'0:06.277',-1.71
'0:06.281',-1.56
'0:06.285',-1.78
'0:06.289',-2.08
'0:06.293',-2.21
'0:06.297',-2.01
'0:06.301',-1.63
'0:06.305',-1.63
'0:06.309',-1.71
'0:06.313',-1.34
'0:06.316',0.74
'0:06.320',4.28
'0:06.324',8.13
'0:06.328',10.07
'0:06.332',8.08
'0:06.336',2.17
'0:06.340',-4.15
'0:06.344',-7.92
'0:06.348',-8.65
'0:06.352',-8.03
'0:06.355',-7.01
'0:06.359',-5.53
'0:06.363',-4.27
'0:06.367',-3.42
'0:06.371',-2.24
'0:06.375',-1.18
'0:06.379',-0.44
'0:06.383',0.34
'0:06.387',0.97
'0:06.391',1.48
'0:06.395',1.66
'0:06.398',1.32
'0:06.402',0.82
'0:06.406',1.23
'0:06.410',2.2
'0:06.414',2.64
'0:06.418',2.42
'0:06.422',1.39
'0:06.426',0.53
'0:06.430',-0.36
'0:06.434',0.09
'0:06.438',1.82
'0:06.441',3.28
'0:06.445',4.38
'0:06.449',5.66
'0:06.453',6.33
'0:06.457',6.37
'0:06.461',6.05
'0:06.465',5.17
'0:06.469',5.36
'0:06.473',6.32
'0:06.477',6.8
'0:06.480',5.55
'0:06.484',3.55
'0:06.488',2.94
'0:06.492',2.53
'0:06.496',2.34
'0:06.500',2.07
'0:06.504',2.42
'0:06.508',2.14
'0:06.512',2.09
'0:06.516',1.04
'0:06.520',-0.6
'0:06.523',-0.58
'0:06.527',0.83
'0:06.531',1.15
'0:06.535',1.4
'0:06.539',1.13
'0:06.543',0.48
'0:06.547',0.04
'0:06.551',-0.14
'0:06.555',-0.95
'0:06.559',-2.11
'0:06.563',-2.06
'0:06.566',-0.71
'0:06.570',0.17
'0:06.574',-0.28
'0:06.578',0.42
'0:06.582',0.84
'0:06.586',-0.47
'0:06.590',-1.29
'0:06.594',-1.13
'0:06.598',-0.37
'0:06.602',0.21
'0:06.605',0.27
'0:06.609',0.11
'0:06.613',-0.61
'0:06.617',-0.18
'0:06.621',0.36
'0:06.625',-0.51
'0:06.629',-2.28
'0:06.633',-2.38
'0:06.637',-1.42
'0:06.641',0.15
'0:06.645',2.11
'0:06.648',4.34
'0:06.652',5.48
'0:06.656',4.98
'0:06.660',2.53
'0:06.664',-1.3
'0:06.668',-4.68
'0:06.672',-7.14
'0:06.676',-8.54
'0:06.680',-8.53
'0:06.684',-6.76
'0:06.688',-4.97
'0:06.691',-3.85
'0:06.695',-2.06
'0:06.699',-0.56
'0:06.703',-0.28
'0:06.707',-1.19
'0:06.711',-1.74
'0:06.715',-2.04
'0:06.719',-1.73
'0:06.723',-1.17
'0:06.727',-0.19
'0:06.730',0.93
'0:06.734',1.52
'0:06.738',1.24
'0:06.742',0.2
'0:06.746',-0.99
'0:06.750',-0.99
'0:06.754',-0.57
'0:06.758',-0.72
'0:06.762',0.09
'0:06.766',1.63
'0:06.770',2.08
'0:06.773',1.99
'0:06.777',2.16
'0:06.781',2.34
'0:06.785',3.16
'0:06.789',3.96
'0:06.793',4.62
'0:06.797',5.34
'0:06.801',5.57
'0:06.805',5.37
'0:06.809',4.74
'0:06.813',4.1
'0:06.816',3.53
'0:06.820',3.11
'0:06.824',2.77
'0:06.828',2.45
'0:06.832',1.94
'0:06.836',1.44
'0:06.840',1.1
'0:06.844',0.87
'0:06.848',0.61
'0:06.852',0.41
'0:06.855',-0.03
'0:06.859',-0.38
'0:06.863',-0.43
'0:06.867',-0.53
'0:06.871',-0.61
'0:06.875',-0.96
'0:06.879',-1.26
'0:06.883',-1.19
'0:06.887',-1.17
'0:06.891',-1.42
'0:06.895',-1.52
'0:06.898',-1.61
'0:06.902',-1.75
'0:06.906',-1.9
'0:06.910',-2.21
'0:06.914',-2.56
'0:06.918',-2.59
'0:06.922',-2.49
'0:06.926',-2.24
'0:06.930',-1.68
'0:06.934',-1.46
'0:06.938',-1.98
'0:06.941',-3.06
'0:06.945',-3.82
'0:06.949',-4.12
'0:06.953',-3.76
'0:06.957',-3.35
'0:06.961',-3
'0:06.965',-2.22
'0:06.969',-0.7
'0:06.973',1.77
'0:06.977',5.1
'0:06.980',7.1
'0:06.984',5.7
'0:06.988',1.51
'0:06.992',-3.92
'0:06.996',-8.34
'0:07.000',-10.48
'0:07.004',-10.58
'0:07.008',-9.59
'0:07.012',-8.22
'0:07.016',-6.6
'0:07.020',-4.88
'0:07.023',-3.8
'0:07.027',-3.39
'0:07.031',-3.1
'0:07.035',-2.72
'0:07.039',-2.55
'0:07.043',-2.33
'0:07.047',-2.03
'0:07.051',-1.49
'0:07.055',-0.9
'0:07.059',-0.16
'0:07.063',0.42
'0:07.066',0.32
'0:07.070',-0.36
'0:07.074',-1.27
'0:07.078',-1.77
'0:07.082',-1.54
'0:07.086',-1.31
'0:07.090',-0.95
'0:07.094',-0.53
'0:07.098',-0.36
'0:07.102',-0.1
'0:07.105',0.42
'0:07.109',1.22
'0:07.113',2.06
'0:07.117',2.66
'0:07.121',2.96
'0:07.125',3.02
'0:07.129',2.81
'0:07.133',2.45
'0:07.137',2.22
'0:07.141',2.22
'0:07.145',2.22
'0:07.148',1.59
'0:07.152',1.03
'0:07.156',0.89
'0:07.160',1.21
'0:07.164',1.47
'0:07.168',1.45
'0:07.172',0.99
'0:07.176',0.04
'0:07.180',0.09
'0:07.184',0.49
'0:07.188',0.02
'0:07.191',-0.38
'0:07.195',-0.44
'0:07.199',-0.71
'0:07.203',-0.67
'0:07.207',-0.98
'0:07.211',-0.56
'0:07.215',-0.14
'0:07.219',0.69
'0:07.223',1.61
'0:07.227',1.89
'0:07.230',1.75
'0:07.234',1.07
'0:07.238',0.16
'0:07.242',-0.52
'0:07.246',-0.59
'0:07.250',-0.54
'0:07.254',-0.13
'0:07.258',-0.12
'0:07.262',-0.13
'0:07.266',0.33
'0:07.270',0.76
'0:07.273',0.54
'0:07.277',-0.02
'0:07.281',-0.33
'0:07.285',0.09
'0:07.289',0.87
'0:07.293',1.81
'0:07.297',3.03
'0:07.301',4.64
'0:07.305',7.3
'0:07.309',9.77
'0:07.313',9.28
'0:07.316',4.94
'0:07.320',-1.04
'0:07.324',-5.78
'0:07.328',-8.4
'0:07.332',-8.93
'0:07.336',-8.31
'0:07.340',-6.71
'0:07.344',-4.72
'0:07.348',-3.24
'0:07.352',-2.04
'0:07.355',-0.94
'0:07.359',0.04
'0:07.363',0.9
'0:07.367',1.01
'0:07.371',0.87
'0:07.375',1.18
'0:07.379',1.32
'0:07.383',1.19
'0:07.387',0.84
'0:07.391',0.54
'0:07.395',0.47
'0:07.398',0.07
'0:07.402',0.5
'0:07.406',1.15
'0:07.410',1.44
'0:07.414',1.5
'0:07.418',1.76
'0:07.422',1.99
'0:07.426',2.56
'0:07.430',3.2
'0:07.434',3.59
'0:07.438',3.73
'0:07.441',3.65
'0:07.445',3.46
'0:07.449',3.59
'0:07.453',3.77
'0:07.457',4.38
'0:07.461',4.75
'0:07.465',4.19
'0:07.469',4.1
'0:07.473',4.21
'0:07.477',4.08
'0:07.480',4.05
'0:07.484',3.34
'0:07.488',2.1
'0:07.492',1.35
'0:07.496',0.86
'0:07.500',0.5
'0:07.504',1.04
'0:07.508',1.16
'0:07.512',0.62
'0:07.516',0.58
'0:07.520',0.97
'0:07.523',0.97
'0:07.527',0.67
'0:07.531',0.34
'0:07.535',-0.04
'0:07.539',-0.32
'0:07.543',-0.53
'0:07.547',-0.88
'0:07.551',-0.56
'0:07.555',-0.11
'0:07.559',-0.04
'0:07.563',-0.7
'0:07.566',-1.09
'0:07.570',-1.07
'0:07.574',-1.42
'0:07.578',-2.16
'0:07.582',-3.11
'0:07.586',-3.2
'0:07.590',-2.78
'0:07.594',-2.77
'0:07.598',-2.95
'0:07.602',-2.66
'0:07.605',-2.32
'0:07.609',-1.76
'0:07.613',-1.64
'0:07.617',-1.32
'0:07.621',-0.9
'0:07.625',0.67
'0:07.629',3.24
'0:07.633',5.72
'0:07.637',6.73
'0:07.641',4.32
'0:07.645',-0.6
'0:07.648',-5.58
'0:07.652',-8.73
'0:07.656',-9.54
'0:07.660',-8.78
'0:07.664',-8.09
'0:07.668',-6.66
'0:07.672',-4.61
'0:07.676',-2.87
'0:07.680',-1.89
'0:07.684',-1.3
'0:07.688',-0.77
'0:07.691',-0.08
'0:07.695',-0.21
'0:07.699',-0.49
'0:07.703',0.04
'0:07.707',0.73
'0:07.711',1.3
'0:07.715',1.23
'0:07.719',1.16
'0:07.723',1.14
'0:07.727',1.07
'0:07.730',1.22
'0:07.734',0.84
'0:07.738',0.51
'0:07.742',0.63
'0:07.746',0.74
'0:07.750',0.61
'0:07.754',0.98
'0:07.758',2.11
'0:07.762',3.14
'0:07.766',3.75
'0:07.770',4.45
'0:07.773',5.35
'0:07.777',6.06
'0:07.781',6.02
'0:07.785',5.07
'0:07.789',4.79
'0:07.793',5.33
'0:07.797',5.75
'0:07.801',4.66
'0:07.805',3.57
'0:07.809',2.72
'0:07.813',2.57
'0:07.816',1.86
'0:07.820',1.2
'0:07.824',1.71
'0:07.828',2.02
'0:07.832',1.83
'0:07.836',1.41
'0:07.840',1.53
'0:07.844',2.11
'0:07.848',2.31
'0:07.852',1.4
'0:07.855',0.55
'0:07.859',-0.01
'0:07.863',-0.27
'0:07.867',-0.26
'0:07.871',-0.43
'0:07.875',-0.77
'0:07.879',-1
'0:07.883',-1.09
'0:07.887',-1.09
'0:07.891',-1.16
'0:07.895',-1.41
'0:07.898',-1.87
'0:07.902',-2.17
'0:07.906',-2.26
'0:07.910',-2.45
'0:07.914',-2.8
'0:07.918',-3.05
'0:07.922',-3.36
'0:07.926',-3.52
'0:07.930',-3.68
'0:07.934',-3.88
'0:07.938',-4.1
'0:07.941',-3.93
'0:07.945',-2.66
'0:07.949',-1.07
'0:07.953',0.49
'0:07.957',2.24
'0:07.961',4.46
'0:07.965',5.23
'0:07.969',2.8
'0:07.973',-1.63
'0:07.977',-6.43
'0:07.980',-9.82
'0:07.984',-11.32
'0:07.988',-10.77
'0:07.992',-9.15
'0:07.996',-7.17
'0:08.000',-5.73
'0:08.004',-5.02
'0:08.008',-4.43
'0:08.012',-3.8
'0:08.016',-3.06
'0:08.020',-2.17
'0:08.023',-1.28
'0:08.027',-0.84
'0:08.031',-0.94
'0:08.035',-1.41
'0:08.039',-1.91
'0:08.043',-2.04
'0:08.047',-1.48
'0:08.051',-0.64
'0:08.055',-0.37
'0:08.059',-0.67
'0:08.063',-0.93
'0:08.066',-1.09
'0:08.070',-1.29
'0:08.074',-0.92
'0:08.078',-0.39
'0:08.082',0.84
'0:08.086',2.15
'0:08.090',3.02
'0:08.094',3.58
'0:08.098',3.96
'0:08.102',3.84
'0:08.105',3.81
'0:08.109',4.04
'0:08.113',4.46
'0:08.117',4.96
'0:08.121',5.11
'0:08.125',4.84
'0:08.129',4.32
'0:08.133',3.88
'0:08.137',3.28
'0:08.141',2.42
'0:08.145',1.69
'0:08.148',1.73
'0:08.152',1.77
'0:08.156',1.27
'0:08.160',0.87
'0:08.164',0.89
'0:08.168',1.5
'0:08.172',1.78
'0:08.176',1.62
'0:08.180',1.11
'0:08.184',0.72
'0:08.188',0.48
'0:08.191',0.63
'0:08.195',1.09
'0:08.199',1.21
'0:08.203',0.7
'0:08.207',0.12
'0:08.211',0.14
'0:08.215',0.65
'0:08.219',0.64
'0:08.223',-0.21
'0:08.227',-1.3
'0:08.230',-1.82
'0:08.234',-1.97
'0:08.238',-1.8
'0:08.242',-1.69
'0:08.246',-1.6
'0:08.250',-1.69
'0:08.254',-2.05
'0:08.258',-2.34
'0:08.262',-2.08
'0:08.266',-1.63
'0:08.270',-1.09
'0:08.273',-0.31
'0:08.277',0.98
'0:08.281',2.52
'0:08.285',4.85
'0:08.289',7.8
'0:08.293',8.59
'0:08.297',5.68
'0:08.301',0.08
'0:08.305',-5.22
'0:08.309',-8.47
'0:08.313',-9.02
'0:08.316',-8.15
'0:08.320',-6.9
'0:08.324',-6.08
'0:08.328',-5.24
'0:08.332',-4.22
'0:08.336',-3.14
'0:08.340',-2.17
'0:08.344',-1.85
'0:08.348',-1.65
'0:08.352',-0.82
'0:08.355',-0.27
'0:08.359',-0.18
'0:08.363',-0.36
'0:08.367',-0.62
'0:08.371',-0.24
'0:08.375',0.13
'0:08.379',0.36
'0:08.383',0.4
'0:08.387',0.44
'0:08.391',0.59
'0:08.395',0.84
'0:08.398',0.95
'0:08.402',0.93
'0:08.406',1.21
'0:08.410',1.67
'0:08.414',2.16
'0:08.418',2.66
'0:08.422',3.24
'0:08.426',3.77
'0:08.430',4.1
'0:08.434',4.24
'0:08.438',4.05
'0:08.441',3.71
'0:08.445',3.85
'0:08.449',3.88
'0:08.453',3.37
'0:08.457',2.67
'0:08.461',1.97
'0:08.465',1.34
'0:08.469',0.92
'0:08.473',0.3
'0:08.477',-0.25
'0:08.480',-0.69
'0:08.484',-0.99
'0:08.488',-0.92
'0:08.492',-0.95
'0:08.496',-0.93
'0:08.500',-0.95
'0:08.504',-1.05
'0:08.508',-1.18
'0:08.512',-0.83
'0:08.516',-0.86
'0:08.520',-1.1
'0:08.523',-1.16
'0:08.527',-0.99
'0:08.531',-0.45
'0:08.535',-0.54
'0:08.539',-1.33
'0:08.543',-2.42
'0:08.547',-2.92
'0:08.551',-2.42
'0:08.555',-2.39
'0:08.559',-2.6
'0:08.563',-2.6
'0:08.566',-2.69
'0:08.570',-2.51
'0:08.574',-2.55
'0:08.578',-2.87
'0:08.582',-2.65
'0:08.586',-2.08
'0:08.590',-1.42
'0:08.594',-0.58
'0:08.598',0.15
'0:08.602',1.38
'0:08.605',3.59
'0:08.609',6.35
'0:08.613',9.05
'0:08.617',8.98
'0:08.621',5.51
'0:08.625',-0.67
'0:08.629',-5.82
'0:08.633',-8.49
'0:08.637',-7.98
'0:08.641',-6.19
'0:08.645',-3.9
'0:08.648',-2.7
'0:08.652',-2.2
'0:08.656',-2.57
'0:08.660',-3.3
'0:08.664',-3.25
'0:08.668',-2.49
'0:08.672',-1.95
'0:08.676',-1.13
'0:08.680',-1.04
'0:08.684',-1.48
'0:08.688',-1.23
'0:08.691',-0.4
'0:08.695',0.26
'0:08.699',0.49
'0:08.703',0.57
'0:08.707',0.81
'0:08.711',1.09
'0:08.715',1.8
'0:08.719',2.02
'0:08.723',1.82
'0:08.727',1.62
'0:08.730',2.11
'0:08.734',2.2
'0:08.738',1.72
'0:08.742',1.88
'0:08.746',3.01
'0:08.750',4.05
'0:08.754',4.02
'0:08.758',3.45
'0:08.762',3.68
'0:08.766',4.53
'0:08.770',4.93
'0:08.773',4.86
'0:08.777',4.06
'0:08.781',2.76
'0:08.785',2.04
'0:08.789',1.89
'0:08.793',1.91
'0:08.797',1.36
'0:08.801',1.22
'0:08.805',0.89
'0:08.809',0.66
'0:08.813',0.03
'0:08.816',-0.81
'0:08.820',-0.8
'0:08.824',-0.47
'0:08.828',-1.26
'0:08.832',-1.4
'0:08.836',-0.34
'0:08.840',0.12
'0:08.844',0.02
'0:08.848',0.18
'0:08.852',0.17
'0:08.855',-0.65
'0:08.859',-1.1
'0:08.863',-1.46
'0:08.867',-1.82
'0:08.871',-2.51
'0:08.875',-2.81
'0:08.879',-3.23
'0:08.883',-3.42
'0:08.887',-3.02
'0:08.891',-2
'0:08.895',-1.62
'0:08.898',-1.24
'0:08.902',-0.88
'0:08.906',-0.47
'0:08.910',-0.37
'0:08.914',-0.56
'0:08.918',-0.72
'0:08.922',-0.52
'0:08.926',-0.1
'0:08.930',0.57
'0:08.934',2.06
'0:08.938',4.24
'0:08.941',6.29
'0:08.945',5.98
'0:08.949',2.49
'0:08.953',-2.58
'0:08.957',-6.44
'0:08.961',-8.44
'0:08.965',-8.69
'0:08.969',-7.87
'0:08.973',-6.63
'0:08.977',-5.06
'0:08.980',-3.94
'0:08.984',-3.33
'0:08.988',-3.31
'0:08.992',-2.87
'0:08.996',-2
'0:09.000',-0.92
'0:09.004',0.17
'0:09.008',0.93
'0:09.012',1.18
'0:09.016',0.83
'0:09.020',0.37
'0:09.023',0.53
'0:09.027',0.94
'0:09.031',0.7
'0:09.035',0.49
'0:09.039',0.47
'0:09.043',0.54
'0:09.047',1.04
'0:09.051',1.55
'0:09.055',1.82
'0:09.059',1.82
'0:09.063',2.06
'0:09.066',2.38
'0:09.070',2.75
'0:09.074',3.2
'0:09.078',3.73
'0:09.082',3.68
'0:09.086',3.6
'0:09.090',4.1
'0:09.094',4.4
'0:09.098',4.46
'0:09.102',4.77
'0:09.105',4.91
'0:09.109',3.79
'0:09.113',2.75
'0:09.117',2.02
'0:09.121',1.2
'0:09.125',0.53
'0:09.129',0
'0:09.133',-0.57
'0:09.137',-0.75
'0:09.141',-0.65
'0:09.145',-0.39
'0:09.148',0.06
'0:09.152',0.45
'0:09.156',0.43
'0:09.160',0.36
'0:09.164',0.51
'0:09.168',0.45
'0:09.172',0.13
'0:09.176',-0.33
'0:09.180',-0.64
'0:09.184',-0.86
'0:09.188',-0.93
'0:09.191',-1.16
'0:09.195',-1.47
'0:09.199',-1.71
'0:09.203',-1.78
'0:09.207',-2.04
'0:09.211',-2.28
'0:09.215',-2.38
'0:09.219',-2.56
'0:09.223',-2.48
'0:09.227',-2.23
'0:09.230',-2.13
'0:09.234',-2.03
'0:09.238',-2.05
'0:09.242',-1.82
'0:09.246',-1.95
'0:09.250',-1.83
'0:09.254',-1.29
'0:09.258',-0.3
'0:09.262',1.53
'0:09.266',4.46
'0:09.270',7.37
'0:09.273',7.51
'0:09.277',4.14
'0:09.281',-1.45
'0:09.285',-6.62
'0:09.289',-9.47
'0:09.293',-9.97
'0:09.297',-9.42
'0:09.301',-8.25
'0:09.305',-6.75
'0:09.309',-5.42
'0:09.313',-4.52
'0:09.316',-3.7
'0:09.320',-2.84
'0:09.324',-2.24
'0:09.328',-2
'0:09.332',-1.91
'0:09.336',-1.45
'0:09.340',-1.19
'0:09.344',-1.32
'0:09.348',-1.3
'0:09.352',-1.12
'0:09.355',-1.01
'0:09.359',-0.98
'0:09.363',-0.73
'0:09.367',-0.14
'0:09.371',0.28
'0:09.375',0.5
'0:09.379',0.58
'0:09.383',0.47
'0:09.387',0.45
'0:09.391',0.65
'0:09.395',1.11
'0:09.398',2.08
'0:09.402',2.75
'0:09.406',3.47
'0:09.410',3.76
'0:09.414',4
'0:09.418',4.17
'0:09.422',4.14
'0:09.426',3.99
'0:09.430',3.99
'0:09.434',4.04
'0:09.438',3.59
'0:09.441',3
'0:09.445',2.59
'0:09.449',2.12
'0:09.453',2.4
'0:09.457',3.03
'0:09.461',2.82
'0:09.465',2.49
'0:09.469',1.74
'0:09.473',0.95
'0:09.477',0.78
'0:09.480',0.61
'0:09.484',0.11
'0:09.488',0.28
'0:09.492',0.72
'0:09.496',0.9
'0:09.500',0.85
'0:09.504',0.65
'0:09.508',0.71
'0:09.512',1.23
'0:09.516',2
'0:09.520',1.97
'0:09.523',1.03
'0:09.527',-0.36
'0:09.531',-1.82
'0:09.535',-2.68
'0:09.539',-2.65
'0:09.543',-2.47
'0:09.547',-2.21
'0:09.551',-1.87
'0:09.555',-1.68
'0:09.559',-1.83
'0:09.563',-2.03
'0:09.566',-2.22
'0:09.570',-2.43
'0:09.574',-2.39
'0:09.578',-1.69
'0:09.582',-0.76
'0:09.586',1.19
'0:09.590',4.23
'0:09.594',7.73
'0:09.598',9.4
'0:09.602',7.69
'0:09.605',2.74
'0:09.609',-2.95
'0:09.613',-6.84
'0:09.617',-8.26
'0:09.621',-7.71
'0:09.625',-6.57
'0:09.629',-5.56
'0:09.633',-4.63
'0:09.637',-3.45
'0:09.641',-2.37
'0:09.645',-1.94
'0:09.648',-1.52
'0:09.652',-0.95
'0:09.656',-0.99
'0:09.660',-1.39
'0:09.664',-1.51
'0:09.668',-1.51
'0:09.672',-0.89
'0:09.676',-0.29
'0:09.680',0.21
'0:09.684',0.54
'0:09.688',0.64
'0:09.691',0.74
'0:09.695',1.17
'0:09.699',1.82
'0:09.703',2.35
'0:09.707',2.11
'0:09.711',2.08
'0:09.715',2.31
'0:09.719',2.41
'0:09.723',2.97
'0:09.727',4.06
'0:09.730',4.81
'0:09.734',4.79
'0:09.738',4.65
'0:09.742',4.2
'0:09.746',4.03
'0:09.750',4.51
'0:09.754',5.16
'0:09.758',4.64
'0:09.762',3.77
'0:09.766',3.37
'0:09.770',2.77
'0:09.773',1.91
'0:09.777',1.3
'0:09.781',0.83
'0:09.785',0.6
'0:09.789',0.26
'0:09.793',-0.13
'0:09.797',-0.56
'0:09.801',-0.15
'0:09.805',0.23
'0:09.809',0.76
'0:09.813',1.07
'0:09.816',1.63
'0:09.820',1.68
'0:09.824',0.75
'0:09.828',-0.17
'0:09.832',0.2
'0:09.836',0.63
'0:09.840',0.41
'0:09.844',-0.16
'0:09.848',-0.09
'0:09.852',-0.12
'0:09.855',-0.64
'0:09.859',-1.47
'0:09.863',-1.92
'0:09.867',-2.4
'0:09.871',-2.55
'0:09.875',-2.12
'0:09.879',-1.75
'0:09.883',-1.54
'0:09.887',-1.16
'0:09.891',-1.4
'0:09.895',-2.08
'0:09.898',-2.62
'0:09.902',-2.64
'0:09.906',-2.22
'0:09.910',-0.54
'0:09.914',1.23
'0:09.918',3.08
'0:09.922',4.84
'0:09.926',6.86
'0:09.930',7.21
'0:09.934',4.08
'0:09.938',-1.65
'0:09.941',-7.39
'0:09.945',-9.54
'0:09.949',-8.53
'0:09.953',-6.51
'0:09.957',-5.27
'0:09.961',-5.22
'0:09.965',-5.3
'0:09.969',-4.37
'0:09.973',-2.46
'0:09.977',-0.67
'0:09.980',0.1
'0:09.984',0.64
'0:09.988',1.21
'0:09.992',1.02
'0:09.996',0.7
'0:10.000',0.54
'0:10.004',0.78
'0:10.008',1.04
'0:10.012',1.66
'0:10.016',2.28
'0:10.020',2.55
'0:10.023',2.68
'0:10.027',2.72
'0:10.031',2.84
'0:10.035',3.06
'0:10.039',3.17
'0:10.043',3.27
'0:10.047',3.53
'0:10.051',3.74
'0:10.055',3.77
'0:10.059',3.67
'0:10.063',4.03
'0:10.066',4.52
'0:10.070',4.61
'0:10.074',4.55
'0:10.078',4.48
'0:10.082',4.25
'0:10.086',3.73
'0:10.090',3.11
'0:10.094',2.55
'0:10.098',1.96
'0:10.102',1.34
'0:10.105',0.85
'0:10.109',0.36
'0:10.113',0.08
'0:10.117',-0.34
'0:10.121',-1.05
'0:10.125',-1.54
'0:10.129',-1.66
'0:10.133',-1.85
'0:10.137',-2.04
'0:10.141',-2.2
'0:10.145',-2.24
'0:10.148',-2.13
'0:10.152',-2.19
'0:10.156',-2.24
'0:10.160',-2.22
'0:10.164',-2.36
'0:10.168',-2.72
'0:10.172',-2.8
'0:10.176',-2.81
'0:10.180',-3.05
'0:10.184',-3.15
'0:10.188',-3.35
'0:10.191',-3.57
'0:10.195',-3.84
'0:10.199',-3.99
'0:10.203',-4.34
'0:10.207',-4.8
'0:10.211',-4.79
'0:10.215',-4.38
'0:10.219',-3.7
'0:10.223',-3.25
'0:10.227',-3.11
'0:10.230',-3.28
'0:10.234',-3
'0:10.238',-2.26
'0:10.242',-0.95
'0:10.246',1.35
'0:10.250',4.28
'0:10.254',7.08
'0:10.258',7.62
'0:10.262',4.42
'0:10.266',-1.42
'0:10.270',-7.07
'0:10.273',-9.95
'0:10.277',-10.38
'0:10.281',-9.54
'0:10.285',-8.12
'0:10.289',-6.76
'0:10.293',-5.19
'0:10.297',-3.5
'0:10.301',-2.19
'0:10.305',-1.76
'0:10.309',-1.67
'0:10.313',-1.33
'0:10.316',-0.75
'0:10.320',-0.22
'0:10.324',0.01
'0:10.328',0.03
'0:10.332',-0.79
'0:10.336',-1.71
'0:10.340',-2.15
'0:10.344',-1.94
'0:10.348',-0.95
'0:10.352',0.35
'0:10.355',1.01
'0:10.359',0.98
'0:10.363',1.31
'0:10.367',1.45
'0:10.371',1.52
'0:10.375',2.55
'0:10.379',3.4
'0:10.383',4.09
'0:10.387',4.07
'0:10.391',3.53
'0:10.395',3.21
'0:10.398',3.04
'0:10.402',2.95
'0:10.406',2.6
'0:10.410',2.75
'0:10.414',3.06
'0:10.418',3.01
'0:10.422',2.57
'0:10.426',2.09
'0:10.430',1.56
'0:10.434',1.1
'0:10.438',0.59
'0:10.441',0.17
'0:10.445',-0.09
'0:10.449',-0.32
'0:10.453',-0.47
'0:10.457',-0.81
'0:10.461',-1.03
'0:10.465',-1.02
'0:10.469',-1.04
'0:10.473',-1.13
'0:10.477',-1.19
'0:10.480',-1.09
'0:10.484',-0.86
'0:10.488',-0.71
'0:10.492',-0.71
'0:10.496',-1.21
'0:10.500',-1.82
'0:10.504',-2.09
'0:10.508',-1.85
'0:10.512',-1.43
'0:10.516',-0.72
'0:10.520',-0.29
'0:10.523',-0.13
'0:10.527',-0.03
'0:10.531',-0.62
'0:10.535',-1.54
'0:10.539',-1.95
'0:10.543',-2.01
'0:10.547',-1.22
'0:10.551',-0.56
'0:10.555',-0.49
'0:10.559',-0.82
'0:10.563',-0.55
'0:10.566',0.6
'0:10.570',1.97
'0:10.574',3.58
'0:10.578',6.44
'0:10.582',9.01
'0:10.586',8.3
'0:10.590',3.8
'0:10.594',-2.09
'0:10.598',-6.47
'0:10.602',-8.13
'0:10.605',-7.75
'0:10.609',-6.46
'0:10.613',-5.23
'0:10.617',-3.95
'0:10.621',-2.73
'0:10.625',-0.86
'0:10.629',0.65
'0:10.633',0.93
'0:10.637',0.05
'0:10.641',-0.18
'0:10.645',0.46
'0:10.648',1.13
'0:10.652',0.8
'0:10.656',0.33
'0:10.660',0.22
'0:10.664',0.85
'0:10.668',1.41
'0:10.672',1.58
'0:10.676',1.49
'0:10.680',1.77
'0:10.684',2.04
'0:10.688',2.33
'0:10.691',2.35
'0:10.695',3.04
'0:10.699',3.18
'0:10.703',3.14
'0:10.707',3.86
'0:10.711',5.17
'0:10.715',5.84
'0:10.719',5.5
'0:10.723',4.84
'0:10.727',4.29
'0:10.730',4.14
'0:10.734',3.58
'0:10.738',3.68
'0:10.742',4.42
'0:10.746',4.02
'0:10.750',2.2
'0:10.754',1.53
'0:10.758',1.37
'0:10.762',1.16
'0:10.766',0.76
'0:10.770',-0.06
'0:10.773',-1.2
'0:10.777',-1.04
'0:10.781',-0.26
'0:10.785',0.14
'0:10.789',0.68
'0:10.793',0.69
'0:10.797',0.06
'0:10.801',-0.37
'0:10.805',-0.05
'0:10.809',1.03
'0:10.813',1.49
'0:10.816',2.32
'0:10.820',2.73
'0:10.824',2.61
'0:10.828',2.35
'0:10.832',1.26
'0:10.836',-0.09
'0:10.840',-1.83
'0:10.844',-2.32
'0:10.848',-1.6
'0:10.852',-0.68
'0:10.855',-0.67
'0:10.859',-0.76
'0:10.863',-0.37
'0:10.867',0.1
'0:10.871',-0.41
'0:10.875',-1.12
'0:10.879',-0.96
'0:10.883',-0.74
'0:10.887',-0.67
'0:10.891',-0.85
'0:10.895',-0.65
'0:10.898',0.46
'0:10.902',2.33
'0:10.906',4.65
'0:10.910',6.9
'0:10.914',6.7
'0:10.918',3.42
'0:10.922',-1.79
'0:10.926',-6.32
'0:10.930',-8.75
'0:10.934',-9.19
'0:10.938',-8.26
'0:10.941',-6.75
'0:10.945',-5.11
'0:10.949',-3.81
'0:10.953',-2.97
'0:10.957',-2.47
'0:10.961',-2.1
'0:10.965',-1.98
'0:10.969',-2.09
'0:10.973',-2.13
'0:10.977',-2.12
'0:10.980',-2.11
'0:10.984',-1.65
'0:10.988',-1.34
'0:10.992',-1.41
'0:10.996',-1.38
'0:11.000',-1.15
'0:11.004',-0.61
'0:11.008',0.09
'0:11.012',0.62
'0:11.016',0.81
'0:11.020',1.02
'0:11.023',1.16
'0:11.027',1.37
'0:11.031',1.69
'0:11.035',1.82
'0:11.039',1.99
'0:11.043',2.14
'0:11.047',2.47
'0:11.051',2.89
'0:11.055',3.31
'0:11.059',3.55
'0:11.063',3.48
'0:11.066',3.23
'0:11.070',2.84
'0:11.074',2.47
'0:11.078',1.95
'0:11.082',1.43
'0:11.086',0.92
'0:11.090',0.43
'0:11.094',-0.07
'0:11.098',-0.66
'0:11.102',-1.47
'0:11.105',-2.04
'0:11.109',-1.82
'0:11.113',-1.34
'0:11.117',-0.99
'0:11.121',-0.92
'0:11.125',-1.02
'0:11.129',-1.08
'0:11.133',-1.16
'0:11.137',-1.32
'0:11.141',-1.36
'0:11.145',-1.11
'0:11.148',-0.5
'0:11.152',0.19
'0:11.156',0.19
'0:11.160',-0.25
'0:11.164',-1.12
'0:11.168',-1.53
'0:11.172',-1.91
'0:11.176',-2.16
'0:11.180',-2.73
'0:11.184',-3.22
'0:11.188',-3.64
'0:11.191',-4.03
'0:11.195',-4.14
'0:11.199',-3.4
'0:11.203',-2.41
'0:11.207',-2.14
'0:11.211',-2.35
'0:11.215',-2.27
'0:11.219',-1.7
'0:11.223',-0.92
'0:11.227',0.19
'0:11.230',2.23
'0:11.234',4.94
'0:11.238',7.82
'0:11.242',8.92
'0:11.246',6.2
'0:11.250',0.53
'0:11.254',-5.43
'0:11.258',-9.26
'0:11.262',-10.99
'0:11.266',-11.13
'0:11.270',-10.11
'0:11.273',-8.69
'0:11.277',-7.18
'0:11.281',-5.65
'0:11.285',-4.41
'0:11.289',-3.7
'0:11.293',-3.44
'0:11.297',-3.14
'0:11.301',-2.52
'0:11.305',-1.78
'0:11.309',-1.38
'0:11.313',-1.36
'0:11.316',-1.27
'0:11.320',-1.25
'0:11.324',-0.94
'0:11.328',-0.36
'0:11.332',0
'0:11.336',0.6
'0:11.340',1.14
'0:11.344',1.2
'0:11.348',1.26
'0:11.352',1.3
'0:11.355',1.06
'0:11.359',1.19
'0:11.363',1.67
'0:11.367',2.11
'0:11.371',2.91
'0:11.375',4.26
'0:11.379',5.12
'0:11.383',5.48
'0:11.387',5.88
'0:11.391',5.98
'0:11.395',5.6
'0:11.398',5.21
'0:11.402',5.24
'0:11.406',5.69
'0:11.410',5.37
'0:11.414',4.11
'0:11.418',2.55
'0:11.422',1.75
'0:11.426',1.17
'0:11.430',0.92
'0:11.434',0.55
'0:11.438',0.28
'0:11.441',0.35
'0:11.445',0.43
'0:11.449',0.47
'0:11.453',0.52
'0:11.457',0.66
'0:11.461',0.42
'0:11.465',0.57
'0:11.469',0.73
'0:11.473',0.76
'0:11.477',0.58
'0:11.480',0.24
'0:11.484',-0.2
'0:11.488',-0.29
'0:11.492',-0.33
'0:11.496',-0.31
'0:11.500',-0.22
'0:11.504',-0.12
'0:11.508',-0.26
'0:11.512',-0.77
'0:11.516',-0.98
'0:11.520',-1.17
'0:11.523',-1.44
'0:11.527',-1.35
'0:11.531',-1
'0:11.535',-1.01
'0:11.539',-0.58
'0:11.543',-0.58
'0:11.547',-0.22
'0:11.551',0.46
'0:11.555',1.26
'0:11.559',3.41
'0:11.563',7.13
'0:11.566',10.43
'0:11.570',10.01
'0:11.574',5.43
'0:11.578',-1.42
'0:11.582',-6.97
'0:11.586',-9.7
'0:11.590',-10.28
'0:11.594',-9.09
'0:11.598',-7.88
'0:11.602',-6.78
'0:11.605',-5.42
'0:11.609',-3.9
'0:11.613',-3.03
'0:11.617',-2.01
'0:11.621',-0.24
'0:11.625',1.05
'0:11.629',1.45
'0:11.633',0.97
'0:11.637',0.58
'0:11.641',0.29
'0:11.645',-0.12
'0:11.648',0.74
'0:11.652',1.75
'0:11.656',1.78
'0:11.660',1.05
'0:11.664',1.11
'0:11.668',1.13
'0:11.672',1.41
'0:11.676',1.74
'0:11.680',1.73
'0:11.684',2.09
'0:11.688',2.7
'0:11.691',2.82
'0:11.695',3.41
'0:11.699',4.14
'0:11.703',4.35
'0:11.707',4.86
'0:11.711',5.37
'0:11.715',5.36
'0:11.719',4.59
'0:11.723',4.48
'0:11.727',4.63
'0:11.730',4.18
'0:11.734',3.21
'0:11.738',3.49
'0:11.742',4.06
'0:11.746',4.05
'0:11.750',3.61
'0:11.754',3.09
'0:11.758',2.29
'0:11.762',1.27
'0:11.766',0.35
'0:11.770',0.6
'0:11.773',1.27
'0:11.777',1.25
'0:11.781',0.81
'0:11.785',0.5
'0:11.789',0.49
'0:11.793',0.59
'0:11.797',0.5
'0:11.801',0.29
'0:11.805',0.05
'0:11.809',-0.26
'0:11.813',-0.61
'0:11.816',-0.97
'0:11.820',-1.3
'0:11.824',-1.68
'0:11.828',-2.18
'0:11.832',-2.61
'0:11.836',-3
'0:11.840',-3.37
'0:11.844',-3.43
'0:11.848',-3.39
'0:11.852',-3.29
'0:11.855',-3.25
'0:11.859',-3.31
'0:11.863',-3.31
'0:11.867',-3.35
'0:11.871',-3.46
'0:11.875',-3.2
'0:11.879',-2.24
'0:11.883',-0.71
'0:11.887',1.35
'0:11.891',3.81
'0:11.895',5.89
'0:11.898',5.27
'0:11.902',1.48
'0:11.906',-3.86
'0:11.910',-8.25
'0:11.914',-10.6
'0:11.918',-10.88
'0:11.922',-9.86
'0:11.926',-8.42
'0:11.930',-6.81
'0:11.934',-5.18
'0:11.938',-3.96
'0:11.941',-3.05
'0:11.945',-2.26
'0:11.949',-1.96
'0:11.953',-2.11
'0:11.957',-2.11
'0:11.961',-1.89
'0:11.965',-1.6
'0:11.969',-1.25
'0:11.973',-0.94
'0:11.977',-0.78
'0:11.980',-0.78
'0:11.984',-0.82
'0:11.988',-0.79
'0:11.992',-0.78
'0:11.996',-0.5
'0:12.000',0.42
'0:12.004',1.41
'0:12.008',1.89
'0:12.012',1.91
'0:12.016',2.11
'0:12.020',2.3
'0:12.023',2.58
'0:12.027',3.16
'0:12.031',3.69
'0:12.035',4.1
'0:12.039',4.28
'0:12.043',4.37
'0:12.047',4.38
'0:12.051',4.25
'0:12.055',3.73
'0:12.059',3.68
'0:12.063',3.48
'0:12.066',2.73
'0:12.070',1.82
'0:12.074',1.27
'0:12.078',0.84
'0:12.082',0.65
'0:12.086',-0.16
'0:12.090',-1.06
'0:12.094',-1.55
'0:12.098',-1.55
'0:12.102',-0.93
'0:12.105',-0.09
'0:12.109',0.21
'0:12.113',-0.25
'0:12.117',-1.09
'0:12.121',-1.57
'0:12.125',-2.28
'0:12.129',-3.12
'0:12.133',-3.28
'0:12.137',-2.73
'0:12.141',-2.49
'0:12.145',-2.65
'0:12.148',-2.3
'0:12.152',-2.31
'0:12.156',-2.82
'0:12.160',-3.32
'0:12.164',-3.31
'0:12.168',-3.12
'0:12.172',-2.57
'0:12.176',-2.42
'0:12.180',-2.61
'0:12.184',-2.87
'0:12.188',-2.79
'0:12.191',-2.81
'0:12.195',-3.11
'0:12.199',-2.87
'0:12.203',-1.6
'0:12.207',0.31
'0:12.211',1.4
'0:12.215',2.6
'0:12.219',4.61
'0:12.223',6.12
'0:12.227',5.44
'0:12.230',2.35
'0:12.234',-2.22
'0:12.238',-5.81
'0:12.242',-7.8
'0:12.246',-8.27
'0:12.250',-7.55
'0:12.254',-6.21
'0:12.258',-5.13
'0:12.262',-4.2
'0:12.266',-3.19
'0:12.270',-2.15
'0:12.273',-0.81
'0:12.277',0.18
'0:12.281',0.89
'0:12.285',1.9
'0:12.289',2.22
'0:12.293',2.59
'0:12.297',2.23
'0:12.301',1.31
'0:12.305',-0.12
'0:12.309',-0.38
'0:12.313',1.14
'0:12.316',2.16
'0:12.320',2.6
'0:12.324',3.59
'0:12.328',5.22
'0:12.332',6.42
'0:12.336',5.9
'0:12.340',3.87
'0:12.344',1.97
'0:12.348',1.01
'0:12.352',1.34
'0:12.355',2.42
'0:12.359',3.13
'0:12.363',3.81
'0:12.367',4.29
'0:12.371',4.67
'0:12.375',5.38
'0:12.379',5.32
'0:12.383',5.02
'0:12.387',4.47
'0:12.391',4.08
'0:12.395',3.48
'0:12.398',2.93
'0:12.402',2.84
'0:12.406',2.51
'0:12.410',2.14
'0:12.414',1.25
'0:12.418',0.37
'0:12.422',0.47
'0:12.426',0.53
'0:12.430',0.05
'0:12.434',-0.73
'0:12.438',-0.94
'0:12.441',-0.25
'0:12.445',1.21
'0:12.449',1.94
'0:12.453',1.64
'0:12.457',1.27
'0:12.461',0.45
'0:12.465',-0.58
'0:12.469',-1.3
'0:12.473',-1.94
'0:12.477',-1.94
'0:12.480',-1.4
'0:12.484',-0.86
'0:12.488',-1.43
'0:12.492',-2.69
'0:12.496',-3.63
'0:12.500',-3.52
'0:12.504',-2.8
'0:12.508',-2.07
'0:12.512',-1.77
'0:12.516',-2.38
'0:12.520',-2.4
'0:12.523',-2.34
'0:12.527',-2.28
'0:12.531',-1.89
'0:12.535',-0.78
'0:12.539',0.76
'0:12.543',2.65
'0:12.547',4.95
'0:12.551',6.96
'0:12.555',7.04
'0:12.559',4.3
'0:12.563',-1.13
'0:12.566',-5.9
'0:12.570',-8.38
'0:12.574',-9.27
'0:12.578',-9.36
'0:12.582',-8.9
'0:12.586',-7.79
'0:12.590',-5.74
'0:12.594',-3.66
'0:12.598',-1.82
'0:12.602',-0.97
'0:12.605',-0.71
'0:12.609',-1.07
'0:12.613',-0.68
'0:12.617',0.1
'0:12.621',1
'0:12.625',1.08
'0:12.629',0.51
'0:12.633',0.3
'0:12.637',0.37
'0:12.641',0.37
'0:12.645',0.56
'0:12.648',0.93
'0:12.652',1.35
'0:12.656',1.76
'0:12.660',1.94
'0:12.664',2.33
'0:12.668',2.65
'0:12.672',2.89
'0:12.676',2.93
'0:12.680',2.92
'0:12.684',3.01
'0:12.688',3.41
'0:12.691',3.81
'0:12.695',4.26
'0:12.699',4.6
'0:12.703',4.52
'0:12.707',4.18
'0:12.711',3.59
'0:12.715',3.12
'0:12.719',2.67
'0:12.723',2.29
'0:12.727',2.02
'0:12.730',1.57
'0:12.734',0.99
'0:12.738',0.68
'0:12.742',0.46
'0:12.746',0.18
'0:12.750',-0.33
'0:12.754',-0.68
'0:12.758',-0.73
'0:12.762',-0.65
'0:12.766',-0.27
'0:12.770',-0.13
'0:12.773',-0.39
'0:12.777',-0.58
'0:12.781',-0.64
'0:12.785',-0.88
'0:12.789',-1.2
'0:12.793',-1.34
'0:12.797',-1.47
'0:12.801',-1.77
'0:12.805',-1.85
'0:12.809',-1.99
'0:12.813',-2.18
'0:12.816',-2.48
'0:12.820',-2.8
'0:12.824',-3.02
'0:12.828',-2.89
'0:12.832',-2.98
'0:12.836',-3.42
'0:12.840',-3.86
'0:12.844',-4.01
'0:12.848',-4.09
'0:12.852',-4
'0:12.855',-3.54
'0:12.859',-2.89
'0:12.863',-1.92
'0:12.867',-0.21
'0:12.871',1.94
'0:12.875',4.67
'0:12.879',6.5
'0:12.883',5.3
'0:12.887',1.01
'0:12.891',-4.75
'0:12.895',-8.87
'0:12.898',-10.19
'0:12.902',-9.03
'0:12.906',-7.03
'0:12.910',-6.04
'0:12.914',-5.64
'0:12.918',-5.24
'0:12.922',-4.52
'0:12.926',-3.68
'0:12.930',-2.73
'0:12.934',-1.38
'0:12.938',0.21
'0:12.941',1.1
'0:12.945',0.45
'0:12.949',-0.36
'0:12.953',-0.43
'0:12.957',-0.29
'0:12.961',-1.11
'0:12.965',-1.6
'0:12.969',-1.57
'0:12.973',-1.4
'0:12.977',-1.05
'0:12.980',-0.66
'0:12.984',0.22
'0:12.988',1.32
'0:12.992',2.69
'0:12.996',3.23
'0:13.000',3.05
'0:13.004',3.25
'0:13.008',3.35
'0:13.012',3.82
'0:13.016',4.14
'0:13.020',3.94
'0:13.023',3.67
'0:13.027',3.72
'0:13.031',3.27
'0:13.035',2.74
'0:13.039',2.29
'0:13.043',1.87
'0:13.047',1.85
'0:13.051',2.58
'0:13.055',2.93
'0:13.059',2.19
'0:13.063',0.88
'0:13.066',-0.25
'0:13.070',-0.59
'0:13.074',-0.96
'0:13.078',-1.26
'0:13.082',-1.3
'0:13.086',-1.65
'0:13.090',-1.3
'0:13.094',-1.11
'0:13.098',-1.35
'0:13.102',-1.08
'0:13.105',-0.41
'0:13.109',0
'0:13.113',0.28
'0:13.117',-0.54
'0:13.121',-1.96
'0:13.125',-2.55
'0:13.129',-2.39
'0:13.133',-2.07
'0:13.137',-1.42
'0:13.141',-1.2
'0:13.145',-1.03
'0:13.148',-0.66
'0:13.152',-0.34
'0:13.156',-0.63
'0:13.160',-1.12
'0:13.164',-1.25
'0:13.168',-0.88
'0:13.172',-0.76
'0:13.176',-1.29
'0:13.180',-1.32
'0:13.184',-0.43
'0:13.188',0.48
'0:13.191',1.15
'0:13.195',2.79
'0:13.199',5.17
'0:13.203',6.89
'0:13.207',6.97
'0:13.211',4.84
'0:13.215',0.9
'0:13.219',-2.55
'0:13.223',-5.22
'0:13.227',-7.65
'0:13.230',-8.3
'0:13.234',-7.5
'0:13.238',-6.06
'0:13.242',-4.39
'0:13.246',-3.04
'0:13.250',-1.83
'0:13.254',-0.99
'0:13.258',-0.17
'0:13.262',0.26
'0:13.266',0.33
'0:13.270',0.14
'0:13.273',0.41
'0:13.277',0.68
'0:13.281',0.66
'0:13.285',0.93
'0:13.289',1.16
'0:13.293',1.33
'0:13.297',1.7
'0:13.301',1.62
'0:13.305',1.66
'0:13.309',2.08
'0:13.313',2.24
'0:13.316',2.29
'0:13.320',2.36
'0:13.324',2.57
'0:13.328',2.83
'0:13.332',2.74
'0:13.336',3.06
'0:13.340',3.43
'0:13.344',3.99
'0:13.348',4.56
'0:13.352',4.8
'0:13.355',5.38
'0:13.359',5.61
'0:13.363',5.67
'0:13.367',5.92
'0:13.371',5.35
'0:13.375',4.07
'0:13.379',3.26
'0:13.383',3.05
'0:13.387',2.91
'0:13.391',1.98
'0:13.395',0.53
'0:13.398',-0.08
'0:13.402',0.55
'0:13.406',1.24
'0:13.410',1.57
'0:13.414',1.75
'0:13.418',1.84
'0:13.422',1.6
'0:13.426',0.98
'0:13.430',0.89
'0:13.434',0.94
'0:13.438',1.18
'0:13.441',0.65
'0:13.445',-0.19
'0:13.449',0.07
'0:13.453',0.81
'0:13.457',0.43
'0:13.461',-0.46
'0:13.465',-1.25
'0:13.469',-1.91
'0:13.473',-1.56
'0:13.477',-0.98
'0:13.480',-1.79
'0:13.484',-1.42
'0:13.488',-0.76
'0:13.492',-0.19
'0:13.496',-0.27
'0:13.500',-0.96
'0:13.504',-1.43
'0:13.508',-1.31
'0:13.512',-0.76
'0:13.516',-0.09
'0:13.520',0.99
'0:13.523',2.85
'0:13.527',4.85
'0:13.531',6.94
'0:13.535',7.42
'0:13.539',4.85
'0:13.543',-0.09
'0:13.547',-4.67
'0:13.551',-7.13
'0:13.555',-7.82
'0:13.559',-7.06
'0:13.563',-5.88
'0:13.566',-4.61
'0:13.570',-3.46
'0:13.574',-2.7
'0:13.578',-2.37
'0:13.582',-2.18
'0:13.586',-2.12
'0:13.590',-1.78
'0:13.594',-1.16
'0:13.598',-0.49
'0:13.602',-0.08
'0:13.605',0.1
'0:13.609',0.29
'0:13.613',0.39
'0:13.617',0.19
'0:13.621',-0.25
'0:13.625',-0.28
'0:13.629',0.29
'0:13.633',0.86
'0:13.637',1.05
'0:13.641',1
'0:13.645',1.03
'0:13.648',1.03
'0:13.652',1.09
'0:13.656',1.7
'0:13.660',2.74
'0:13.664',3.44
'0:13.668',3.63
'0:13.672',3.59
'0:13.676',3.91
'0:13.680',4.35
'0:13.684',4.53
'0:13.688',4.26
'0:13.691',3.78
'0:13.695',3.43
'0:13.699',2.84
'0:13.703',2.08
'0:13.707',1.34
'0:13.711',0.7
'0:13.715',0.04
'0:13.719',-0.56
'0:13.723',-0.94
'0:13.727',-1.17
'0:13.730',-1.31
'0:13.734',-1.42
'0:13.738',-1.67
'0:13.742',-1.5
'0:13.746',-0.71
'0:13.750',-0.16
'0:13.754',-0.36
'0:13.758',-1.28
'0:13.762',-1.86
'0:13.766',-2.2
'0:13.770',-2.91
'0:13.773',-3.49
'0:13.777',-3.34
'0:13.781',-3.1
'0:13.785',-2.73
'0:13.789',-1.92
'0:13.793',-1.09
'0:13.797',-1.06
'0:13.801',-1.48
'0:13.805',-2.37
'0:13.809',-3.38
'0:13.813',-3.47
'0:13.816',-3.26
'0:13.820',-3.56
'0:13.824',-3.82
'0:13.828',-3.94
'0:13.832',-4.08
'0:13.836',-4.21
'0:13.840',-3.78
'0:13.844',-2.43
'0:13.848',-0.83
'0:13.852',1.43
'0:13.855',4.59
'0:13.859',7.44
'0:13.863',8.16
'0:13.867',4.99
'0:13.871',-1.08
'0:13.875',-7
'0:13.879',-10.24
'0:13.883',-11.11
'0:13.887',-10.22
'0:13.891',-8.45
'0:13.895',-6.88
'0:13.898',-5.69
'0:13.902',-5.01
'0:13.906',-4.62
'0:13.910',-4.16
'0:13.914',-3.85
'0:13.918',-3.33
'0:13.922',-2.87
'0:13.926',-2.46
'0:13.930',-2.36
'0:13.934',-2.2
'0:13.938',-1.15
'0:13.941',0.42
'0:13.945',1.4
'0:13.949',1.08
'0:13.953',0.35
'0:13.957',-0.16
'0:13.961',-0.21
'0:13.965',-0.45
'0:13.969',-0.37
'0:13.973',0.15
'0:13.977',1.22
'0:13.980',2.44
'0:13.984',3.47
'0:13.988',3.92
'0:13.992',3.77
'0:13.996',3.63
'0:14.000',4.8
'0:14.004',6.25
'0:14.008',6.62
'0:14.012',5.56
'0:14.016',4.71
'0:14.020',5.15
'0:14.023',5.54
'0:14.027',5.15
'0:14.031',4.05
'0:14.035',2.54
'0:14.039',2.3
'0:14.043',3.04
'0:14.047',3.64
'0:14.051',3.56
'0:14.055',2.79
'0:14.059',1.86
'0:14.063',1.83
'0:14.066',2.3
'0:14.070',2.56
'0:14.074',1.89
'0:14.078',1.38
'0:14.082',1.47
'0:14.086',1.74
'0:14.090',2.34
'0:14.094',2.89
'0:14.098',2.29
'0:14.102',0.49
'0:14.105',-1.54
'0:14.109',-2.13
'0:14.113',-1.11
'0:14.117',-0.2
'0:14.121',0.63
'0:14.125',1.09
'0:14.129',0.96
'0:14.133',-0.02
'0:14.137',-0.6
'0:14.141',-0.37
'0:14.145',-0.42
'0:14.148',-0.98
'0:14.152',-0.87
'0:14.156',-0.4
'0:14.160',-0.56
'0:14.164',-1.04
'0:14.168',-1.2
'0:14.172',-0.85
'0:14.176',0.39
'0:14.180',2.4
'0:14.184',5.12
'0:14.188',7.26
'0:14.191',6.57
'0:14.195',3.01
'0:14.199',-2.12
'0:14.203',-6.71
'0:14.207',-8.78
'0:14.211',-8.77
'0:14.215',-7.4
'0:14.219',-5.92
'0:14.223',-4.64
'0:14.227',-4.25
'0:14.230',-4.35
'0:14.234',-3.28
'0:14.238',-1.6
'0:14.242',-0.98
'0:14.246',-0.98
'0:14.250',-0.41
'0:14.254',0.49
'0:14.258',1.08
'0:14.262',1.09
'0:14.266',0.67
'0:14.270',0.68
'0:14.273',0.99
'0:14.277',1.4
'0:14.281',2.05
'0:14.285',2.34
'0:14.289',1.97
'0:14.293',0.91
'0:14.297',0.31
'0:14.301',1.09
'0:14.305',1.76
'0:14.309',2.87
'0:14.313',3.81
'0:14.316',3.93
'0:14.320',3.99
'0:14.324',3.88
'0:14.328',3.54
'0:14.332',3.3
'0:14.336',3.42
'0:14.340',3.77
'0:14.344',3.6
'0:14.348',2.68
'0:14.352',1.77
'0:14.355',1.76
'0:14.359',1.64
'0:14.363',0.94
'0:14.367',0.1
'0:14.371',0.07
'0:14.375',0.48
'0:14.379',0.75
'0:14.383',0.41
'0:14.387',-0.08
'0:14.391',-0.3
'0:14.395',-0.31
'0:14.398',-0.38
'0:14.402',-0.2
'0:14.406',0
'0:14.410',-0.04
'0:14.414',-0.39
'0:14.418',-1.16
'0:14.422',-1.46
'0:14.426',-0.61
'0:14.430',-0.22
'0:14.434',-0.73
'0:14.438',-1.05
'0:14.441',-1.02
'0:14.445',-1.29
'0:14.449',-1.84
'0:14.453',-1.99
'0:14.457',-2.16
'0:14.461',-2.7
'0:14.465',-3.27
'0:14.469',-3.16
'0:14.473',-2.57
'0:14.477',-2.29
'0:14.480',-2.08
'0:14.484',-1.62
'0:14.488',-0.98
'0:14.492',-0.66
'0:14.496',-0.58
'0:14.500',0
'0:14.504',1.57
'0:14.508',3.64
'0:14.512',6
'0:14.516',7.77
'0:14.520',6.7
'0:14.523',2.73
'0:14.527',-2.45
'0:14.531',-6.5
'0:14.535',-8.34
'0:14.539',-8.49
'0:14.543',-7.29
'0:14.547',-5.36
'0:14.551',-3.97
'0:14.555',-3.08
'0:14.559',-2.43
'0:14.563',-1.87
'0:14.566',-1.47
'0:14.570',-1.18
'0:14.574',-0.79
'0:14.578',-0.33
'0:14.582',0.12
'0:14.586',0.13
'0:14.590',0.05
'0:14.594',-0.02
'0:14.598',0.05
'0:14.602',0.17
'0:14.605',0.39
'0:14.609',0.74
'0:14.613',1.14
'0:14.617',1.32
'0:14.621',1.37
'0:14.625',1.3
'0:14.629',1.48
'0:14.633',1.86
'0:14.637',2.45
'0:14.641',2.9
'0:14.645',3.12
'0:14.648',3.4
'0:14.652',3.86
'0:14.656',4.33
'0:14.660',4.74
'0:14.664',4.69
'0:14.668',4
'0:14.672',3.57
'0:14.676',3.12
'0:14.680',2.62
'0:14.684',2.09
'0:14.688',1.81
'0:14.691',1.16
'0:14.695',-0.27
'0:14.699',-1.03
'0:14.703',-1.41
'0:14.707',-1.68
'0:14.711',-1.68
'0:14.715',-1.82
'0:14.719',-1.74
'0:14.723',-1.37
'0:14.727',-0.98
'0:14.730',-0.76
'0:14.734',-0.69
'0:14.738',-1.27
'0:14.742',-1.8
'0:14.746',-2.06
'0:14.750',-2.26
'0:14.754',-1.97
'0:14.758',-1.68
'0:14.762',-1.58
'0:14.766',-1.8
'0:14.770',-2.22
'0:14.773',-3.21
'0:14.777',-3.51
'0:14.781',-3.11
'0:14.785',-2.73
'0:14.789',-2.47
'0:14.793',-2.01
'0:14.797',-1.61
'0:14.801',-2.15
'0:14.805',-3.02
'0:14.809',-3.61
'0:14.813',-3.98
'0:14.816',-4.19
'0:14.820',-3.72
'0:14.824',-3.13
'0:14.828',-2.5
'0:14.832',-0.75
'0:14.836',2.24
'0:14.840',5.19
'0:14.844',7.88
'0:14.848',8.52
'0:14.852',4.95
'0:14.855',-1.29
'0:14.859',-6.77
'0:14.863',-9.75
'0:14.867',-10.56
'0:14.871',-9.69
'0:14.875',-7.3
'0:14.879',-5.65
'0:14.883',-4.77
'0:14.887',-3.65
'0:14.891',-2.9
'0:14.895',-2.05
'0:14.898',-1.14
'0:14.902',-0.14
'0:14.906',0.62
'0:14.910',1.2
'0:14.914',1.65
'0:14.918',2.25
'0:14.922',2.8
'0:14.926',2.74
'0:14.930',2.42
'0:14.934',2.6
'0:14.938',2.9
'0:14.941',3.22
'0:14.945',3.34
'0:14.949',2.87
'0:14.953',2.43
'0:14.957',2.29
'0:14.961',2.18
'0:14.965',3.14
'0:14.969',4.15
'0:14.973',4.53
'0:14.977',4.35
'0:14.980',4.31
'0:14.984',4.7
'0:14.988',5.11
'0:14.992',5.6
'0:14.996',5.78
'0:15.000',5.34
'0:15.004',4.55
'0:15.008',4.23
'0:15.012',4.36
'0:15.016',4.58
'0:15.020',4.42
'0:15.023',3.66
'0:15.027',2.66
'0:15.031',1.59
'0:15.035',0.57
'0:15.039',-0.09
'0:15.043',0.02
'0:15.047',0.63
'0:15.051',1.4
'0:15.055',1.35
'0:15.059',1.19
'0:15.063',1.51
'0:15.066',1.4
'0:15.070',0.66
'0:15.074',-0.16
'0:15.078',-0.14
'0:15.082',0.48
'0:15.086',0.94
'0:15.090',1.29
'0:15.094',1.3
'0:15.098',0.47
'0:15.102',-0.47
'0:15.105',-0.84
'0:15.109',-0.26
'0:15.113',0.34
'0:15.117',0.44
'0:15.121',-0.29
'0:15.125',-0.98
'0:15.129',-1.07
'0:15.133',-0.83
'0:15.137',-1.18
'0:15.141',-2.09
'0:15.145',-2.41
'0:15.148',-2.22
'0:15.152',-1.3
'0:15.156',-0.38
'0:15.160',1.58
'0:15.164',4.59
'0:15.168',7.49
'0:15.172',9.07
'0:15.176',7.28
'0:15.180',1.86
'0:15.184',-4.34
'0:15.188',-8.51
'0:15.191',-10.55
'0:15.195',-10.72
'0:15.199',-9.46
'0:15.203',-7.63
'0:15.207',-6.05
'0:15.211',-4.9
'0:15.215',-3.97
'0:15.219',-3.44
'0:15.223',-2.96
'0:15.227',-2.8
'0:15.230',-2.35
'0:15.234',-1.4
'0:15.238',-0.71
'0:15.242',-0.79
'0:15.246',-1.14
'0:15.250',-1.11
'0:15.254',-0.78
'0:15.258',-0.56
'0:15.262',-0.57
'0:15.266',-0.61
'0:15.270',-1.08
'0:15.273',-1.34
'0:15.277',-0.58
'0:15.281',0.02
'0:15.285',0.3
'0:15.289',0.3
'0:15.293',1.01
'0:15.297',2.06
'0:15.301',2.61
'0:15.305',2.57
'0:15.309',2.28
'0:15.313',1.99
'0:15.316',1.92
'0:15.320',2.2
'0:15.324',2.39
'0:15.328',2.47
'0:15.332',2.19
'0:15.336',1.86
'0:15.340',1.93
'0:15.344',1.64
'0:15.348',1.15
'0:15.352',0.53
'0:15.355',0.02
'0:15.359',-0.41
'0:15.363',-0.24
'0:15.367',-0.62
'0:15.371',-0.8
'0:15.375',-0.57
'0:15.379',0.07
'0:15.383',0.37
'0:15.387',0.37
'0:15.391',-0.42
'0:15.395',-0.32
'0:15.398',-0.03
'0:15.402',-0.81
'0:15.406',-1.11
'0:15.410',-1.07
'0:15.414',-1.42
'0:15.418',-1.73
'0:15.422',-1.53
'0:15.426',-1.41
'0:15.430',-1.17
'0:15.434',-1.02
'0:15.438',-1.54
'0:15.441',-1.65
'0:15.445',-1.36
'0:15.449',-1.77
'0:15.453',-2.24
'0:15.457',-2.67
'0:15.461',-2.77
'0:15.465',-3.35
'0:15.469',-3.78
'0:15.473',-3.06
'0:15.477',-2.18
'0:15.480',-1.37
'0:15.484',-1
'0:15.488',-0.02
'0:15.492',1.97
'0:15.496',5.52
'0:15.500',8.51
'0:15.504',8.07
'0:15.508',4.15
'0:15.512',-1.31
'0:15.516',-5.59
'0:15.520',-7.97
'0:15.523',-8.24
'0:15.527',-7.15
'0:15.531',-5.39
'0:15.535',-3.06
'0:15.539',-1.26
'0:15.543',-0.45
'0:15.547',-0.6
'0:15.551',-0.97
'0:15.555',-0.88
'0:15.559',-0.52
'0:15.563',-0.41
'0:15.566',-0.38
'0:15.570',-0.48
'0:15.574',-0.39
'0:15.578',0.37
'0:15.582',1.12
'0:15.586',1.2
'0:15.590',0.83
'0:15.594',0.4
'0:15.598',0.53
'0:15.602',0.8
'0:15.605',0.93
'0:15.609',1.26
'0:15.613',1.42
'0:15.617',1.39
'0:15.621',1.54
'0:15.625',1.92
'0:15.629',2.36
'0:15.633',2.52
'0:15.637',2.37
'0:15.641',2.5
'0:15.645',2.56
'0:15.648',2.28
'0:15.652',2.46
'0:15.656',2.98
'0:15.660',3.22
'0:15.664',2.74
'0:15.668',2.42
'0:15.672',2.21
'0:15.676',1.76
'0:15.680',0.9
'0:15.684',0.75
'0:15.688',1.24
'0:15.691',0.59
'0:15.695',-0.97
'0:15.699',-2.51
'0:15.703',-2.49
'0:15.707',-1.17
'0:15.711',-0.32
'0:15.715',-0.67
'0:15.719',-0.51
'0:15.723',0.22
'0:15.727',0.46
'0:15.730',0.18
'0:15.734',-0.16
'0:15.738',-0.41
'0:15.742',-0.69
'0:15.746',-0.9
'0:15.750',-1.5
'0:15.754',-2.01
'0:15.758',-1.83
'0:15.762',-1.7
'0:15.766',-1.75
'0:15.770',-1.61
'0:15.773',-1.63
'0:15.777',-1.44
'0:15.781',-0.96
'0:15.785',-0.85
'0:15.789',-1.49
'0:15.793',-1.84
'0:15.797',-1.71
'0:15.801',-1.3
'0:15.805',-0.74
'0:15.809',-0.8
'0:15.813',-0.36
'0:15.816',1.88
'0:15.820',4.39
'0:15.824',6.31
'0:15.828',8.13
'0:15.832',7.84
'0:15.836',4.91
'0:15.840',-0.65
'0:15.844',-5.42
'0:15.848',-7.95
'0:15.852',-8.5
'0:15.855',-7.59
'0:15.859',-6.35
'0:15.863',-5.6
'0:15.867',-4.91
'0:15.871',-3.58
'0:15.875',-2.02
'0:15.879',-0.7
'0:15.883',0.33
'0:15.887',0.61
'0:15.891',0.54
'0:15.895',0.16
'0:15.898',-0.29
'0:15.902',-0.27
'0:15.906',0.2
'0:15.910',0.56
'0:15.914',1.11
'0:15.918',1.72
'0:15.922',1.85
'0:15.926',1.41
'0:15.930',1.14
'0:15.934',1.1
'0:15.938',0.98
'0:15.941',1
'0:15.945',1.47
'0:15.949',1.97
'0:15.953',2.19
'0:15.957',2.06
'0:15.961',2.22
'0:15.965',2.82
'0:15.969',3.72
'0:15.973',4.4
'0:15.977',4.1
'0:15.980',3.88
'0:15.984',3.95
'0:15.988',3.53
'0:15.992',2.98
'0:15.996',2.47
'0:16.000',2.15
'0:16.004',1.66
'0:16.008',1.37
'0:16.012',1.37
'0:16.016',1.35
'0:16.020',0.7
'0:16.023',0.36
'0:16.027',0.34
'0:16.031',0.27
'0:16.035',0.11
'0:16.039',0.36
'0:16.043',0.23
'0:16.047',-0.19
'0:16.051',-0.67
'0:16.055',-0.51
'0:16.059',0.04
'0:16.063',-0.17
'0:16.066',-0.45
'0:16.070',-0.31
'0:16.074',-0.24
'0:16.078',-0.76
'0:16.082',-1.42
'0:16.086',-1.68
'0:16.090',-1.8
'0:16.094',-1.85
'0:16.098',-2.4
'0:16.102',-3.08
'0:16.105',-3.52
'0:16.109',-3.58
'0:16.113',-3.48
'0:16.117',-3.1
'0:16.121',-2.47
'0:16.125',-2.24
'0:16.129',-2.36
'0:16.133',-2.34
'0:16.137',-1.88
'0:16.141',-0.56
'0:16.145',1.44
'0:16.148',3.84
'0:16.152',6.11
'0:16.156',6.58
'0:16.160',3.87
'0:16.164',-1.49
'0:16.168',-6.44
'0:16.172',-9.11
'0:16.176',-9.62
'0:16.180',-9.05
'0:16.184',-8.02
'0:16.188',-6.89
'0:16.191',-5.84
'0:16.195',-4.22
'0:16.199',-2.69
'0:16.203',-1.72
'0:16.207',-0.91
'0:16.211',-0.39
'0:16.215',0.22
'0:16.219',0.7
'0:16.223',0.83
'0:16.227',0.64
'0:16.230',0.28
'0:16.234',0.15
'0:16.238',0.3
'0:16.242',0.68
'0:16.246',1.34
'0:16.250',1.66
'0:16.254',1.23
'0:16.258',0.7
'0:16.262',0.46
'0:16.266',0.59
'0:16.270',1.14
'0:16.273',2.19
'0:16.277',3.28
'0:16.281',3.76
'0:16.285',3.78
'0:16.289',3.9
'0:16.293',3.79
'0:16.297',3.63
'0:16.301',3.58
'0:16.305',3.63
'0:16.309',3.75
'0:16.313',4.02
'0:16.316',4.41
'0:16.320',3.91
'0:16.324',2.16
'0:16.328',0.81
'0:16.332',0.59
'0:16.336',0.97
'0:16.340',0.79
'0:16.344',0.21
'0:16.348',0.05
'0:16.352',0.26
'0:16.355',0.77
'0:16.359',1.12
'0:16.363',1.74
'0:16.367',1.86
'0:16.371',1.57
'0:16.375',1.17
'0:16.379',0.91
'0:16.383',0.5
'0:16.387',0.24
'0:16.391',0.06
'0:16.395',-0.09
'0:16.398',-0.62
'0:16.402',-0.95
'0:16.406',-1.02
'0:16.410',-1.21
'0:16.414',-1.83
'0:16.418',-2.84
'0:16.422',-2.87
'0:16.426',-2.54
'0:16.430',-2.3
'0:16.434',-2.21
'0:16.438',-2.34
'0:16.441',-2.13
'0:16.445',-1.53
'0:16.449',-1.35
'0:16.453',-1.39
'0:16.457',-1.65
'0:16.461',-1.92
'0:16.465',-1.85
'0:16.469',-1.45
'0:16.473',-0.6
'0:16.477',1.67
'0:16.480',5.09
'0:16.484',6.62
'0:16.488',4.48
'0:16.492',-0.69
'0:16.496',-6.43
'0:16.500',-8.94
'0:16.504',-8.96
'0:16.508',-7.93
'0:16.512',-6.56
'0:16.516',-5.38
'0:16.520',-3.99
'0:16.523',-3.06
'0:16.527',-2.99
'0:16.531',-2.46
'0:16.535',-1.76
'0:16.539',0.02
'0:16.543',1.39
'0:16.547',1.45
'0:16.551',0.81
'0:16.555',-0.08
'0:16.559',-0.29
'0:16.563',-0.6
'0:16.566',-0.38
'0:16.570',1.65
'0:16.574',2.26
'0:16.578',0.92
'0:16.582',0.09
'0:16.586',-0.21
'0:16.590',0.91
'0:16.594',2
'0:16.598',2.22
'0:16.602',2.16
'0:16.605',2
'0:16.609',2.45
'0:16.613',3.42
'0:16.617',3.64
'0:16.621',3.72
'0:16.625',4.3
'0:16.629',5.4
'0:16.633',5.91
'0:16.637',5.8
'0:16.641',5.87
'0:16.645',6.02
'0:16.648',5.78
'0:16.652',5.11
'0:16.656',4.3
'0:16.660',3.69
'0:16.664',3.18
'0:16.668',2.74
'0:16.672',2.01
'0:16.676',1.3
'0:16.680',0.93
'0:16.684',1.03
'0:16.688',1.38
'0:16.691',1.51
'0:16.695',1.13
'0:16.699',0.43
'0:16.703',-0.19
'0:16.707',-0.35
'0:16.711',-0.52
'0:16.715',-0.93
'0:16.719',-0.97
'0:16.723',-1.21
'0:16.727',-1.48
'0:16.730',-0.91
'0:16.734',-0.27
'0:16.738',-1.13
'0:16.742',-2.1
'0:16.746',-2.34
'0:16.750',-2.48
'0:16.754',-2.6
'0:16.758',-2.37
'0:16.762',-1.59
'0:16.766',-0.96
'0:16.770',-0.85
'0:16.773',-1.33
'0:16.777',-2.39
'0:16.781',-3.07
'0:16.785',-2.71
'0:16.789',-1.95
'0:16.793',-1.1
'0:16.797',-0.23
'0:16.801',0.85
'0:16.805',2.17
'0:16.809',4.19
'0:16.813',5.5
'0:16.816',4.61
'0:16.820',1.45
'0:16.824',-3.58
'0:16.828',-7.43
'0:16.832',-8.9
'0:16.836',-8.39
'0:16.840',-7.32
'0:16.844',-6.37
'0:16.848',-5.42
'0:16.852',-4.32
'0:16.855',-3.25
'0:16.859',-2.4
'0:16.863',-1.47
'0:16.867',-1.02
'0:16.871',-0.51
'0:16.875',-0.05
'0:16.879',0.12
'0:16.883',0.1
'0:16.887',0.08
'0:16.891',0.17
'0:16.895',0.39
'0:16.898',0.49
'0:16.902',0.52
'0:16.906',0.73
'0:16.910',0.89
'0:16.914',1
'0:16.918',0.98
'0:16.922',0.85
'0:16.926',0.86
'0:16.930',1.02
'0:16.934',1.26
'0:16.938',1.8
'0:16.941',2.31
'0:16.945',2.83
'0:16.949',3.22
'0:16.953',3.58
'0:16.957',3.93
'0:16.961',4.19
'0:16.965',4.03
'0:16.969',3.3
'0:16.973',2.64
'0:16.977',2.75
'0:16.980',2.95
'0:16.984',2.78
'0:16.988',2.01
'0:16.992',1.2
'0:16.996',0.71
'0:17.000',0.25
'0:17.004',-0.19
'0:17.008',-0.26
'0:17.012',-0.24
'0:17.016',-0.35
'0:17.020',-0.6
'0:17.023',-0.58
'0:17.027',-0.8
'0:17.031',-0.81
'0:17.035',-0.5
'0:17.039',-0.62
'0:17.043',-1.08
'0:17.047',-1.24
'0:17.051',-1.12
'0:17.055',-0.92
'0:17.059',-1.21
'0:17.063',-1.63
'0:17.066',-1.96
'0:17.070',-2.14
'0:17.074',-2.4
'0:17.078',-2.87
'0:17.082',-3.41
'0:17.086',-3.34
'0:17.090',-2.88
'0:17.094',-2.73
'0:17.098',-3.04
'0:17.102',-3.55
'0:17.105',-3.27
'0:17.109',-2.49
'0:17.113',-1.85
'0:17.117',-1.58
'0:17.121',-1.08
'0:17.125',0.01
'0:17.129',2.09
'0:17.133',5.08
'0:17.137',7.93
'0:17.141',8.55
'0:17.145',6.02
'0:17.148',0.69
'0:17.152',-4.56
'0:17.156',-8.14
'0:17.160',-9.69
'0:17.164',-9.31
'0:17.168',-7.81
'0:17.172',-6.16
'0:17.176',-5.07
'0:17.180',-4.1
'0:17.184',-2.87
'0:17.188',-1.62
'0:17.191',-0.78
'0:17.195',-0.89
'0:17.199',-1.16
'0:17.203',-1.01
'0:17.207',-0.44
'0:17.211',-0.14
'0:17.215',-0.19
'0:17.219',-0.36
'0:17.223',-0.24
'0:17.227',0.05
'0:17.230',0.15
'0:17.234',-0.22
'0:17.238',-0.4
'0:17.242',0.52
'0:17.246',1.65
'0:17.250',2.17
'0:17.254',2.29
'0:17.258',2.23
'0:17.262',2.65
'0:17.266',3.02
'0:17.270',2.89
'0:17.273',3.45
'0:17.277',4.55
'0:17.281',5.36
'0:17.285',5.76
'0:17.289',5.54
'0:17.293',5.39
'0:17.297',5.65
'0:17.301',5.2
'0:17.305',4.04
'0:17.309',2.32
'0:17.313',0.83
'0:17.316',0.16
'0:17.320',0.03
'0:17.324',-0.33
'0:17.328',-0.42
'0:17.332',-0.21
'0:17.336',-0.28
'0:17.340',-0.41
'0:17.344',-0.39
'0:17.348',-0.26
'0:17.352',-0.25
'0:17.355',-0.65
'0:17.359',-0.47
'0:17.363',0.11
'0:17.367',0.84
'0:17.371',1.21
'0:17.375',1.03
'0:17.379',0.62
'0:17.383',-0.22
'0:17.387',-0.99
'0:17.391',-1.24
'0:17.395',-1.41
'0:17.398',-1.28
'0:17.402',-1.25
'0:17.406',-2.13
'0:17.410',-3.24
'0:17.414',-3.15
'0:17.418',-2.57
'0:17.422',-2.06
'0:17.426',-1.48
'0:17.430',-1.28
'0:17.434',-0.86
'0:17.438',-1.25
'0:17.441',-2.14
'0:17.445',-1.13
'0:17.449',0.66
'0:17.453',1.82
'0:17.457',3.63
'0:17.461',5.93
'0:17.465',9.02
'0:17.469',9.16
'0:17.473',5.64
'0:17.477',-0.11
'0:17.480',-6.16
'0:17.484',-9.77
'0:17.488',-9.63
'0:17.492',-7.98
'0:17.496',-5.63
'0:17.500',-4.18
'0:17.504',-2.72
'0:17.508',-1.69
'0:17.512',-1.51
'0:17.516',-1.35
'0:17.520',-1.43
'0:17.523',-1.74
'0:17.527',-1.28
'0:17.531',-0.64
'0:17.535',0.24
'0:17.539',1.12
'0:17.543',0.91
'0:17.547',0.66
'0:17.551',0.35
'0:17.555',0.53
'0:17.559',0.15
'0:17.563',-0.77
'0:17.566',-0.4
'0:17.570',1.42
'0:17.574',2.29
'0:17.578',3.02
'0:17.582',3.46
'0:17.586',3.48
'0:17.590',3.8
'0:17.594',4.47
'0:17.598',5.04
'0:17.602',5.5
'0:17.605',5.53
'0:17.609',4.92
'0:17.613',3.77
'0:17.617',3.75
'0:17.621',4.11
'0:17.625',4.67
'0:17.629',4.71
'0:17.633',4.61
'0:17.637',3.91
'0:17.641',3.11
'0:17.645',3.14
'0:17.648',2.76
'0:17.652',1.43
'0:17.656',1.05
'0:17.660',1.7
'0:17.664',2.24
'0:17.668',2.08
'0:17.672',1.76
'0:17.676',1.78
'0:17.680',1.5
'0:17.684',1.25
'0:17.688',0.93
'0:17.691',0.52
'0:17.695',0.39
'0:17.699',0.41
'0:17.703',0.65
'0:17.707',0.5
'0:17.711',0.17
'0:17.715',-0.23
'0:17.719',-0.89
'0:17.723',-1.57
'0:17.727',-1.97
'0:17.730',-2.28
'0:17.734',-2.53
'0:17.738',-2.73
'0:17.742',-2.56
'0:17.746',-2.46
'0:17.750',-2.6
'0:17.754',-2.82
'0:17.758',-3.04
'0:17.762',-3.22
'0:17.766',-3.31
'0:17.770',-3.41
'0:17.773',-3.14
'0:17.777',-2.53
'0:17.781',-1.69
'0:17.785',-0.21
'0:17.789',2.26
'0:17.793',4.79
'0:17.797',5.13
'0:17.801',2.4
'0:17.805',-2.55
'0:17.809',-7.53
'0:17.813',-10.49
'0:17.816',-11.49
'0:17.820',-10.95
'0:17.824',-9.54
'0:17.828',-8.01
'0:17.832',-6.45
'0:17.836',-5.06
'0:17.840',-3.82
'0:17.844',-2.94
'0:17.848',-2.47
'0:17.852',-2.37
'0:17.855',-2.26
'0:17.859',-1.9
'0:17.863',-1.22
'0:17.867',-0.97
'0:17.871',-0.68
'0:17.875',-0.15
'0:17.879',0.27
'0:17.883',0.53
'0:17.887',0.61
'0:17.891',0.56
'0:17.895',0.66
'0:17.898',0.95
'0:17.902',1.15
'0:17.906',1.03
'0:17.910',0.9
'0:17.914',1.19
'0:17.918',1.53
'0:17.922',2.02
'0:17.926',2.77
'0:17.930',3.47
'0:17.934',3.98
'0:17.938',4.26
'0:17.941',4.55
'0:17.945',4.44
'0:17.949',4.22
'0:17.953',3.57
'0:17.957',3.25
'0:17.961',3.09
'0:17.965',3
'0:17.969',2.5
'0:17.973',1.74
'0:17.977',1.2
'0:17.980',0.9
'0:17.984',0.53
'0:17.988',0.25
'0:17.992',0.23
'0:17.996',0.38
'0:18.000',0.66
'0:18.004',0.56
'0:18.008',0.16
'0:18.012',-0.47
'0:18.016',-0.37
'0:18.020',-0.12
'0:18.023',-0.4
'0:18.027',-0.86
'0:18.031',-0.56
'0:18.035',0.05
'0:18.039',0.55
'0:18.043',0.33
'0:18.047',-0.23
'0:18.051',-0.46
'0:18.055',-0.84
'0:18.059',-1.45
'0:18.063',-2.1
'0:18.066',-2.48
'0:18.070',-2.42
'0:18.074',-2.53
'0:18.078',-3.03
'0:18.082',-3.73
'0:18.086',-3.52
'0:18.090',-2.79
'0:18.094',-2.13
'0:18.098',-1.57
'0:18.102',-0.85
'0:18.105',-0.9
'0:18.109',-0.74
'0:18.113',0.9
'0:18.117',3.84
'0:18.121',6.45
'0:18.125',6.92
'0:18.129',3.39
'0:18.133',-3.03
'0:18.137',-8.47
'0:18.141',-10.94
'0:18.145',-10.85
'0:18.148',-9.29
'0:18.152',-7.3
'0:18.156',-5.24
'0:18.160',-3.91
'0:18.164',-3.43
'0:18.168',-3.43
'0:18.172',-2.89
'0:18.176',-2.32
'0:18.180',-1.39
'0:18.184',-0.49
'0:18.188',-0.16
'0:18.191',-0.4
'0:18.195',-0.46
'0:18.199',0.22
'0:18.203',1.13
'0:18.207',0.79
'0:18.211',-0.08
'0:18.215',0.12
'0:18.219',0.92
'0:18.223',1.41
'0:18.227',1.3
'0:18.230',1.32
'0:18.234',1.94
'0:18.238',2.77
'0:18.242',3.21
'0:18.246',3.32
'0:18.250',3.58
'0:18.254',4.1
'0:18.258',4.62
'0:18.262',5.09
'0:18.266',4.84
'0:18.270',4.85
'0:18.273',5.1
'0:18.277',5.51
'0:18.281',6.03
'0:18.285',6.11
'0:18.289',5.37
'0:18.293',4.23
'0:18.297',3.57
'0:18.301',2.56
'0:18.305',1.84
'0:18.309',1.79
'0:18.313',1.68
'0:18.316',0.91
'0:18.320',0.06
'0:18.324',0.03
'0:18.328',0.74
'0:18.332',1.6
'0:18.336',2.05
'0:18.340',0.93
'0:18.344',0.4
'0:18.348',0.64
'0:18.352',0.76
'0:18.355',1.21
'0:18.359',1.66
'0:18.363',1.37
'0:18.367',0.64
'0:18.371',0.01
'0:18.375',-0.33
'0:18.379',-0.89
'0:18.383',-1.28
'0:18.387',-1.7
'0:18.391',-2.28
'0:18.395',-2.18
'0:18.398',-1.63
'0:18.402',-1.41
'0:18.406',-2.63
'0:18.410',-3.38
'0:18.414',-2.24
'0:18.418',-1.59
'0:18.422',-1.65
'0:18.426',-1.67
'0:18.430',-1.11
'0:18.434',-0.29
'0:18.438',0.86
'0:18.441',2.71
'0:18.445',5.52
'0:18.449',7.98
'0:18.453',6.72
'0:18.457',2.51
'0:18.461',-2.78
'0:18.465',-6.92
'0:18.469',-8.93
'0:18.473',-9.52
'0:18.477',-8.33
'0:18.480',-6.82
'0:18.484',-6.47
'0:18.488',-6.17
'0:18.492',-4.4
'0:18.496',-2.43
'0:18.500',-1.45
'0:18.504',-0.93
'0:18.508',-0.28
'0:18.512',0.12
'0:18.516',-0.86
'0:18.520',-0.87
'0:18.523',-0.3
'0:18.527',-0.14
'0:18.531',-0.48
'0:18.535',-0.43
'0:18.539',-0.24
'0:18.543',-0.38
'0:18.547',-0.32
'0:18.551',-0.69
'0:18.555',0.12
'0:18.559',1.81
'0:18.563',2.37
'0:18.566',1.82
'0:18.570',1.49
'0:18.574',1.75
'0:18.578',3.13
'0:18.582',4.35
'0:18.586',4.75
'0:18.590',5.09
'0:18.594',5.15
'0:18.598',5
'0:18.602',4.85
'0:18.605',4.68
'0:18.609',4.4
'0:18.613',3.55
'0:18.617',2.26
'0:18.621',1.09
'0:18.625',0.4
'0:18.629',-0.04
'0:18.633',-0.67
'0:18.637',-0.17
'0:18.641',0.39
'0:18.645',0.58
'0:18.648',0.49
'0:18.652',0.23
'0:18.656',0.36
'0:18.660',0.85
'0:18.664',1.67
'0:18.668',2
'0:18.672',1.57
'0:18.676',1.22
'0:18.680',1.08
'0:18.684',0.86
'0:18.688',0.67
'0:18.691',0.28
'0:18.695',-0.19
'0:18.699',-0.58
'0:18.703',-1.06
'0:18.707',-1.34
'0:18.711',-1.56
'0:18.715',-1.82
'0:18.719',-1.99
'0:18.723',-2.19
'0:18.727',-2.24
'0:18.730',-2.12
'0:18.734',-2.26
'0:18.738',-2.26
'0:18.742',-2.27
'0:18.746',-2.58
'0:18.750',-2.78
'0:18.754',-2.68
'0:18.758',-2.19
'0:18.762',-1.29
'0:18.766',0.11
'0:18.770',1.91
'0:18.773',4.15
'0:18.777',6.19
'0:18.781',5.44
'0:18.785',1.49
'0:18.789',-3.9
'0:18.793',-8.23
'0:18.797',-10.37
'0:18.801',-10.4
'0:18.805',-9.28
'0:18.809',-7.79
'0:18.813',-6.32
'0:18.816',-4.77
'0:18.820',-3.33
'0:18.824',-2.54
'0:18.828',-1.95
'0:18.832',-1.68
'0:18.836',-1.85
'0:18.840',-2.09
'0:18.844',-2.17
'0:18.848',-2.04
'0:18.852',-1.66
'0:18.855',-1.51
'0:18.859',-1.36
'0:18.863',-1.05
'0:18.867',-0.51
'0:18.871',-0.07
'0:18.875',0.24
'0:18.879',0.56
'0:18.883',0.82
'0:18.887',1.09
'0:18.891',1.46
'0:18.895',1.54
'0:18.898',1.35
'0:18.902',1.56
'0:18.906',1.89
'0:18.910',2.29
'0:18.914',2.83
'0:18.918',3.65
'0:18.922',4.59
'0:18.926',4.95
'0:18.930',4.95
'0:18.934',5
'0:18.938',4.61
'0:18.941',3.33
'0:18.945',1.61
'0:18.949',0.28
'0:18.953',-0.6
'0:18.957',-0.56
'0:18.961',-0.19
'0:18.965',-0.07
'0:18.969',-0.29
'0:18.973',-0.89
'0:18.977',-1.32
'0:18.980',-1.27
'0:18.984',-1.14
'0:18.988',-0.8
'0:18.992',-0.49
'0:18.996',-0.75
'0:19.000',-0.85
'0:19.004',-0.9
'0:19.008',-1.02
'0:19.012',-0.73
'0:19.016',-0.73
'0:19.020',-1.5
'0:19.023',-2.37
'0:19.027',-2.87
'0:19.031',-2.99
'0:19.035',-2.51
'0:19.039',-2.29
'0:19.043',-2.49
'0:19.047',-2.08
'0:19.051',-1.18
'0:19.055',-1.38
'0:19.059',-2.28
'0:19.063',-2.87
'0:19.066',-3.11
'0:19.070',-3.6
'0:19.074',-3.24
'0:19.078',-2.06
'0:19.082',-0.33
'0:19.086',0.63
'0:19.090',0.96
'0:19.094',1.96
'0:19.098',4.12
'0:19.102',7.32
'0:19.105',9.65
'0:19.109',8.48
'0:19.113',3.09
'0:19.117',-3.88
'0:19.121',-8.57
'0:19.125',-9.68
'0:19.129',-8.9
'0:19.133',-7.66
'0:19.137',-6.7
'0:19.141',-5.85
'0:19.145',-5.39
'0:19.148',-4.85
'0:19.152',-3.19
'0:19.156',-1.02
'0:19.160',0.98
'0:19.164',2.07
'0:19.168',2.2
'0:19.172',1.88
'0:19.176',0.77
'0:19.180',-0.52
'0:19.184',-1.04
'0:19.188',-0.61
'0:19.191',0.32
'0:19.195',1.69
'0:19.199',2.55
'0:19.203',2.83
'0:19.207',2.91
'0:19.211',2.76
'0:19.215',2.66
'0:19.219',2.71
'0:19.223',2.99
'0:19.227',3.58
'0:19.230',3.97
'0:19.234',4.27
'0:19.238',4.41
'0:19.242',5.11
'0:19.246',5.38
'0:19.250',5.55
'0:19.254',5.31
'0:19.258',5.22
'0:19.262',4.62
'0:19.266',3.79
'0:19.270',3.03
'0:19.273',2.04
'0:19.277',1.86
'0:19.281',2.12
'0:19.285',2.1
'0:19.289',1.66
'0:19.293',1.07
'0:19.297',0.76
'0:19.301',0.28
'0:19.305',-0.38
'0:19.309',-0.34
'0:19.313',-0.05
'0:19.316',0.58
'0:19.320',1.43
'0:19.324',1.93
'0:19.328',1.52
'0:19.332',0.53
'0:19.336',0.41
'0:19.340',0.65
'0:19.344',0.7
'0:19.348',0.21
'0:19.352',0.18
'0:19.355',0.02
'0:19.359',-0.19
'0:19.363',-0.6
'0:19.367',-1.6
'0:19.371',-1.94
'0:19.375',-1.74
'0:19.379',-1.46
'0:19.383',-1.83
'0:19.387',-1.64
'0:19.391',-0.93
'0:19.395',-0.62
'0:19.398',-1.13
'0:19.402',-1.46
'0:19.406',-1.91
'0:19.410',-2.02
'0:19.414',-1.5
'0:19.418',-0.04
'0:19.422',2.42
'0:19.426',5.11
'0:19.430',7.6
'0:19.434',7.99
'0:19.438',5.11
'0:19.441',-0.57
'0:19.445',-5.99
'0:19.449',-9.32
'0:19.453',-9.6
'0:19.457',-8.94
'0:19.461',-8.1
'0:19.465',-6.73
'0:19.469',-5.1
'0:19.473',-3.57
'0:19.477',-2.59
'0:19.480',-2.38
'0:19.484',-1.78
'0:19.488',-1
'0:19.492',-0.52
'0:19.496',-0.71
'0:19.500',-0.92
'0:19.504',-0.82
'0:19.508',-0.67
'0:19.512',-1.16
'0:19.516',-0.91
'0:19.520',-0.29
'0:19.523',0.1
'0:19.527',0
