'0:00.000',-2.32
'0:00.004',-2.68
'0:00.008',-2.95
'0:00.012',-2.82
'0:00.016',-1.83
'0:00.020',0.61
'0:00.023',4.19
'0:00.027',7.6
'0:00.031',9.68
'0:00.035',9.09
'0:00.039',6.03
'0:00.043',1.89
'0:00.047',-2.1
'0:00.051',-4.78
'0:00.055',-5.97
'0:00.059',-6.13
'0:00.063',-5.68
'0:00.066',-4.93
'0:00.070',-4.3
'0:00.074',-3.8
'0:00.078',-3.41
'0:00.082',-3.11
'0:00.086',-2.88
'0:00.090',-2.66
'0:00.094',-2.45
'0:00.098',-2.08
'0:00.102',-1.68
'0:00.105',-1.52
'0:00.109',-1.37
'0:00.113',-1.23
'0:00.117',-0.96
'0:00.121',-0.72
'0:00.125',-0.32
'0:00.129',0.04
'0:00.133',0.21
'0:00.137',0.39
'0:00.141',0.44
'0:00.145',0.6
'0:00.148',0.95
'0:00.152',1.27
'0:00.156',1.73
'0:00.160',2.07
'0:00.164',2.4
'0:00.168',2.6
'0:00.172',2.75
'0:00.176',2.93
'0:00.180',2.96
'0:00.184',2.97
'0:00.188',2.91
'0:00.191',2.7
'0:00.195',2.45
'0:00.199',2.28
'0:00.203',2.27
'0:00.207',2.21
'0:00.211',2.11
'0:00.215',1.9
'0:00.219',1.67
'0:00.223',1.65
'0:00.227',1.77
'0:00.230',1.93
'0:00.234',2
'0:00.238',2.05
'0:00.242',2.21
'0:00.246',2.29
'0:00.250',2.43
'0:00.254',2.46
'0:00.258',2.46
'0:00.262',2.6
'0:00.266',2.71
'0:00.270',2.74
'0:00.273',2.66
'0:00.277',2.5
'0:00.281',2.22
'0:00.285',1.9
'0:00.289',1.6
'0:00.293',1.38
'0:00.297',1.11
'0:00.301',0.86
'0:00.305',0.56
'0:00.309',0.34
'0:00.313',0.14
'0:00.316',-0.1
'0:00.320',-0.3
'0:00.324',-0.49
'0:00.328',-0.68
'0:00.332',-0.73
'0:00.336',-0.82
'0:00.340',-0.89
'0:00.344',-0.85
'0:00.348',-0.87
'0:00.352',-1.01
'0:00.355',-1.31
'0:00.359',-1.55
'0:00.363',-1.75
'0:00.367',-1.46
'0:00.371',-0.17
'0:00.375',2.64
'0:00.379',6.43
'0:00.383',9.42
'0:00.387',10.49
'0:00.391',8.91
'0:00.395',5.42
'0:00.398',1.16
'0:00.402',-2.58
'0:00.406',-5.05
'0:00.410',-5.9
'0:00.414',-5.7
'0:00.418',-5.18
'0:00.422',-4.46
'0:00.426',-3.69
'0:00.430',-3.26
'0:00.434',-2.91
'0:00.438',-2.75
'0:00.441',-2.57
'0:00.445',-2.33
'0:00.449',-2.17
'0:00.453',-2.04
'0:00.457',-1.88
'0:00.461',-1.69
'0:00.465',-1.46
'0:00.469',-1.19
'0:00.473',-0.98
'0:00.477',-0.89
'0:00.480',-0.81
'0:00.484',-0.59
'0:00.488',-0.39
'0:00.492',-0.25
'0:00.496',-0.03
'0:00.500',0.26
'0:00.504',0.64
'0:00.508',0.94
'0:00.512',1.07
'0:00.516',1.2
'0:00.520',1.12
'0:00.523',1.12
'0:00.527',1.15
'0:00.531',1.17
'0:00.535',1.07
'0:00.539',0.84
'0:00.543',0.85
'0:00.547',0.99
'0:00.551',0.89
'0:00.555',0.54
'0:00.559',0.18
'0:00.563',-0.16
'0:00.566',-0.58
'0:00.570',-0.91
'0:00.574',-1.18
'0:00.578',-1.4
'0:00.582',-1.41
'0:00.586',-1.24
'0:00.590',-0.89
'0:00.594',-0.78
'0:00.598',-0.82
'0:00.602',-0.82
'0:00.605',-0.78
'0:00.609',-0.67
'0:00.613',-0.48
'0:00.617',-0.43
'0:00.621',-0.54
'0:00.625',-0.78
'0:00.629',-1.13
'0:00.633',-1.49
'0:00.637',-1.76
'0:00.641',-1.98
'0:00.645',-2.2
'0:00.648',-2.48
'0:00.652',-2.82
'0:00.656',-3.22
'0:00.660',-3.58
'0:00.664',-3.88
'0:00.668',-4.06
'0:00.672',-4.14
'0:00.676',-4.23
'0:00.680',-4.32
'0:00.684',-4.38
'0:00.688',-4.42
'0:00.691',-4.54
'0:00.695',-4.74
'0:00.699',-4.85
'0:00.703',-4.73
'0:00.707',-4.7
'0:00.711',-5.05
'0:00.715',-5.5
'0:00.719',-5.61
'0:00.723',-5.14
'0:00.727',-3.87
'0:00.730',-1.24
'0:00.734',2.25
'0:00.738',5.25
'0:00.742',6.75
'0:00.746',5.8
'0:00.750',2.68
'0:00.754',-1.07
'0:00.758',-4.33
'0:00.762',-6.29
'0:00.766',-7.06
'0:00.770',-7.02
'0:00.773',-6.56
'0:00.777',-5.84
'0:00.781',-5.1
'0:00.785',-4.34
'0:00.789',-3.67
'0:00.793',-3.19
'0:00.797',-2.84
'0:00.801',-2.51
'0:00.805',-2.19
'0:00.809',-1.83
'0:00.813',-1.48
'0:00.816',-1.23
'0:00.820',-1.03
'0:00.824',-0.89
'0:00.828',-0.71
'0:00.832',-0.52
'0:00.836',-0.29
'0:00.840',-0.08
'0:00.844',0.11
'0:00.848',0.27
'0:00.852',0.37
'0:00.855',0.46
'0:00.859',0.65
'0:00.863',0.89
'0:00.867',1.18
'0:00.871',1.36
'0:00.875',1.51
'0:00.879',1.72
'0:00.883',1.86
'0:00.887',2.04
'0:00.891',2.19
'0:00.895',2.25
'0:00.898',2.13
'0:00.902',1.85
'0:00.906',1.53
'0:00.910',1.31
'0:00.914',1.16
'0:00.918',1.04
'0:00.922',0.87
'0:00.926',0.57
'0:00.930',0.27
'0:00.934',0.06
'0:00.938',-0.04
'0:00.941',-0.25
'0:00.945',-0.4
'0:00.949',-0.37
'0:00.953',-0.09
'0:00.957',0.2
'0:00.961',0.51
'0:00.965',0.93
'0:00.969',1.26
'0:00.973',1.45
'0:00.977',1.67
'0:00.980',1.91
'0:00.984',2
'0:00.988',1.84
'0:00.992',1.67
'0:00.996',1.55
'0:01.000',1.38
'0:01.004',1.08
'0:01.008',0.71
'0:01.012',0.49
'0:01.016',0.53
'0:01.020',0.63
'0:01.023',0.71
'0:01.027',0.62
'0:01.031',0.64
'0:01.035',0.75
'0:01.039',0.85
'0:01.043',0.83
'0:01.047',0.88
'0:01.051',0.89
'0:01.055',0.85
'0:01.059',0.89
'0:01.063',0.82
'0:01.066',0.43
'0:01.070',-0.08
'0:01.074',-0.35
'0:01.078',-0.16
'0:01.082',0.54
'0:01.086',2.52
'0:01.090',5.65
'0:01.094',8.68
'0:01.098',10.61
'0:01.102',10.35
'0:01.105',7.72
'0:01.109',4.07
'0:01.113',0.66
'0:01.117',-1.79
'0:01.121',-3.07
'0:01.125',-3.38
'0:01.129',-3.08
'0:01.133',-2.52
'0:01.137',-1.91
'0:01.141',-1.33
'0:01.145',-0.98
'0:01.148',-0.77
'0:01.152',-0.48
'0:01.156',-0.23
'0:01.160',-0.07
'0:01.164',-0.02
'0:01.168',0.07
'0:01.172',0.24
'0:01.176',0.39
'0:01.180',0.45
'0:01.184',0.56
'0:01.188',0.54
'0:01.191',0.63
'0:01.195',0.69
'0:01.199',0.75
'0:01.203',0.78
'0:01.207',0.83
'0:01.211',0.85
'0:01.215',0.83
'0:01.219',0.72
'0:01.223',0.88
'0:01.227',1.32
'0:01.230',1.49
'0:01.234',1.67
'0:01.238',1.65
'0:01.242',1.38
'0:01.246',1.32
'0:01.250',1.34
'0:01.254',1.34
'0:01.258',1.23
'0:01.262',1.13
'0:01.266',0.99
'0:01.270',0.93
'0:01.273',0.74
'0:01.277',0.49
'0:01.281',0.18
'0:01.285',-0.18
'0:01.289',-0.36
'0:01.293',-0.14
'0:01.297',0.08
'0:01.301',-0.07
'0:01.305',-0.13
'0:01.309',0.08
'0:01.313',0.31
'0:01.316',0.37
'0:01.320',0.52
'0:01.324',0.71
'0:01.328',0.82
'0:01.332',0.87
'0:01.336',0.42
'0:01.340',0.02
'0:01.344',-0.07
'0:01.348',-0.21
'0:01.352',-0.38
'0:01.355',-0.43
'0:01.359',-0.77
'0:01.363',-1.18
'0:01.367',-1.26
'0:01.371',-1.38
'0:01.375',-1.68
'0:01.379',-1.95
'0:01.383',-2.27
'0:01.387',-2.2
'0:01.391',-2.02
'0:01.395',-2.21
'0:01.398',-2.56
'0:01.402',-2.6
'0:01.406',-2.47
'0:01.410',-2.35
'0:01.414',-2.1
'0:01.418',-2.13
'0:01.422',-2.59
'0:01.426',-3.19
'0:01.430',-3.2
'0:01.434',-2.77
'0:01.438',-1.7
'0:01.441',0.89
'0:01.445',4.48
'0:01.449',7.57
'0:01.453',8.77
'0:01.457',7.4
'0:01.461',3.95
'0:01.465',-0.21
'0:01.469',-3.55
'0:01.473',-5.66
'0:01.477',-6.57
'0:01.480',-6.5
'0:01.484',-6.05
'0:01.488',-5.58
'0:01.492',-5.03
'0:01.496',-4.38
'0:01.500',-3.77
'0:01.504',-3.4
'0:01.508',-3.22
'0:01.512',-3.01
'0:01.516',-2.72
'0:01.520',-2.52
'0:01.523',-2.51
'0:01.527',-2.42
'0:01.531',-2.2
'0:01.535',-2.07
'0:01.539',-2.09
'0:01.543',-2.05
'0:01.547',-1.99
'0:01.551',-1.96
'0:01.555',-1.92
'0:01.559',-1.9
'0:01.563',-1.79
'0:01.566',-1.61
'0:01.570',-1.56
'0:01.574',-1.33
'0:01.578',-1.19
'0:01.582',-1.13
'0:01.586',-0.97
'0:01.590',-0.85
'0:01.594',-0.85
'0:01.598',-0.85
'0:01.602',-0.67
'0:01.605',-0.45
'0:01.609',-0.43
'0:01.613',-0.66
'0:01.617',-0.86
'0:01.621',-1.08
'0:01.625',-1.34
'0:01.629',-1.62
'0:01.633',-1.83
'0:01.637',-1.96
'0:01.641',-2.1
'0:01.645',-2.24
'0:01.648',-2.31
'0:01.652',-2.36
'0:01.656',-2.36
'0:01.660',-2.25
'0:01.664',-2.01
'0:01.668',-1.72
'0:01.672',-1.44
'0:01.676',-1.12
'0:01.680',-0.83
'0:01.684',-0.77
'0:01.688',-0.85
'0:01.691',-0.76
'0:01.695',-0.66
'0:01.699',-0.63
'0:01.703',-0.74
'0:01.707',-1.01
'0:01.711',-1.18
'0:01.715',-1.21
'0:01.719',-1.39
'0:01.723',-1.58
'0:01.727',-1.64
'0:01.730',-1.68
'0:01.734',-1.75
'0:01.738',-1.89
'0:01.742',-1.88
'0:01.746',-1.67
'0:01.750',-1.61
'0:01.754',-1.58
'0:01.758',-1.6
'0:01.762',-1.6
'0:01.766',-1.54
'0:01.770',-1.35
'0:01.773',-1.23
'0:01.777',-1.41
'0:01.781',-1.77
'0:01.785',-2.01
'0:01.789',-1.81
'0:01.793',-0.87
'0:01.797',1.19
'0:01.801',4.46
'0:01.805',7.92
'0:01.809',10.4
'0:01.813',10.44
'0:01.816',8.07
'0:01.820',4.48
'0:01.824',0.93
'0:01.828',-1.7
'0:01.832',-3.13
'0:01.836',-3.55
'0:01.840',-3.29
'0:01.844',-2.67
'0:01.848',-1.95
'0:01.852',-1.14
'0:01.855',-0.5
'0:01.859',-0.12
'0:01.863',0.2
'0:01.867',0.57
'0:01.871',0.84
'0:01.875',0.97
'0:01.879',1.05
'0:01.883',1.05
'0:01.887',1.11
'0:01.891',1.39
'0:01.895',1.67
'0:01.898',1.94
'0:01.902',2.18
'0:01.906',2.29
'0:01.910',2.33
'0:01.914',2.41
'0:01.918',2.48
'0:01.922',2.59
'0:01.926',2.67
'0:01.930',2.93
'0:01.934',3.14
'0:01.938',3.23
'0:01.941',3.25
'0:01.945',3.34
'0:01.949',3.54
'0:01.953',3.77
'0:01.957',3.88
'0:01.961',3.95
'0:01.965',3.95
'0:01.969',3.77
'0:01.973',3.46
'0:01.977',3.03
'0:01.980',2.58
'0:01.984',2.13
'0:01.988',1.64
'0:01.992',1.13
'0:01.996',0.77
'0:02.000',0.55
'0:02.004',0.41
'0:02.008',0.28
'0:02.012',0.25
'0:02.016',0.3
'0:02.020',0.39
'0:02.023',0.48
'0:02.027',0.62
'0:02.031',0.84
'0:02.035',1.11
'0:02.039',1.31
'0:02.043',1.45
'0:02.047',1.63
'0:02.051',1.69
'0:02.055',1.68
'0:02.059',1.56
'0:02.063',1.33
'0:02.066',1.09
'0:02.070',0.8
'0:02.074',0.42
'0:02.078',0.07
'0:02.082',-0.18
'0:02.086',-0.29
'0:02.090',-0.4
'0:02.094',-0.56
'0:02.098',-0.67
'0:02.102',-0.68
'0:02.105',-0.63
'0:02.109',-0.63
'0:02.113',-0.61
'0:02.117',-0.74
'0:02.121',-0.88
'0:02.125',-1.08
'0:02.129',-1.34
'0:02.133',-1.79
'0:02.137',-2.24
'0:02.141',-2.59
'0:02.145',-2.56
'0:02.148',-1.67
'0:02.152',0.42
'0:02.156',3.77
'0:02.160',7.21
'0:02.164',9.72
'0:02.168',9.92
'0:02.172',7.45
'0:02.176',3.4
'0:02.180',-0.69
'0:02.184',-3.56
'0:02.188',-5.15
'0:02.191',-5.68
'0:02.195',-5.47
'0:02.199',-4.84
'0:02.203',-4.18
'0:02.207',-3.6
'0:02.211',-3.25
'0:02.215',-3.06
'0:02.219',-2.82
'0:02.223',-2.54
'0:02.227',-2.43
'0:02.230',-2.45
'0:02.234',-2.32
'0:02.238',-2.26
'0:02.242',-2.21
'0:02.246',-2.13
'0:02.250',-1.99
'0:02.254',-1.86
'0:02.258',-1.76
'0:02.262',-1.66
'0:02.266',-1.44
'0:02.270',-1.23
'0:02.273',-1.07
'0:02.277',-1.07
'0:02.281',-0.92
'0:02.285',-0.49
'0:02.289',0.04
'0:02.293',0.44
'0:02.297',0.65
'0:02.301',0.83
'0:02.305',0.99
'0:02.309',1.23
'0:02.313',1.49
'0:02.316',1.66
'0:02.320',1.64
'0:02.324',1.54
'0:02.328',1.54
'0:02.332',1.37
'0:02.336',1
'0:02.340',0.63
'0:02.344',0.43
'0:02.348',0.27
'0:02.352',0.19
'0:02.355',0.05
'0:02.359',0.08
'0:02.363',0.19
'0:02.367',0.39
'0:02.371',0.57
'0:02.375',0.61
'0:02.379',0.61
'0:02.383',0.77
'0:02.387',1.04
'0:02.391',1.35
'0:02.395',1.62
'0:02.398',1.66
'0:02.402',1.58
'0:02.406',1.43
'0:02.410',1.23
'0:02.414',1.17
'0:02.418',1.08
'0:02.422',1.08
'0:02.426',0.94
'0:02.430',0.65
'0:02.434',0.29
'0:02.438',0.05
'0:02.441',-0.18
'0:02.445',-0.3
'0:02.449',-0.46
'0:02.453',-0.43
'0:02.457',-0.39
'0:02.461',-0.47
'0:02.465',-0.72
'0:02.469',-0.75
'0:02.473',-0.71
'0:02.477',-0.49
'0:02.480',-0.34
'0:02.484',-0.62
'0:02.488',-1.12
'0:02.492',-1.47
'0:02.496',-1.38
'0:02.500',-0.74
'0:02.504',0.87
'0:02.508',3.9
'0:02.512',7.47
'0:02.516',10.43
'0:02.520',11.72
'0:02.523',10.17
'0:02.527',6.34
'0:02.531',1.94
'0:02.535',-1.62
'0:02.539',-3.59
'0:02.543',-4.27
'0:02.547',-3.95
'0:02.551',-3.25
'0:02.555',-2.59
'0:02.559',-1.98
'0:02.563',-1.48
'0:02.566',-1.29
'0:02.570',-1.08
'0:02.574',-0.71
'0:02.578',-0.42
'0:02.582',-0.15
'0:02.586',0.13
'0:02.590',0.44
'0:02.594',0.7
'0:02.598',0.96
'0:02.602',1.14
'0:02.605',1.15
'0:02.609',1.1
'0:02.613',1.23
'0:02.617',1.43
'0:02.621',1.51
'0:02.625',1.59
'0:02.629',1.86
'0:02.633',2.26
'0:02.637',2.55
'0:02.641',2.61
'0:02.645',2.73
'0:02.648',3
'0:02.652',3.35
'0:02.656',3.51
'0:02.660',3.54
'0:02.664',3.47
'0:02.668',3.4
'0:02.672',3.3
'0:02.676',3.11
'0:02.680',3.05
'0:02.684',2.94
'0:02.688',2.61
'0:02.691',2.2
'0:02.695',1.75
'0:02.699',1.5
'0:02.703',1.35
'0:02.707',1.17
'0:02.711',0.84
'0:02.715',0.67
'0:02.719',0.8
'0:02.723',1.18
'0:02.727',1.44
'0:02.730',1.54
'0:02.734',1.44
'0:02.738',1.37
'0:02.742',1.19
'0:02.746',1.17
'0:02.750',1.09
'0:02.754',0.98
'0:02.758',1.03
'0:02.762',0.86
'0:02.766',0.44
'0:02.770',0.08
'0:02.773',-0.25
'0:02.777',-0.47
'0:02.781',-0.62
'0:02.785',-0.85
'0:02.789',-1.2
'0:02.793',-1.45
'0:02.797',-1.51
'0:02.801',-1.53
'0:02.805',-1.62
'0:02.809',-1.74
'0:02.813',-1.91
'0:02.816',-2.06
'0:02.820',-2.12
'0:02.824',-2.15
'0:02.828',-2.14
'0:02.832',-2.07
'0:02.836',-2.09
'0:02.840',-2.29
'0:02.844',-2.65
'0:02.848',-2.87
'0:02.852',-2.66
'0:02.855',-1.59
'0:02.859',0.7
'0:02.863',3.93
'0:02.867',7.16
'0:02.871',9.3
'0:02.875',9.17
'0:02.879',6.34
'0:02.883',2.51
'0:02.887',-0.97
'0:02.891',-3.58
'0:02.895',-4.99
'0:02.898',-5.34
'0:02.902',-4.94
'0:02.906',-4.28
'0:02.910',-3.82
'0:02.914',-3.46
'0:02.918',-3.22
'0:02.922',-3.08
'0:02.926',-2.78
'0:02.930',-2.32
'0:02.934',-1.91
'0:02.938',-1.64
'0:02.941',-1.51
'0:02.945',-1.51
'0:02.949',-1.36
'0:02.953',-1.08
'0:02.957',-0.95
'0:02.961',-0.9
'0:02.965',-0.85
'0:02.969',-0.81
'0:02.973',-0.74
'0:02.977',-0.54
'0:02.980',-0.23
'0:02.984',0.02
'0:02.988',0.21
'0:02.992',0.43
'0:02.996',0.62
'0:03.000',0.71
'0:03.004',0.81
'0:03.008',0.92
'0:03.012',1.02
'0:03.016',0.98
'0:03.020',0.85
'0:03.023',0.67
'0:03.027',0.57
'0:03.031',0.45
'0:03.035',0.28
'0:03.039',0.02
'0:03.043',-0.31
'0:03.047',-0.72
'0:03.051',-1.08
'0:03.055',-1.4
'0:03.059',-1.7
'0:03.063',-1.87
'0:03.066',-1.87
'0:03.070',-1.76
'0:03.074',-1.59
'0:03.078',-1.43
'0:03.082',-1.36
'0:03.086',-1.26
'0:03.090',-1.1
'0:03.094',-0.89
'0:03.098',-0.71
'0:03.102',-0.65
'0:03.105',-0.68
'0:03.109',-0.67
'0:03.113',-0.77
'0:03.117',-0.96
'0:03.121',-1.15
'0:03.125',-1.33
'0:03.129',-1.55
'0:03.133',-1.81
'0:03.137',-2.17
'0:03.141',-2.44
'0:03.145',-2.6
'0:03.148',-2.75
'0:03.152',-2.91
'0:03.156',-3.11
'0:03.160',-3.23
'0:03.164',-3.26
'0:03.168',-3.18
'0:03.172',-3.12
'0:03.176',-3.07
'0:03.180',-3.04
'0:03.184',-2.99
'0:03.188',-3.03
'0:03.191',-3.18
'0:03.195',-3.41
'0:03.199',-3.64
'0:03.203',-3.7
'0:03.207',-3.46
'0:03.211',-2.57
'0:03.215',-0.48
'0:03.219',2.7
'0:03.223',5.85
'0:03.227',7.81
'0:03.230',7.37
'0:03.234',4.53
'0:03.238',0.7
'0:03.242',-2.74
'0:03.246',-4.89
'0:03.250',-5.84
'0:03.254',-5.93
'0:03.258',-5.52
'0:03.262',-4.82
'0:03.266',-4.06
'0:03.270',-3.39
'0:03.273',-2.98
'0:03.277',-2.65
'0:03.281',-2.19
'0:03.285',-1.7
'0:03.289',-1.33
'0:03.293',-1.1
'0:03.297',-0.92
'0:03.301',-0.83
'0:03.305',-0.74
'0:03.309',-0.55
'0:03.313',-0.26
'0:03.316',0.09
'0:03.320',0.29
'0:03.324',0.27
'0:03.328',0.27
'0:03.332',0.5
'0:03.336',0.88
'0:03.340',1.14
'0:03.344',1.25
'0:03.348',1.31
'0:03.352',1.54
'0:03.355',1.87
'0:03.359',2.2
'0:03.363',2.58
'0:03.367',2.88
'0:03.371',3.02
'0:03.375',3.08
'0:03.379',3.19
'0:03.383',3.24
'0:03.387',3.22
'0:03.391',3.05
'0:03.395',2.98
'0:03.398',2.88
'0:03.402',2.7
'0:03.406',2.45
'0:03.410',2.17
'0:03.414',1.87
'0:03.418',1.76
'0:03.422',1.82
'0:03.426',2.04
'0:03.430',2.22
'0:03.434',2.25
'0:03.438',2.29
'0:03.441',2.48
'0:03.445',2.74
'0:03.449',2.88
'0:03.453',2.93
'0:03.457',2.98
'0:03.461',2.96
'0:03.465',2.79
'0:03.469',2.55
'0:03.473',2.31
'0:03.477',2.15
'0:03.480',2.04
'0:03.484',1.68
'0:03.488',1.22
'0:03.492',0.89
'0:03.496',0.7
'0:03.500',0.59
'0:03.504',0.47
'0:03.508',0.33
'0:03.512',0.16
'0:03.516',-0.02
'0:03.520',-0.11
'0:03.523',-0.1
'0:03.527',-0.06
'0:03.531',-0.15
'0:03.535',-0.21
'0:03.539',-0.15
'0:03.543',-0.11
'0:03.547',-0.43
'0:03.551',-1.08
'0:03.555',-1.54
'0:03.559',-1.43
'0:03.563',-0.57
'0:03.566',1.59
'0:03.570',4.76
'0:03.574',7.82
'0:03.578',9.88
'0:03.582',9.5
'0:03.586',6.68
'0:03.590',2.67
'0:03.594',-0.81
'0:03.598',-3.11
'0:03.602',-4.45
'0:03.605',-4.91
'0:03.609',-4.66
'0:03.613',-3.99
'0:03.617',-3.27
'0:03.621',-2.76
'0:03.625',-2.24
'0:03.629',-1.75
'0:03.633',-1.28
'0:03.637',-1.02
'0:03.641',-1.13
'0:03.645',-1.1
'0:03.648',-0.93
'0:03.652',-0.89
'0:03.656',-0.92
'0:03.660',-0.85
'0:03.664',-0.76
'0:03.668',-0.64
'0:03.672',-0.45
'0:03.676',-0.23
'0:03.680',-0.23
'0:03.684',-0.29
'0:03.688',-0.15
'0:03.691',0.04
'0:03.695',0.21
'0:03.699',0.43
'0:03.703',0.58
'0:03.707',0.69
'0:03.711',0.75
'0:03.715',0.9
'0:03.719',0.94
'0:03.723',0.98
'0:03.727',1.1
'0:03.730',1.19
'0:03.734',0.91
'0:03.738',0.32
'0:03.742',-0.08
'0:03.746',-0.29
'0:03.750',-0.38
'0:03.754',-0.41
'0:03.758',-0.36
'0:03.762',-0.68
'0:03.766',-1.01
'0:03.770',-0.93
'0:03.773',-0.73
'0:03.777',-0.86
'0:03.781',-1.06
'0:03.785',-0.88
'0:03.789',-0.45
'0:03.793',-0.15
'0:03.797',0.13
'0:03.801',0.25
'0:03.805',0.21
'0:03.809',0.13
'0:03.813',0.24
'0:03.816',0.4
'0:03.820',0.36
'0:03.824',0.04
'0:03.828',-0.32
'0:03.832',-0.5
'0:03.836',-0.67
'0:03.840',-1.1
'0:03.844',-1.58
'0:03.848',-1.9
'0:03.852',-2.25
'0:03.855',-2.38
'0:03.859',-2.47
'0:03.863',-2.58
'0:03.867',-2.64
'0:03.871',-2.66
'0:03.875',-2.54
'0:03.879',-2.59
'0:03.883',-2.78
'0:03.887',-2.67
'0:03.891',-2.63
'0:03.895',-3.29
'0:03.898',-3.78
'0:03.902',-3.98
'0:03.906',-4.1
'0:03.910',-3.98
'0:03.914',-3.27
'0:03.918',-1.55
'0:03.922',1.31
'0:03.926',4.55
'0:03.930',7.3
'0:03.934',7.83
'0:03.938',5.67
'0:03.941',1.71
'0:03.945',-2.48
'0:03.949',-5.53
'0:03.953',-7.04
'0:03.957',-7.27
'0:03.961',-6.93
'0:03.965',-6.43
'0:03.969',-5.94
'0:03.973',-5.39
'0:03.977',-4.76
'0:03.980',-4.19
'0:03.984',-3.82
'0:03.988',-3.54
'0:03.992',-3.24
'0:03.996',-3.07
'0:04.000',-2.97
'0:04.004',-2.81
'0:04.008',-2.48
'0:04.012',-2.07
'0:04.016',-1.88
'0:04.020',-1.8
'0:04.023',-1.7
'0:04.027',-1.45
'0:04.031',-1.25
'0:04.035',-1.1
'0:04.039',-0.86
'0:04.043',-0.62
'0:04.047',-0.46
'0:04.051',-0.36
'0:04.055',-0.37
'0:04.059',-0.46
'0:04.063',-0.44
'0:04.066',-0.26
'0:04.070',0.08
'0:04.074',0.57
'0:04.078',0.69
'0:04.082',0.7
'0:04.086',0.67
'0:04.090',0.41
'0:04.094',0.24
'0:04.098',0.07
'0:04.102',-0.18
'0:04.105',-0.4
'0:04.109',-0.58
'0:04.113',-0.65
'0:04.117',-0.71
'0:04.121',-0.89
'0:04.125',-0.95
'0:04.129',-0.9
'0:04.133',-0.78
'0:04.137',-0.64
'0:04.141',-0.38
'0:04.145',-0.04
'0:04.148',0.27
'0:04.152',0.59
'0:04.156',1.02
'0:04.160',1.36
'0:04.164',1.44
'0:04.168',1.49
'0:04.172',1.52
'0:04.176',1.33
'0:04.180',1.02
'0:04.184',0.67
'0:04.188',0.54
'0:04.191',0.38
'0:04.195',0.31
'0:04.199',0.37
'0:04.203',0.24
'0:04.207',0.11
'0:04.211',-0.03
'0:04.215',-0.23
'0:04.219',-0.26
'0:04.223',-0.2
'0:04.227',-0.19
'0:04.230',-0.31
'0:04.234',-0.43
'0:04.238',-0.5
'0:04.242',-0.53
'0:04.246',-0.47
'0:04.250',-0.41
'0:04.254',-0.52
'0:04.258',-0.88
'0:04.262',-1.12
'0:04.266',-1.08
'0:04.270',-0.65
'0:04.273',0.76
'0:04.277',3.58
'0:04.281',7
'0:04.285',9.73
'0:04.289',10.51
'0:04.293',8.75
'0:04.297',5.41
'0:04.301',1.74
'0:04.305',-1.2
'0:04.309',-2.78
'0:04.313',-3.41
'0:04.316',-3.47
'0:04.320',-3.12
'0:04.324',-2.5
'0:04.328',-1.77
'0:04.332',-1.1
'0:04.336',-0.63
'0:04.340',-0.39
'0:04.344',-0.45
'0:04.348',-0.55
'0:04.352',-0.51
'0:04.355',-0.3
'0:04.359',0.02
'0:04.363',0.19
'0:04.367',0.3
'0:04.371',0.43
'0:04.375',0.65
'0:04.379',0.8
'0:04.383',0.9
'0:04.387',0.89
'0:04.391',0.94
'0:04.395',1.07
'0:04.398',1.26
'0:04.402',1.48
'0:04.406',1.64
'0:04.410',1.73
'0:04.414',1.72
'0:04.418',1.8
'0:04.422',1.92
'0:04.426',2.14
'0:04.430',2.26
'0:04.434',2.26
'0:04.438',2.15
'0:04.441',2.06
'0:04.445',2
'0:04.449',1.98
'0:04.453',1.84
'0:04.457',1.72
'0:04.461',1.46
'0:04.465',1.18
'0:04.469',0.94
'0:04.473',0.68
'0:04.477',0.41
'0:04.480',0.29
'0:04.484',0.39
'0:04.488',0.6
'0:04.492',0.73
'0:04.496',0.85
'0:04.500',0.94
'0:04.504',1.04
'0:04.508',1.15
'0:04.512',1.2
'0:04.516',1.17
'0:04.520',1.08
'0:04.523',0.99
'0:04.527',0.77
'0:04.531',0.66
'0:04.535',0.73
'0:04.539',0.68
'0:04.543',0.41
'0:04.547',0.04
'0:04.551',-0.35
'0:04.555',-0.55
'0:04.559',-0.59
'0:04.563',-0.77
'0:04.566',-0.96
'0:04.570',-1.16
'0:04.574',-1.37
'0:04.578',-1.5
'0:04.582',-1.59
'0:04.586',-1.63
'0:04.590',-1.56
'0:04.594',-1.54
'0:04.598',-1.46
'0:04.602',-1.43
'0:04.605',-1.42
'0:04.609',-1.57
'0:04.613',-1.94
'0:04.617',-2.43
'0:04.621',-2.64
'0:04.625',-2.1
'0:04.629',-0.42
'0:04.633',2.64
'0:04.637',6.29
'0:04.641',9.18
'0:04.645',10.13
'0:04.648',8.24
'0:04.652',4.46
'0:04.656',0.31
'0:04.660',-3.03
'0:04.664',-4.97
'0:04.668',-5.71
'0:04.672',-5.57
'0:04.676',-4.91
'0:04.680',-4.25
'0:04.684',-3.68
'0:04.688',-3.18
'0:04.691',-2.68
'0:04.695',-2.49
'0:04.699',-2.32
'0:04.703',-2.21
'0:04.707',-2.22
'0:04.711',-1.91
'0:04.715',-1.59
'0:04.719',-1.5
'0:04.723',-1.45
'0:04.727',-1.16
'0:04.730',-0.55
'0:04.734',-0.1
'0:04.738',-0.07
'0:04.742',-0.12
'0:04.746',-0.02
'0:04.750',0.25
'0:04.754',0.75
'0:04.758',1.22
'0:04.762',1.5
'0:04.766',1.74
'0:04.770',1.95
'0:04.773',2.16
'0:04.777',2.34
'0:04.781',2.26
'0:04.785',2.15
'0:04.789',2.13
'0:04.793',2.13
'0:04.797',2.04
'0:04.801',1.91
'0:04.805',1.66
'0:04.809',1.36
'0:04.813',1.12
'0:04.816',0.85
'0:04.820',0.55
'0:04.824',0.21
'0:04.828',0.03
'0:04.832',0
'0:04.836',0.14
'0:04.840',0.18
'0:04.844',0.24
'0:04.848',0.48
'0:04.852',0.53
'0:04.855',0.42
'0:04.859',0.51
'0:04.863',0.7
'0:04.867',0.83
'0:04.871',0.79
'0:04.875',0.81
'0:04.879',0.75
'0:04.883',0.6
'0:04.887',0.5
'0:04.891',0.31
'0:04.895',0.04
'0:04.898',-0.18
'0:04.902',-0.4
'0:04.906',-0.68
'0:04.910',-0.95
'0:04.914',-1.06
'0:04.918',-1.19
'0:04.922',-1.22
'0:04.926',-1.26
'0:04.930',-1.21
'0:04.934',-1.21
'0:04.938',-1.16
'0:04.941',-1.16
'0:04.945',-1.21
'0:04.949',-1.24
'0:04.953',-1.24
'0:04.957',-1.17
'0:04.961',-1.25
'0:04.965',-1.56
'0:04.969',-1.7
'0:04.973',-1.66
'0:04.977',-1.16
'0:04.980',0.6
'0:04.984',3.95
'0:04.988',7.7
'0:04.992',10.46
'0:04.996',11.24
'0:05.000',9.38
'0:05.004',5.82
'0:05.008',1.78
'0:05.012',-1.48
'0:05.016',-3.3
'0:05.020',-3.82
'0:05.023',-3.51
'0:05.027',-2.85
'0:05.031',-2.14
'0:05.035',-1.55
'0:05.039',-1.05
'0:05.043',-0.67
'0:05.047',-0.53
'0:05.051',-0.53
'0:05.055',-0.4
'0:05.059',-0.13
'0:05.063',0.07
'0:05.066',0.13
'0:05.070',0.15
'0:05.074',0.18
'0:05.078',0.38
'0:05.082',0.71
'0:05.086',0.99
'0:05.090',1.17
'0:05.094',1.24
'0:05.098',1.32
'0:05.102',1.45
'0:05.105',1.67
'0:05.109',1.96
'0:05.113',2.28
'0:05.117',2.52
'0:05.121',2.68
'0:05.125',2.82
'0:05.129',2.99
'0:05.133',3.16
'0:05.137',3.29
'0:05.141',3.28
'0:05.145',3.13
'0:05.148',2.94
'0:05.152',2.77
'0:05.156',2.71
'0:05.160',2.57
'0:05.164',2.22
'0:05.168',1.76
'0:05.172',1.28
'0:05.176',0.87
'0:05.180',0.6
'0:05.184',0.29
'0:05.188',-0.03
'0:05.191',-0.2
'0:05.195',-0.18
'0:05.199',0.07
'0:05.203',0.24
'0:05.207',0.36
'0:05.211',0.4
'0:05.215',0.53
'0:05.219',0.72
'0:05.223',0.89
'0:05.227',0.95
'0:05.230',0.79
'0:05.234',0.73
'0:05.238',0.84
'0:05.242',0.88
'0:05.246',0.7
'0:05.250',0.48
'0:05.254',0.15
'0:05.258',-0.13
'0:05.262',-0.4
'0:05.266',-0.76
'0:05.270',-1.06
'0:05.273',-1.16
'0:05.277',-1.13
'0:05.281',-1.07
'0:05.285',-1.07
'0:05.289',-1.23
'0:05.293',-1.38
'0:05.297',-1.46
'0:05.301',-1.43
'0:05.305',-1.47
'0:05.309',-1.59
'0:05.313',-1.68
'0:05.316',-1.84
'0:05.320',-2.17
'0:05.324',-2.45
'0:05.328',-2.47
'0:05.332',-1.79
'0:05.336',0.17
'0:05.340',3.3
'0:05.344',6.54
'0:05.348',8.77
'0:05.352',8.88
'0:05.355',6.48
'0:05.359',2.84
'0:05.363',-0.79
'0:05.367',-3.46
'0:05.371',-4.88
'0:05.375',-5.23
'0:05.379',-4.92
'0:05.383',-4.3
'0:05.387',-3.57
'0:05.391',-2.89
'0:05.395',-2.31
'0:05.398',-1.92
'0:05.402',-1.63
'0:05.406',-1.37
'0:05.410',-1.13
'0:05.414',-0.91
'0:05.418',-0.74
'0:05.422',-0.61
'0:05.426',-0.61
'0:05.430',-0.54
'0:05.434',-0.44
'0:05.438',-0.27
'0:05.441',-0.14
'0:05.445',-0.03
'0:05.449',0.17
'0:05.453',0.26
'0:05.457',0.36
'0:05.461',0.52
'0:05.465',0.79
'0:05.469',1.22
'0:05.473',1.42
'0:05.477',1.08
'0:05.480',0.77
'0:05.484',0.71
'0:05.488',0.92
'0:05.492',1.26
'0:05.496',1.43
'0:05.500',1.54
'0:05.504',1.56
'0:05.508',1.51
'0:05.512',1.47
'0:05.516',1.33
'0:05.520',1.06
'0:05.523',0.7
'0:05.527',0.4
'0:05.531',0.24
'0:05.535',0.03
'0:05.539',-0.18
'0:05.543',-0.16
'0:05.547',-0.05
'0:05.551',0.09
'0:05.555',0.22
'0:05.559',0.22
'0:05.563',0.22
'0:05.566',0.29
'0:05.570',0.57
'0:05.574',0.76
'0:05.578',0.86
'0:05.582',0.9
'0:05.586',0.93
'0:05.590',0.88
'0:05.594',0.79
'0:05.598',0.64
'0:05.602',0.57
'0:05.605',0.43
'0:05.609',0.07
'0:05.613',-0.29
'0:05.617',-0.59
'0:05.621',-0.76
'0:05.625',-0.96
'0:05.629',-1.13
'0:05.633',-1.29
'0:05.637',-1.35
'0:05.641',-1.43
'0:05.645',-1.48
'0:05.648',-1.48
'0:05.652',-1.39
'0:05.656',-1.2
'0:05.660',-1.07
'0:05.664',-1.06
'0:05.668',-1.27
'0:05.672',-1.7
'0:05.676',-2.26
'0:05.680',-2.73
'0:05.684',-2.65
'0:05.688',-1.46
'0:05.691',1.12
'0:05.695',4.61
'0:05.699',7.82
'0:05.703',9.59
'0:05.707',8.74
'0:05.711',5.55
'0:05.715',1.59
'0:05.719',-1.7
'0:05.723',-3.74
'0:05.727',-4.73
'0:05.730',-4.91
'0:05.734',-4.5
'0:05.738',-3.9
'0:05.742',-3.11
'0:05.746',-2.34
'0:05.750',-1.77
'0:05.754',-1.52
'0:05.758',-1.45
'0:05.762',-1.12
'0:05.766',-0.67
'0:05.770',-0.35
'0:05.773',-0.1
'0:05.777',0.16
'0:05.781',0.31
'0:05.785',0.42
'0:05.789',0.48
'0:05.793',0.58
'0:05.797',0.83
'0:05.801',1.09
'0:05.805',1.33
'0:05.809',1.57
'0:05.813',1.78
'0:05.816',1.88
'0:05.820',1.87
'0:05.824',1.94
'0:05.828',2.25
'0:05.832',2.58
'0:05.836',2.74
'0:05.840',2.62
'0:05.844',2.54
'0:05.848',2.39
'0:05.852',2.32
'0:05.855',2.37
'0:05.859',2.42
'0:05.863',2.33
'0:05.867',2.11
'0:05.871',1.82
'0:05.875',1.51
'0:05.879',1.19
'0:05.883',0.85
'0:05.887',0.54
'0:05.891',0.44
'0:05.895',0.36
'0:05.898',0.23
'0:05.902',0.2
'0:05.906',0.32
'0:05.910',0.4
'0:05.914',0.27
'0:05.918',0.29
'0:05.922',0.6
'0:05.926',0.83
'0:05.930',0.88
'0:05.934',0.83
'0:05.938',0.67
'0:05.941',0.41
'0:05.945',0.25
'0:05.949',0.13
'0:05.953',-0.03
'0:05.957',-0.25
'0:05.961',-0.55
'0:05.965',-0.85
'0:05.969',-1.27
'0:05.973',-1.68
'0:05.977',-1.93
'0:05.980',-2.13
'0:05.984',-2.38
'0:05.988',-2.48
'0:05.992',-2.47
'0:05.996',-2.54
'0:06.000',-2.38
'0:06.004',-2.47
'0:06.008',-2.6
'0:06.012',-2.51
'0:06.016',-2.51
'0:06.020',-2.66
'0:06.023',-3.1
'0:06.027',-3.44
'0:06.031',-3.41
'0:06.035',-2.91
'0:06.039',-1.56
'0:06.043',0.98
'0:06.047',4.23
'0:06.051',7.33
'0:06.055',8.86
'0:06.059',7.41
'0:06.063',3.95
'0:06.066',0.13
'0:06.070',-2.97
'0:06.074',-4.91
'0:06.078',-6.04
'0:06.082',-6.32
'0:06.086',-5.88
'0:06.090',-5.08
'0:06.094',-4.39
'0:06.098',-3.83
'0:06.102',-3.47
'0:06.105',-3.37
'0:06.109',-3.11
'0:06.113',-2.72
'0:06.117',-2.58
'0:06.121',-2.43
'0:06.125',-2.01
'0:06.129',-1.76
'0:06.133',-1.68
'0:06.137',-1.54
'0:06.141',-1.3
'0:06.145',-1.24
'0:06.148',-1.24
'0:06.152',-1.08
'0:06.156',-0.74
'0:06.160',-0.6
'0:06.164',-0.7
'0:06.168',-0.63
'0:06.172',-0.54
'0:06.176',-0.37
'0:06.180',-0.23
'0:06.184',-0.05
'0:06.188',0.23
'0:06.191',0.46
'0:06.195',0.44
'0:06.199',0.23
'0:06.203',0.13
'0:06.207',0.1
'0:06.211',0.13
'0:06.215',0.13
'0:06.219',0.11
'0:06.223',-0.14
'0:06.227',-0.51
'0:06.230',-0.93
'0:06.234',-1.2
'0:06.238',-1.37
'0:06.242',-1.46
'0:06.246',-1.51
'0:06.250',-1.58
'0:06.254',-1.54
'0:06.258',-1.37
'0:06.262',-1.1
'0:06.266',-0.91
'0:06.270',-0.75
'0:06.273',-0.55
'0:06.277',-0.23
'0:06.281',-0.02
'0:06.285',0
'0:06.289',-0.13
'0:06.293',-0.51
'0:06.297',-0.95
'0:06.301',-1.15
'0:06.305',-1.29
'0:06.309',-1.36
'0:06.313',-1.58
'0:06.316',-2
'0:06.320',-2.36
'0:06.324',-2.75
'0:06.328',-3.03
'0:06.332',-3.14
'0:06.336',-3.14
'0:06.340',-3.09
'0:06.344',-3.03
'0:06.348',-2.81
'0:06.352',-2.61
'0:06.355',-2.46
'0:06.359',-2.47
'0:06.363',-2.5
'0:06.367',-2.21
'0:06.371',-2.25
'0:06.375',-2.97
'0:06.379',-3.72
'0:06.383',-3.97
'0:06.387',-3.72
'0:06.391',-2.75
'0:06.395',-0.55
'0:06.398',2.84
'0:06.402',5.97
'0:06.406',7.88
'0:06.410',7.35
'0:06.414',4.67
'0:06.418',0.82
'0:06.422',-2.82
'0:06.426',-5.17
'0:06.430',-6.27
'0:06.434',-6.49
'0:06.438',-6.09
'0:06.441',-5.29
'0:06.445',-4.26
'0:06.449',-3.51
'0:06.453',-3.02
'0:06.457',-2.6
'0:06.461',-2.27
'0:06.465',-2.1
'0:06.469',-1.88
'0:06.473',-1.77
'0:06.477',-1.76
'0:06.480',-1.57
'0:06.484',-1.3
'0:06.488',-1.1
'0:06.492',-1.02
'0:06.496',-0.94
'0:06.500',-0.87
'0:06.504',-0.76
'0:06.508',-0.64
'0:06.512',-0.45
'0:06.516',-0.36
'0:06.520',-0.23
'0:06.523',0.08
'0:06.527',0.49
'0:06.531',0.78
'0:06.535',0.99
'0:06.539',1.35
'0:06.543',1.82
'0:06.547',2.28
'0:06.551',2.46
'0:06.555',2.49
'0:06.559',2.39
'0:06.563',2.28
'0:06.566',2.24
'0:06.570',2.22
'0:06.574',2.17
'0:06.578',1.99
'0:06.582',1.84
'0:06.586',1.67
'0:06.590',1.5
'0:06.594',1.26
'0:06.598',0.92
'0:06.602',0.79
'0:06.605',0.84
'0:06.609',0.99
'0:06.613',1.21
'0:06.617',1.36
'0:06.621',1.46
'0:06.625',1.51
'0:06.629',1.71
'0:06.633',1.88
'0:06.637',1.85
'0:06.641',1.83
'0:06.645',1.83
'0:06.648',1.72
'0:06.652',1.64
'0:06.656',1.52
'0:06.660',1.24
'0:06.664',1.01
'0:06.668',0.74
'0:06.672',0.49
'0:06.676',0.21
'0:06.680',-0.1
'0:06.684',-0.33
'0:06.688',-0.47
'0:06.691',-0.59
'0:06.695',-0.65
'0:06.699',-0.63
'0:06.703',-0.61
'0:06.707',-0.6
'0:06.711',-0.61
'0:06.715',-0.65
'0:06.719',-0.59
'0:06.723',-0.48
'0:06.727',-0.47
'0:06.730',-0.73
'0:06.734',-1.29
'0:06.738',-1.48
'0:06.742',-1.24
'0:06.746',-0.48
'0:06.750',1.56
'0:06.754',4.86
'0:06.758',8.2
'0:06.762',10.45
'0:06.766',10.2
'0:06.770',7.24
'0:06.773',3.14
'0:06.777',-0.65
'0:06.781',-3.19
'0:06.785',-4.44
'0:06.789',-4.7
'0:06.793',-4.38
'0:06.797',-3.79
'0:06.801',-3.12
'0:06.805',-2.56
'0:06.809',-2.15
'0:06.813',-1.87
'0:06.816',-1.55
'0:06.820',-1.32
'0:06.824',-1.18
'0:06.828',-1.05
'0:06.832',-0.93
'0:06.836',-0.64
'0:06.840',-0.47
'0:06.844',-0.33
'0:06.848',-0.03
'0:06.852',0.3
'0:06.855',0.55
'0:06.859',0.73
'0:06.863',0.83
'0:06.867',0.99
'0:06.871',1.21
'0:06.875',1.36
'0:06.879',1.54
'0:06.883',1.7
'0:06.887',1.77
'0:06.891',1.92
'0:06.895',2.14
'0:06.898',2.43
'0:06.902',2.61
'0:06.906',2.61
'0:06.910',2.45
'0:06.914',2.33
'0:06.918',2.13
'0:06.922',1.99
'0:06.926',1.84
'0:06.930',1.54
'0:06.934',1.1
'0:06.938',0.88
'0:06.941',0.77
'0:06.945',0.44
'0:06.949',0.11
'0:06.953',0.01
'0:06.957',0.09
'0:06.961',0.19
'0:06.965',0.29
'0:06.969',0.35
'0:06.973',0.35
'0:06.977',0.44
'0:06.980',0.68
'0:06.984',0.76
'0:06.988',0.8
'0:06.992',0.81
'0:06.996',0.85
'0:07.000',0.81
'0:07.004',0.69
'0:07.008',0.35
'0:07.012',-0.14
'0:07.016',-0.49
'0:07.020',-0.72
'0:07.023',-0.94
'0:07.027',-1.15
'0:07.031',-1.28
'0:07.035',-1.47
'0:07.039',-1.69
'0:07.043',-1.8
'0:07.047',-1.78
'0:07.051',-1.64
'0:07.055',-1.53
'0:07.059',-1.45
'0:07.063',-1.38
'0:07.066',-1.31
'0:07.070',-1.29
'0:07.074',-1.22
'0:07.078',-1.23
'0:07.082',-1.44
'0:07.086',-1.8
'0:07.090',-1.92
'0:07.094',-1.63
'0:07.098',-0.79
'0:07.102',1.08
'0:07.105',4.33
'0:07.109',7.81
'0:07.113',10.25
'0:07.117',10.39
'0:07.121',7.84
'0:07.125',3.76
'0:07.129',-0.3
'0:07.133',-3.2
'0:07.137',-4.72
'0:07.141',-5.13
'0:07.145',-4.85
'0:07.148',-4.06
'0:07.152',-3.22
'0:07.156',-2.51
'0:07.160',-1.99
'0:07.164',-1.79
'0:07.168',-1.55
'0:07.172',-1.3
'0:07.176',-1.09
'0:07.180',-1.02
'0:07.184',-0.91
'0:07.188',-0.7
'0:07.191',-0.43
'0:07.195',-0.18
'0:07.199',-0.16
'0:07.203',-0.1
'0:07.207',0.18
'0:07.211',0.45
'0:07.215',0.58
'0:07.219',0.64
'0:07.223',0.77
'0:07.227',0.94
'0:07.230',1.18
'0:07.234',1.29
'0:07.238',1.43
'0:07.242',1.71
'0:07.246',2.17
'0:07.250',2.48
'0:07.254',2.47
'0:07.258',2.33
'0:07.262',2.29
'0:07.266',2.3
'0:07.270',2.21
'0:07.273',1.92
'0:07.277',1.57
'0:07.281',1.33
'0:07.285',1.23
'0:07.289',1.08
'0:07.293',0.87
'0:07.297',0.62
'0:07.301',0.37
'0:07.305',0.32
'0:07.309',0.32
'0:07.313',0.39
'0:07.316',0.58
'0:07.320',0.72
'0:07.324',0.87
'0:07.328',0.91
'0:07.332',0.92
'0:07.336',1.21
'0:07.340',1.48
'0:07.344',1.51
'0:07.348',1.51
'0:07.352',1.56
'0:07.355',1.42
'0:07.359',1.18
'0:07.363',0.98
'0:07.367',0.7
'0:07.371',0.55
'0:07.375',0.46
'0:07.379',0.32
'0:07.383',0.05
'0:07.387',-0.21
'0:07.391',-0.37
'0:07.395',-0.43
'0:07.398',-0.56
'0:07.402',-0.69
'0:07.406',-0.59
'0:07.410',-0.43
'0:07.414',-0.41
'0:07.418',-0.47
'0:07.422',-0.56
'0:07.426',-0.47
'0:07.430',-0.38
'0:07.434',-0.54
'0:07.438',-0.85
'0:07.441',-1.29
'0:07.445',-1.44
'0:07.449',-0.87
'0:07.453',0.74
'0:07.457',3.64
'0:07.461',6.98
'0:07.465',9.49
'0:07.469',10.36
'0:07.473',8.81
'0:07.477',5.32
'0:07.480',1.41
'0:07.484',-1.85
'0:07.488',-3.74
'0:07.492',-4.39
'0:07.496',-4.28
'0:07.500',-3.68
'0:07.504',-3.02
'0:07.508',-2.34
'0:07.512',-1.92
'0:07.516',-1.73
'0:07.520',-1.58
'0:07.523',-1.31
'0:07.527',-1.01
'0:07.531',-0.86
'0:07.535',-0.78
'0:07.539',-0.72
'0:07.543',-0.63
'0:07.547',-0.6
'0:07.551',-0.6
'0:07.555',-0.4
'0:07.559',-0.02
'0:07.563',0.19
'0:07.566',0.39
'0:07.570',0.63
'0:07.574',0.89
'0:07.578',1.05
'0:07.582',1.23
'0:07.586',1.41
'0:07.590',1.62
'0:07.594',1.91
'0:07.598',2.3
'0:07.602',2.76
'0:07.605',3.09
'0:07.609',3.28
'0:07.613',3.39
'0:07.617',3.34
'0:07.621',3.12
'0:07.625',2.89
'0:07.629',2.65
'0:07.633',2.45
'0:07.637',2.33
'0:07.641',2.14
'0:07.645',1.66
'0:07.648',1.1
'0:07.652',0.72
'0:07.656',0.71
'0:07.660',0.62
'0:07.664',0.25
'0:07.668',-0.22
'0:07.672',-0.35
'0:07.676',-0.2
'0:07.680',-0.23
'0:07.684',-0.29
'0:07.688',-0.04
'0:07.691',0.33
'0:07.695',0.56
'0:07.699',0.52
'0:07.703',0.32
'0:07.707',0.09
'0:07.711',-0.03
'0:07.715',-0.22
'0:07.719',-0.51
'0:07.723',-0.74
'0:07.727',-0.91
'0:07.730',-1.13
'0:07.734',-1.39
'0:07.738',-1.59
'0:07.742',-1.84
'0:07.746',-1.99
'0:07.750',-2.09
'0:07.754',-2.19
'0:07.758',-2.24
'0:07.762',-2.31
'0:07.766',-2.29
'0:07.770',-2.22
'0:07.773',-2.13
'0:07.777',-1.98
'0:07.781',-1.94
'0:07.785',-2.01
'0:07.789',-2.2
'0:07.793',-2.51
'0:07.797',-2.68
'0:07.801',-2.45
'0:07.805',-1.6
'0:07.809',0.54
'0:07.813',3.9
'0:07.816',7.05
'0:07.820',8.83
'0:07.824',8.29
'0:07.828',5.56
'0:07.832',2.08
'0:07.836',-1.21
'0:07.840',-3.7
'0:07.844',-5.11
'0:07.848',-5.52
'0:07.852',-5.27
'0:07.855',-4.68
'0:07.859',-3.95
'0:07.863',-3.32
'0:07.867',-2.75
'0:07.871',-2.24
'0:07.875',-1.82
'0:07.879',-1.59
'0:07.883',-1.51
'0:07.887',-1.44
'0:07.891',-1.32
'0:07.895',-1.15
'0:07.898',-1.12
'0:07.902',-1.07
'0:07.906',-0.9
'0:07.910',-0.66
'0:07.914',-0.35
'0:07.918',-0.08
'0:07.922',0.08
'0:07.926',0.04
'0:07.930',0.08
'0:07.934',0.4
'0:07.938',0.71
'0:07.941',0.94
'0:07.945',0.95
'0:07.949',1.13
'0:07.953',1.52
'0:07.957',1.68
'0:07.961',1.66
'0:07.965',1.64
'0:07.969',1.54
'0:07.973',1.54
'0:07.977',1.43
'0:07.980',1.19
'0:07.984',0.96
'0:07.988',0.79
'0:07.992',0.57
'0:07.996',0.25
'0:08.000',-0.09
'0:08.004',-0.48
'0:08.008',-0.85
'0:08.012',-1.02
'0:08.016',-0.98
'0:08.020',-0.97
'0:08.023',-1.04
'0:08.027',-0.91
'0:08.031',-0.6
'0:08.035',-0.37
'0:08.039',-0.3
'0:08.043',-0.18
'0:08.047',0.1
'0:08.051',0.29
'0:08.055',0.26
'0:08.059',0.11
'0:08.063',-0.07
'0:08.066',-0.22
'0:08.070',-0.38
'0:08.074',-0.51
'0:08.078',-0.76
'0:08.082',-1.14
'0:08.086',-1.35
'0:08.090',-1.59
'0:08.094',-1.68
'0:08.098',-1.74
'0:08.102',-1.86
'0:08.105',-2.08
'0:08.109',-2.3
'0:08.113',-2.46
'0:08.117',-2.36
'0:08.121',-2.2
'0:08.125',-2
'0:08.129',-1.97
'0:08.133',-2.06
'0:08.137',-2.09
'0:08.141',-2.23
'0:08.145',-2.58
'0:08.148',-2.93
'0:08.152',-3.05
'0:08.156',-2.51
'0:08.160',-0.38
'0:08.164',2.83
'0:08.168',6.02
'0:08.172',8.22
'0:08.176',8.23
'0:08.180',5.78
'0:08.184',2.42
'0:08.188',-0.71
'0:08.191',-2.98
'0:08.195',-4.29
'0:08.199',-4.77
'0:08.203',-4.6
'0:08.207',-4
'0:08.211',-3.19
'0:08.215',-2.53
'0:08.219',-2.13
'0:08.223',-1.88
'0:08.227',-1.68
'0:08.230',-1.45
'0:08.234',-1.2
'0:08.238',-1.09
'0:08.242',-1.04
'0:08.246',-0.9
'0:08.250',-0.78
'0:08.254',-0.78
'0:08.258',-0.72
'0:08.262',-0.54
'0:08.266',-0.34
'0:08.270',-0.13
'0:08.273',0.14
'0:08.277',0.29
'0:08.281',0.35
'0:08.285',0.26
'0:08.289',0.36
'0:08.293',0.58
'0:08.297',0.85
'0:08.301',0.98
'0:08.305',1.1
'0:08.309',1.26
'0:08.313',1.39
'0:08.316',1.32
'0:08.320',1.34
'0:08.324',1.34
'0:08.328',1.21
'0:08.332',1.08
'0:08.336',1.01
'0:08.340',0.98
'0:08.344',0.73
'0:08.348',0.25
'0:08.352',-0.27
'0:08.355',-0.5
'0:08.359',-0.44
'0:08.363',-0.36
'0:08.367',-0.46
'0:08.371',-0.7
'0:08.375',-0.62
'0:08.379',-0.33
'0:08.383',-0.22
'0:08.387',-0.14
'0:08.391',0.06
'0:08.395',0.36
'0:08.398',0.49
'0:08.402',0.36
'0:08.406',0.11
'0:08.410',-0.02
'0:08.414',0.04
'0:08.418',0.15
'0:08.422',0.2
'0:08.426',0.09
'0:08.430',-0.15
'0:08.434',-0.54
'0:08.438',-0.9
'0:08.441',-1.34
'0:08.445',-1.68
'0:08.449',-2.01
'0:08.453',-2.19
'0:08.457',-2.24
'0:08.461',-2.19
'0:08.465',-2.12
'0:08.469',-2.11
'0:08.473',-2.18
'0:08.477',-2.41
'0:08.480',-2.63
'0:08.484',-2.56
'0:08.488',-2.5
'0:08.492',-2.85
'0:08.496',-3.18
'0:08.500',-3.1
'0:08.504',-2.82
'0:08.508',-1.94
'0:08.512',0.28
'0:08.516',3.59
'0:08.520',6.63
'0:08.523',8.34
'0:08.527',7.7
'0:08.531',4.78
'0:08.535',1.05
'0:08.539',-2.26
'0:08.543',-4.54
'0:08.547',-5.79
'0:08.551',-5.88
'0:08.555',-5.34
'0:08.559',-4.68
'0:08.563',-4.01
'0:08.566',-3.41
'0:08.570',-2.99
'0:08.574',-2.66
'0:08.578',-2.47
'0:08.582',-2.34
'0:08.586',-2.17
'0:08.590',-2.14
'0:08.594',-2
'0:08.598',-1.72
'0:08.602',-1.48
'0:08.605',-1.62
'0:08.609',-1.68
'0:08.613',-1.59
'0:08.617',-1.41
'0:08.621',-1.28
'0:08.625',-1.17
'0:08.629',-0.89
'0:08.633',-0.73
'0:08.637',-0.57
'0:08.641',-0.31
'0:08.645',-0.17
'0:08.648',-0.07
'0:08.652',0.05
'0:08.656',0.08
'0:08.660',0.19
'0:08.664',0.39
'0:08.668',0.54
'0:08.672',0.47
'0:08.676',0.42
'0:08.680',0.49
'0:08.684',0.42
'0:08.688',0.17
'0:08.691',-0.31
'0:08.695',-0.59
'0:08.699',-0.79
'0:08.703',-1.17
'0:08.707',-1.45
'0:08.711',-1.57
'0:08.715',-1.65
'0:08.719',-1.77
'0:08.723',-1.82
'0:08.727',-1.69
'0:08.730',-1.4
'0:08.734',-1.26
'0:08.738',-1.26
'0:08.742',-1.16
'0:08.746',-0.94
'0:08.750',-0.65
'0:08.754',-0.29
'0:08.758',0.18
'0:08.762',0.22
'0:08.766',-0.27
'0:08.770',-0.69
'0:08.773',-0.87
'0:08.777',-0.9
'0:08.781',-0.98
'0:08.785',-1.5
'0:08.789',-1.93
'0:08.793',-2
'0:08.797',-2.02
'0:08.801',-2.39
'0:08.805',-2.6
'0:08.809',-2.57
'0:08.813',-2.44
'0:08.816',-2.47
'0:08.820',-2.62
'0:08.824',-2.58
'0:08.828',-2.28
'0:08.832',-2.03
'0:08.836',-1.86
'0:08.840',-1.72
'0:08.844',-1.63
'0:08.848',-1.95
'0:08.852',-2.56
'0:08.855',-2.57
'0:08.859',-1.79
'0:08.863',-0.17
'0:08.867',2.82
'0:08.871',6.36
'0:08.875',9.35
'0:08.879',10.11
'0:08.883',8.12
'0:08.887',4.48
'0:08.891',0.6
'0:08.895',-2.34
'0:08.898',-3.9
'0:08.902',-4.4
'0:08.906',-4.16
'0:08.910',-3.5
'0:08.914',-2.74
'0:08.918',-2.07
'0:08.922',-1.57
'0:08.926',-1.17
'0:08.930',-0.8
'0:08.934',-0.38
'0:08.938',-0.13
'0:08.941',-0.11
'0:08.945',-0.07
'0:08.949',0.2
'0:08.953',0.58
'0:08.957',0.82
'0:08.961',0.97
'0:08.965',1.1
'0:08.969',1.33
'0:08.973',1.58
'0:08.977',1.77
'0:08.980',1.92
'0:08.984',1.94
'0:08.988',1.88
'0:08.992',2.02
'0:08.996',2.37
'0:09.000',2.65
'0:09.004',2.87
'0:09.008',3.13
'0:09.012',3.45
'0:09.016',3.47
'0:09.020',3.42
'0:09.023',3.41
'0:09.027',3.5
'0:09.031',3.55
'0:09.035',3.37
'0:09.039',3.09
'0:09.043',2.93
'0:09.047',2.79
'0:09.051',2.64
'0:09.055',2.38
'0:09.059',2.13
'0:09.063',1.86
'0:09.066',1.62
'0:09.070',1.45
'0:09.074',1.44
'0:09.078',1.55
'0:09.082',1.72
'0:09.086',1.83
'0:09.090',1.78
'0:09.094',1.69
'0:09.098',1.89
'0:09.102',2.22
'0:09.105',2.5
'0:09.109',2.66
'0:09.113',2.61
'0:09.117',2.47
'0:09.121',2.28
'0:09.125',1.97
'0:09.129',1.77
'0:09.133',1.67
'0:09.137',1.39
'0:09.141',0.97
'0:09.145',0.6
'0:09.148',0.34
'0:09.152',0.09
'0:09.156',-0.15
'0:09.160',-0.24
'0:09.164',-0.26
'0:09.168',-0.35
'0:09.172',-0.53
'0:09.176',-0.65
'0:09.180',-0.65
'0:09.184',-0.61
'0:09.188',-0.44
'0:09.191',-0.25
'0:09.195',-0.14
'0:09.199',-0.38
'0:09.203',-0.88
'0:09.207',-1.27
'0:09.211',-1.26
'0:09.215',-0.36
'0:09.219',1.87
'0:09.223',5.3
'0:09.227',8.89
'0:09.230',11.15
'0:09.234',10.84
'0:09.238',8.12
'0:09.242',4.15
'0:09.246',0.32
'0:09.250',-2.31
'0:09.254',-3.59
'0:09.258',-3.85
'0:09.262',-3.52
'0:09.266',-3.06
'0:09.270',-2.51
'0:09.273',-2.02
'0:09.277',-1.65
'0:09.281',-1.4
'0:09.285',-1.2
'0:09.289',-0.96
'0:09.293',-0.74
'0:09.297',-0.59
'0:09.301',-0.42
'0:09.305',-0.26
'0:09.309',-0.05
'0:09.313',0.15
'0:09.316',0.31
'0:09.320',0.43
'0:09.324',0.58
'0:09.328',0.85
'0:09.332',1.07
'0:09.336',1.29
'0:09.340',1.52
'0:09.344',1.69
'0:09.348',1.82
'0:09.352',1.97
'0:09.355',2.02
'0:09.359',2.21
'0:09.363',2.45
'0:09.367',2.54
'0:09.371',2.63
'0:09.375',2.67
'0:09.379',2.56
'0:09.383',2.46
'0:09.387',2.26
'0:09.391',1.97
'0:09.395',1.75
'0:09.398',1.53
'0:09.402',1.3
'0:09.406',1.04
'0:09.410',0.77
'0:09.414',0.55
'0:09.418',0.38
'0:09.422',0.35
'0:09.426',0.4
'0:09.430',0.44
'0:09.434',0.55
'0:09.438',0.73
'0:09.441',0.85
'0:09.445',0.93
'0:09.449',1.07
'0:09.453',1.26
'0:09.457',1.39
'0:09.461',1.51
'0:09.465',1.52
'0:09.469',1.42
'0:09.473',1.23
'0:09.477',1.04
'0:09.480',0.9
'0:09.484',0.77
'0:09.488',0.46
'0:09.492',0.02
'0:09.496',-0.39
'0:09.500',-0.71
'0:09.504',-0.94
'0:09.508',-1.13
'0:09.512',-1.24
'0:09.516',-1.14
'0:09.520',-1.09
'0:09.523',-1.07
'0:09.527',-1.07
'0:09.531',-0.99
'0:09.535',-0.92
'0:09.539',-0.92
'0:09.543',-0.99
'0:09.547',-1.13
'0:09.551',-1.42
'0:09.555',-2.01
'0:09.559',-2.67
'0:09.563',-3.08
'0:09.566',-2.76
'0:09.570',-1.24
'0:09.574',1.87
'0:09.578',5.65
'0:09.582',8.77
'0:09.586',9.81
'0:09.590',8.03
'0:09.594',4.26
'0:09.598',0.04
'0:09.602',-3.47
'0:09.605',-5.47
'0:09.609',-5.9
'0:09.613',-5.57
'0:09.617',-5
'0:09.621',-4.32
'0:09.625',-3.7
'0:09.629',-3.12
'0:09.633',-2.67
'0:09.637',-2.22
'0:09.641',-1.83
'0:09.645',-1.66
'0:09.648',-1.44
'0:09.652',-1.18
'0:09.656',-0.87
'0:09.660',-0.61
'0:09.664',-0.51
'0:09.668',-0.56
'0:09.672',-0.43
'0:09.676',-0.27
'0:09.680',0
'0:09.684',0.17
'0:09.688',0.42
'0:09.691',0.75
'0:09.695',1.04
'0:09.699',1.28
'0:09.703',1.45
'0:09.707',1.63
'0:09.711',1.95
'0:09.715',2.3
'0:09.719',2.63
'0:09.723',2.66
'0:09.727',2.73
'0:09.730',2.83
'0:09.734',2.86
'0:09.738',2.78
'0:09.742',2.64
'0:09.746',2.59
'0:09.750',2.36
'0:09.754',2.12
'0:09.758',1.87
'0:09.762',1.55
'0:09.766',1.4
'0:09.770',1.27
'0:09.773',1.25
'0:09.777',1.34
'0:09.781',1.39
'0:09.785',1.44
'0:09.789',1.55
'0:09.793',1.56
'0:09.797',1.37
'0:09.801',1.34
'0:09.805',1.39
'0:09.809',1.5
'0:09.813',1.49
'0:09.816',1.39
'0:09.820',1.3
'0:09.824',1.18
'0:09.828',1.01
'0:09.832',0.7
'0:09.836',0.41
'0:09.840',0.1
'0:09.844',0
'0:09.848',-0.04
'0:09.852',-0.32
'0:09.855',-0.75
'0:09.859',-1.12
'0:09.863',-1.42
'0:09.867',-1.65
'0:09.871',-1.65
'0:09.875',-1.68
'0:09.879',-1.7
'0:09.883',-1.63
'0:09.887',-1.72
'0:09.891',-1.86
'0:09.895',-1.99
'0:09.898',-1.93
'0:09.902',-2.07
'0:09.906',-2.48
'0:09.910',-2.98
'0:09.914',-3.01
'0:09.918',-2.23
'0:09.922',-0.19
'0:09.926',3.17
'0:09.930',6.66
'0:09.934',9.23
'0:09.938',9.52
'0:09.941',7.01
'0:09.945',3
'0:09.949',-1.08
'0:09.953',-4.14
'0:09.957',-5.66
'0:09.961',-6.01
'0:09.965',-5.54
'0:09.969',-4.81
'0:09.973',-4.18
'0:09.977',-3.74
'0:09.980',-3.23
'0:09.984',-2.75
'0:09.988',-2.23
'0:09.992',-1.94
'0:09.996',-1.74
'0:10.000',-1.59
'0:10.004',-1.52
'0:10.008',-1.39
'0:10.012',-1.23
'0:10.016',-0.96
'0:10.020',-0.65
'0:10.023',-0.28
'0:10.027',0.02
'0:10.031',0.13
'0:10.035',0.18
'0:10.039',0.1
'0:10.043',0.09
'0:10.047',0.08
'0:10.051',0.12
'0:10.055',0.18
'0:10.059',0.42
'0:10.063',0.77
'0:10.066',1.09
'0:10.070',1.33
'0:10.074',1.44
'0:10.078',1.49
'0:10.082',1.47
'0:10.086',1.55
'0:10.090',1.58
'0:10.094',1.48
'0:10.098',1.14
'0:10.102',0.8
'0:10.105',0.62
'0:10.109',0.38
'0:10.113',0.09
'0:10.117',-0.27
'0:10.121',-0.61
'0:10.125',-0.84
'0:10.129',-0.92
'0:10.133',-0.94
'0:10.137',-0.93
'0:10.141',-0.79
'0:10.145',-0.63
'0:10.148',-0.55
'0:10.152',-0.6
'0:10.156',-0.56
'0:10.160',-0.37
'0:10.164',-0.33
'0:10.168',-0.51
'0:10.172',-0.69
'0:10.176',-0.84
'0:10.180',-1.05
'0:10.184',-1.32
'0:10.188',-1.55
'0:10.191',-1.74
'0:10.195',-2
'0:10.199',-2.32
'0:10.203',-2.59
'0:10.207',-2.79
'0:10.211',-2.99
'0:10.215',-3.04
'0:10.219',-3.09
'0:10.223',-3.23
'0:10.227',-3.33
'0:10.230',-3.38
'0:10.234',-3.4
'0:10.238',-3.46
'0:10.242',-3.37
'0:10.246',-3.14
'0:10.250',-3
'0:10.254',-2.9
'0:10.258',-3.1
'0:10.262',-3.49
'0:10.266',-3.58
'0:10.270',-3.21
'0:10.273',-2.02
'0:10.277',0.57
'0:10.281',3.97
'0:10.285',6.89
'0:10.289',8.21
'0:10.293',6.91
'0:10.297',3.63
'0:10.301',-0.03
'0:10.305',-3.12
'0:10.309',-5.14
'0:10.313',-6.08
'0:10.316',-6.17
'0:10.320',-5.63
'0:10.324',-4.86
'0:10.328',-4.16
'0:10.332',-3.64
'0:10.336',-3.12
'0:10.340',-2.6
'0:10.344',-2.13
'0:10.348',-2.02
'0:10.352',-2.02
'0:10.355',-2
'0:10.359',-1.88
'0:10.363',-1.75
'0:10.367',-1.68
'0:10.371',-1.61
'0:10.375',-1.53
'0:10.379',-1.34
'0:10.383',-1.13
'0:10.387',-0.93
'0:10.391',-0.74
'0:10.395',-0.48
'0:10.398',-0.16
'0:10.402',0.14
'0:10.406',0.36
'0:10.410',0.51
'0:10.414',0.68
'0:10.418',0.83
'0:10.422',0.97
'0:10.426',1
'0:10.430',0.95
'0:10.434',0.97
'0:10.438',1.05
'0:10.441',1.07
'0:10.445',1.07
'0:10.449',1.06
'0:10.453',0.89
'0:10.457',0.56
'0:10.461',0.18
'0:10.465',-0.01
'0:10.469',-0.11
'0:10.473',-0.23
'0:10.477',-0.45
'0:10.480',-0.64
'0:10.484',-0.72
'0:10.488',-0.61
'0:10.492',-0.19
'0:10.496',0.26
'0:10.500',0.42
'0:10.504',0.4
'0:10.508',0.43
'0:10.512',0.55
'0:10.516',0.84
'0:10.520',1.05
'0:10.523',1.05
'0:10.527',0.98
'0:10.531',0.94
'0:10.535',0.88
'0:10.539',0.83
'0:10.543',0.69
'0:10.547',0.43
'0:10.551',0.18
'0:10.555',-0.11
'0:10.559',-0.44
'0:10.563',-0.69
'0:10.566',-0.91
'0:10.570',-1.13
'0:10.574',-1.24
'0:10.578',-1.38
'0:10.582',-1.36
'0:10.586',-1.2
'0:10.590',-1.07
'0:10.594',-0.96
'0:10.598',-0.98
'0:10.602',-1.41
'0:10.605',-1.8
'0:10.609',-2.12
'0:10.613',-2.38
'0:10.617',-2.34
'0:10.621',-1.85
'0:10.625',-0.61
'0:10.629',1.8
'0:10.633',4.96
'0:10.637',7.74
'0:10.641',8.94
'0:10.645',7.63
'0:10.648',4.62
'0:10.652',1.11
'0:10.656',-2.02
'0:10.660',-4.02
'0:10.664',-4.83
'0:10.668',-4.74
'0:10.672',-4.19
'0:10.676',-3.74
'0:10.680',-3.44
'0:10.684',-2.97
'0:10.688',-2.35
'0:10.691',-1.84
'0:10.695',-1.65
'0:10.699',-1.56
'0:10.703',-1.27
'0:10.707',-1.11
'0:10.711',-0.99
'0:10.715',-0.99
'0:10.719',-0.97
'0:10.723',-0.98
'0:10.727',-0.92
'0:10.730',-0.66
'0:10.734',-0.41
'0:10.738',-0.36
'0:10.742',-0.29
'0:10.746',-0.13
'0:10.750',0.08
'0:10.754',0.15
'0:10.758',0.11
'0:10.762',0.24
'0:10.766',0.44
'0:10.770',0.58
'0:10.773',0.75
'0:10.777',0.97
'0:10.781',1.15
'0:10.785',1.11
'0:10.789',0.91
'0:10.793',0.86
'0:10.797',0.98
'0:10.801',1.03
'0:10.805',0.96
'0:10.809',0.77
'0:10.813',0.57
'0:10.816',0.1
'0:10.820',-0.3
'0:10.824',-0.35
'0:10.828',-0.14
'0:10.832',-0.16
'0:10.836',-0.38
'0:10.840',-0.36
'0:10.844',-0.21
'0:10.848',-0.26
'0:10.852',-0.33
'0:10.855',-0.15
'0:10.859',0.14
'0:10.863',0.42
'0:10.867',0.64
'0:10.871',0.54
'0:10.875',0.41
'0:10.879',0.32
'0:10.883',0.34
'0:10.887',0.24
'0:10.891',-0.15
'0:10.895',-0.52
'0:10.898',-0.89
'0:10.902',-1.16
'0:10.906',-1.46
'0:10.910',-1.83
'0:10.914',-2.13
'0:10.918',-2.06
'0:10.922',-1.83
'0:10.926',-1.94
'0:10.930',-2.16
'0:10.934',-2.12
'0:10.938',-2.17
'0:10.941',-2.12
'0:10.945',-2
'0:10.949',-1.94
'0:10.953',-2.05
'0:10.957',-2.32
'0:10.961',-2.51
'0:10.965',-2.69
'0:10.969',-2.86
'0:10.973',-2.58
'0:10.977',-1.57
'0:10.980',0.45
'0:10.984',3.35
'0:10.988',6.38
'0:10.992',8.44
'0:10.996',7.96
'0:11.000',5.27
'0:11.004',1.42
'0:11.008',-2.36
'0:11.012',-4.93
'0:11.016',-6.18
'0:11.020',-6.07
'0:11.023',-5.5
'0:11.027',-4.67
'0:11.031',-3.6
'0:11.035',-3.03
'0:11.039',-2.98
'0:11.043',-2.86
'0:11.047',-2.53
'0:11.051',-2.39
'0:11.055',-2.39
'0:11.059',-2.06
'0:11.063',-1.68
'0:11.066',-1.58
'0:11.070',-1.4
'0:11.074',-1.27
'0:11.078',-1.18
'0:11.082',-1.07
'0:11.086',-0.97
'0:11.090',-0.88
'0:11.094',-0.83
'0:11.098',-0.65
'0:11.102',-0.48
'0:11.105',-0.43
'0:11.109',-0.32
'0:11.113',-0.21
'0:11.117',-0.13
'0:11.121',-0.05
'0:11.125',-0.01
'0:11.129',0.05
'0:11.133',0.14
'0:11.137',0.23
'0:11.141',0.11
'0:11.145',0.03
'0:11.148',-0.09
'0:11.152',-0.07
'0:11.156',0.01
'0:11.160',-0.03
'0:11.164',-0.25
'0:11.168',-0.63
'0:11.172',-1.07
'0:11.176',-1.27
'0:11.180',-1.29
'0:11.184',-1.31
'0:11.188',-1.24
'0:11.191',-1.17
'0:11.195',-1.17
'0:11.199',-1.15
'0:11.203',-1.03
'0:11.207',-0.7
'0:11.211',-0.23
'0:11.215',0.04
'0:11.219',0.18
'0:11.223',0.22
'0:11.227',0.16
'0:11.230',0.15
'0:11.234',0.22
'0:11.238',0.37
'0:11.242',0.44
'0:11.246',0.33
'0:11.250',0.18
'0:11.254',-0.1
'0:11.258',-0.53
'0:11.262',-0.82
'0:11.266',-0.69
'0:11.270',-0.52
'0:11.273',-0.53
'0:11.277',-0.56
'0:11.281',-0.6
'0:11.285',-0.68
'0:11.289',-0.68
'0:11.293',-0.58
'0:11.297',-0.4
'0:11.301',-0.21
'0:11.305',-0.14
'0:11.309',-0.09
'0:11.313',-0.13
'0:11.316',-0.39
'0:11.320',-0.83
'0:11.324',-1.11
'0:11.328',-0.85
'0:11.332',0.32
'0:11.336',2.68
'0:11.340',5.93
'0:11.344',8.98
'0:11.348',10.94
'0:11.352',10.47
'0:11.355',7.77
'0:11.359',4.07
'0:11.363',0.6
'0:11.367',-1.7
'0:11.371',-2.73
'0:11.375',-2.92
'0:11.379',-2.6
'0:11.383',-2.04
'0:11.387',-1.59
'0:11.391',-1.21
'0:11.395',-0.79
'0:11.398',-0.46
'0:11.402',-0.31
'0:11.406',-0.06
'0:11.410',0.19
'0:11.414',0.35
'0:11.418',0.6
'0:11.422',0.87
'0:11.426',1.09
'0:11.430',1.26
'0:11.434',1.46
'0:11.438',1.65
'0:11.441',1.62
'0:11.445',1.46
'0:11.449',1.45
'0:11.453',1.63
'0:11.457',1.82
'0:11.461',1.99
'0:11.465',2.14
'0:11.469',2.34
'0:11.473',2.5
'0:11.477',2.64
'0:11.480',2.75
'0:11.484',2.94
'0:11.488',3.14
'0:11.492',3.12
'0:11.496',2.91
'0:11.500',2.74
'0:11.504',2.69
'0:11.508',2.5
'0:11.512',2.31
'0:11.516',1.94
'0:11.520',1.51
'0:11.523',1.18
'0:11.527',0.85
'0:11.531',0.57
'0:11.535',0.42
'0:11.539',0.35
'0:11.543',0.3
'0:11.547',0.36
'0:11.551',0.53
'0:11.555',0.75
'0:11.559',0.97
'0:11.563',1.1
'0:11.566',1.15
'0:11.570',1.47
'0:11.574',1.84
'0:11.578',1.84
'0:11.582',1.64
'0:11.586',1.54
'0:11.590',1.6
'0:11.594',1.55
'0:11.598',1.3
'0:11.602',1.06
'0:11.605',0.91
'0:11.609',0.72
'0:11.613',0.41
'0:11.617',0.11
'0:11.621',-0.07
'0:11.625',-0.16
'0:11.629',-0.33
'0:11.633',-0.62
'0:11.637',-0.93
'0:11.641',-1.14
'0:11.645',-1.05
'0:11.648',-0.95
'0:11.652',-1.08
'0:11.656',-1.12
'0:11.660',-1.22
'0:11.664',-1.17
'0:11.668',-1.16
'0:11.672',-1.5
'0:11.676',-2.07
'0:11.680',-2.36
'0:11.684',-1.96
'0:11.688',-0.52
'0:11.691',2.29
'0:11.695',6.03
'0:11.699',9.29
'0:11.703',11.05
'0:11.707',10.17
'0:11.711',6.9
'0:11.715',2.78
'0:11.719',-1.05
'0:11.723',-3.67
'0:11.727',-4.71
'0:11.730',-4.9
'0:11.734',-4.74
'0:11.738',-4.38
'0:11.742',-3.94
'0:11.746',-3.34
'0:11.750',-2.79
'0:11.754',-2.53
'0:11.758',-2.37
'0:11.762',-2.27
'0:11.766',-2.13
'0:11.770',-1.86
'0:11.773',-1.61
'0:11.777',-1.37
'0:11.781',-1.17
'0:11.785',-1.01
'0:11.789',-0.72
'0:11.793',-0.4
'0:11.797',-0.04
'0:11.801',0.15
'0:11.805',0.19
'0:11.809',0.43
'0:11.813',0.51
'0:11.816',0.54
'0:11.820',0.77
'0:11.824',1.23
'0:11.828',1.62
'0:11.832',1.7
'0:11.836',1.95
'0:11.840',1.99
'0:11.844',1.86
'0:11.848',1.77
'0:11.852',1.69
'0:11.855',1.68
'0:11.859',1.77
'0:11.863',1.85
'0:11.867',1.76
'0:11.871',1.53
'0:11.875',1.17
'0:11.879',0.8
'0:11.883',0.52
'0:11.887',0.33
'0:11.891',0.06
'0:11.895',-0.04
'0:11.898',-0.2
'0:11.902',-0.17
'0:11.906',-0.02
'0:11.910',0.25
'0:11.914',0.31
'0:11.918',0.09
'0:11.922',0.14
'0:11.926',0.23
'0:11.930',0.19
'0:11.934',0.04
'0:11.938',-0.09
'0:11.941',-0.09
'0:11.945',-0.13
'0:11.949',-0.47
'0:11.953',-0.86
'0:11.957',-1.21
'0:11.961',-1.36
'0:11.965',-1.4
'0:11.969',-1.66
'0:11.973',-1.95
'0:11.977',-2.18
'0:11.980',-2.39
'0:11.984',-2.6
'0:11.988',-2.72
'0:11.992',-2.72
'0:11.996',-2.56
'0:12.000',-2.56
'0:12.004',-2.56
'0:12.008',-2.54
'0:12.012',-2.48
'0:12.016',-2.52
'0:12.020',-2.73
'0:12.023',-3.19
'0:12.027',-3.57
'0:12.031',-3.65
'0:12.035',-3.27
'0:12.039',-1.72
'0:12.043',1.3
'0:12.047',4.9
'0:12.051',7.98
'0:12.055',9.46
'0:12.059',8.29
'0:12.063',4.85
'0:12.066',0.68
'0:12.070',-2.78
'0:12.074',-5.02
'0:12.078',-5.82
'0:12.082',-5.41
'0:12.086',-4.43
'0:12.090',-3.54
'0:12.094',-2.78
'0:12.098',-2.3
'0:12.102',-1.86
'0:12.105',-1.56
'0:12.109',-1.44
'0:12.113',-1.21
'0:12.117',-0.77
'0:12.121',-0.52
'0:12.125',-0.39
'0:12.129',-0.41
'0:12.133',-0.37
'0:12.137',-0.17
'0:12.141',-0.15
'0:12.145',-0.07
'0:12.148',0.27
'0:12.152',0.7
'0:12.156',0.89
'0:12.160',1.11
'0:12.164',1.45
'0:12.168',1.68
'0:12.172',1.76
'0:12.176',1.87
'0:12.180',2.07
'0:12.184',2.29
'0:12.188',2.45
'0:12.191',2.58
'0:12.195',2.61
'0:12.199',2.57
'0:12.203',2.26
'0:12.207',2.04
'0:12.211',1.95
'0:12.215',1.91
'0:12.219',1.67
'0:12.223',1.24
'0:12.227',0.96
'0:12.230',0.72
'0:12.234',0.46
'0:12.238',0.12
'0:12.242',-0.3
'0:12.246',-0.4
'0:12.250',-0.23
'0:12.254',-0.16
'0:12.258',-0.26
'0:12.262',-0.24
'0:12.266',-0.04
'0:12.270',0.03
'0:12.273',0.1
'0:12.277',0.11
'0:12.281',-0.05
'0:12.285',-0.23
'0:12.289',-0.3
'0:12.293',-0.43
'0:12.297',-0.62
'0:12.301',-0.79
'0:12.305',-0.96
'0:12.309',-1.11
'0:12.313',-1.24
'0:12.316',-1.34
'0:12.320',-1.48
'0:12.324',-1.58
'0:12.328',-1.67
'0:12.332',-1.79
'0:12.336',-2.09
'0:12.340',-2.33
'0:12.344',-2.34
'0:12.348',-2.31
'0:12.352',-2.31
'0:12.355',-2.34
'0:12.359',-2.28
'0:12.363',-2.19
'0:12.367',-2.14
'0:12.371',-2.19
'0:12.375',-2.28
'0:12.379',-2.49
'0:12.383',-2.74
'0:12.387',-2.58
'0:12.391',-1.55
'0:12.395',0.53
'0:12.398',3.67
'0:12.402',6.69
'0:12.406',8.54
'0:12.410',8.32
'0:12.414',5.82
'0:12.418',2.11
'0:12.422',-1.56
'0:12.426',-4.37
'0:12.430',-5.85
'0:12.434',-6.17
'0:12.438',-5.68
'0:12.441',-4.88
'0:12.445',-4.12
'0:12.449',-3.51
'0:12.453',-2.99
'0:12.457',-2.54
'0:12.461',-2.21
'0:12.465',-1.93
'0:12.469',-1.71
'0:12.473',-1.61
'0:12.477',-1.67
'0:12.480',-1.7
'0:12.484',-1.68
'0:12.488',-1.56
'0:12.492',-1.43
'0:12.496',-1.36
'0:12.500',-1.2
'0:12.504',-0.98
'0:12.508',-0.76
'0:12.512',-0.63
'0:12.516',-0.59
'0:12.520',-0.46
'0:12.523',-0.32
'0:12.527',-0.05
'0:12.531',0.19
'0:12.535',0.37
'0:12.539',0.56
'0:12.543',0.66
'0:12.547',0.73
'0:12.551',0.85
'0:12.555',0.88
'0:12.559',0.71
'0:12.563',0.45
'0:12.566',0.28
'0:12.570',0.2
'0:12.574',0.11
'0:12.578',-0.08
'0:12.582',-0.33
'0:12.586',-0.51
'0:12.590',-0.68
'0:12.594',-0.87
'0:12.598',-1.01
'0:12.602',-1
'0:12.605',-0.92
'0:12.609',-0.76
'0:12.613',-0.54
'0:12.617',-0.25
'0:12.621',-0.05
'0:12.625',0.08
'0:12.629',0.22
'0:12.633',0.29
'0:12.637',0.33
'0:12.641',0.35
'0:12.645',0.32
'0:12.648',0.16
'0:12.652',0.01
'0:12.656',-0.06
'0:12.660',-0.12
'0:12.664',-0.32
'0:12.668',-0.79
'0:12.672',-1.18
'0:12.676',-1.36
'0:12.680',-1.36
'0:12.684',-1.38
'0:12.688',-1.59
'0:12.691',-1.89
'0:12.695',-2.04
'0:12.699',-2.02
'0:12.703',-1.91
'0:12.707',-1.73
'0:12.711',-1.6
'0:12.715',-1.49
'0:12.719',-1.41
'0:12.723',-1.43
'0:12.727',-1.99
'0:12.730',-2.8
'0:12.734',-3.19
'0:12.738',-2.97
'0:12.742',-2
'0:12.746',0
'0:12.750',2.99
'0:12.754',5.99
'0:12.758',8.13
'0:12.762',8.11
'0:12.766',5.75
'0:12.770',2.17
'0:12.773',-1.25
'0:12.777',-3.69
'0:12.781',-4.96
'0:12.785',-5.29
'0:12.789',-4.84
'0:12.793',-4.02
'0:12.797',-3.24
'0:12.801',-2.58
'0:12.805',-1.97
'0:12.809',-1.56
'0:12.813',-1.29
'0:12.816',-1.02
'0:12.820',-0.72
'0:12.824',-0.31
'0:12.828',-0.03
'0:12.832',0.17
'0:12.836',0.43
'0:12.840',0.59
'0:12.844',0.61
'0:12.848',0.61
'0:12.852',0.81
'0:12.855',1.13
'0:12.859',1.45
'0:12.863',1.75
'0:12.867',1.99
'0:12.871',2.3
'0:12.875',2.62
'0:12.879',2.92
'0:12.883',3.17
'0:12.887',3.43
'0:12.891',3.59
'0:12.895',3.73
'0:12.898',3.92
'0:12.902',3.97
'0:12.906',3.97
'0:12.910',4.04
'0:12.914',4.12
'0:12.918',4.01
'0:12.922',3.83
'0:12.926',3.66
'0:12.930',3.49
'0:12.934',3.3
'0:12.938',3.15
'0:12.941',2.89
'0:12.945',2.57
'0:12.949',2.28
'0:12.953',2.31
'0:12.957',2.43
'0:12.961',2.54
'0:12.965',2.46
'0:12.969',2.39
'0:12.973',2.32
'0:12.977',2.43
'0:12.980',2.79
'0:12.984',3.14
'0:12.988',3.32
'0:12.992',3.39
'0:12.996',3.3
'0:13.000',2.97
'0:13.004',2.46
'0:13.008',2.16
'0:13.012',2.08
'0:13.016',1.93
'0:13.020',1.68
'0:13.023',1.28
'0:13.027',0.87
'0:13.031',0.51
'0:13.035',0.35
'0:13.039',0.13
'0:13.043',-0.22
'0:13.047',-0.33
'0:13.051',-0.29
'0:13.055',-0.38
'0:13.059',-0.57
'0:13.063',-0.54
'0:13.066',-0.39
'0:13.070',-0.36
'0:13.074',-0.62
'0:13.078',-1.19
'0:13.082',-1.76
'0:13.086',-1.92
'0:13.090',-1.55
'0:13.094',-0.18
'0:13.098',2.79
'0:13.102',6.36
'0:13.105',9.13
'0:13.109',10.03
'0:13.113',8.36
'0:13.117',4.93
'0:13.121',1.05
'0:13.125',-2.18
'0:13.129',-4.16
'0:13.133',-5
'0:13.137',-5
'0:13.141',-4.48
'0:13.145',-3.83
'0:13.148',-3.14
'0:13.152',-2.55
'0:13.156',-2.17
'0:13.160',-1.99
'0:13.164',-1.69
'0:13.168',-1.23
'0:13.172',-1.02
'0:13.176',-1.07
'0:13.180',-1.08
'0:13.184',-0.86
'0:13.188',-0.47
'0:13.191',-0.15
'0:13.195',0.16
'0:13.199',0.32
'0:13.203',0.2
'0:13.207',0.22
'0:13.211',0.3
'0:13.215',0.3
'0:13.219',0.41
'0:13.223',0.68
'0:13.227',0.94
'0:13.230',1.21
'0:13.234',1.44
'0:13.238',1.28
'0:13.242',0.94
'0:13.246',0.81
'0:13.250',0.94
'0:13.254',1.25
'0:13.258',1.6
'0:13.262',1.71
'0:13.266',1.5
'0:13.270',1.12
'0:13.273',0.9
'0:13.277',0.83
'0:13.281',0.81
'0:13.285',0.6
'0:13.289',0.19
'0:13.293',-0.2
'0:13.297',-0.33
'0:13.301',-0.26
'0:13.305',-0.19
'0:13.309',-0.07
'0:13.313',-0.06
'0:13.316',-0.18
'0:13.320',-0.12
'0:13.324',0.09
'0:13.328',0.3
'0:13.332',0.23
'0:13.336',0.1
'0:13.340',0.03
'0:13.344',-0.06
'0:13.348',-0.04
'0:13.352',-0.16
'0:13.355',-0.52
'0:13.359',-0.72
'0:13.363',-0.82
'0:13.367',-1.12
'0:13.371',-1.68
'0:13.375',-2.18
'0:13.379',-2.52
'0:13.383',-2.56
'0:13.387',-2.73
'0:13.391',-3.06
'0:13.395',-3.21
'0:13.398',-3.28
'0:13.402',-3.33
'0:13.406',-3.54
'0:13.410',-3.84
'0:13.414',-3.76
'0:13.418',-3.5
'0:13.422',-3.36
'0:13.426',-3.45
'0:13.430',-3.73
'0:13.434',-4.01
'0:13.438',-4.01
'0:13.441',-3.35
'0:13.445',-1.45
'0:13.449',1.54
'0:13.453',4.62
'0:13.457',7.03
'0:13.461',7.49
'0:13.465',5.59
'0:13.469',2.17
'0:13.473',-1.5
'0:13.477',-4.3
'0:13.480',-5.74
'0:13.484',-5.9
'0:13.488',-5.38
'0:13.492',-4.76
'0:13.496',-4.37
'0:13.500',-3.89
'0:13.504',-3.35
'0:13.508',-2.98
'0:13.512',-2.82
'0:13.516',-2.6
'0:13.520',-2.13
'0:13.523',-1.72
'0:13.527',-1.51
'0:13.531',-1.46
'0:13.535',-1.39
'0:13.539',-1.36
'0:13.543',-1.31
'0:13.547',-1.29
'0:13.551',-1.14
'0:13.555',-0.72
'0:13.559',-0.15
'0:13.563',0.22
'0:13.566',0.25
'0:13.570',0.18
'0:13.574',0.29
'0:13.578',0.4
'0:13.582',0.42
'0:13.586',0.26
'0:13.590',0.18
'0:13.594',0.18
'0:13.598',0.29
'0:13.602',0.55
'0:13.605',0.69
'0:13.609',0.56
'0:13.613',0.53
'0:13.617',0.78
'0:13.621',1.07
'0:13.625',0.94
'0:13.629',0.41
'0:13.633',-0.01
'0:13.637',-0.16
'0:13.641',-0.12
'0:13.645',-0.18
'0:13.648',-0.36
'0:13.652',-0.5
'0:13.656',-0.68
'0:13.660',-0.63
'0:13.664',-0.35
'0:13.668',-0.08
'0:13.672',0.15
'0:13.676',0.43
'0:13.680',0.7
'0:13.684',0.95
'0:13.688',1.13
'0:13.691',1.34
'0:13.695',1.65
'0:13.699',1.66
'0:13.703',1.43
'0:13.707',1.21
'0:13.711',1.1
'0:13.715',1.01
'0:13.719',0.81
'0:13.723',0.5
'0:13.727',0.23
'0:13.730',-0.1
'0:13.734',-0.37
'0:13.738',-0.64
'0:13.742',-0.91
'0:13.746',-1.02
'0:13.750',-1.02
'0:13.754',-0.97
'0:13.758',-0.9
'0:13.762',-0.81
'0:13.766',-0.71
'0:13.770',-0.61
'0:13.773',-0.58
'0:13.777',-0.67
'0:13.781',-0.84
'0:13.785',-1.18
'0:13.789',-1.31
'0:13.793',-0.99
'0:13.797',0.03
'0:13.801',2.45
'0:13.805',5.87
'0:13.809',9.11
'0:13.813',10.84
'0:13.816',9.94
'0:13.820',6.85
'0:13.824',2.97
'0:13.828',-0.38
'0:13.832',-2.49
'0:13.836',-3.53
'0:13.840',-3.88
'0:13.844',-3.78
'0:13.848',-3.28
'0:13.852',-2.68
'0:13.855',-2.09
'0:13.859',-1.67
'0:13.863',-1.34
'0:13.867',-1.07
'0:13.871',-0.87
'0:13.875',-0.77
'0:13.879',-0.63
'0:13.883',-0.46
'0:13.887',-0.2
'0:13.891',0
'0:13.895',0.09
'0:13.898',0.13
'0:13.902',0.15
'0:13.906',0.14
'0:13.910',0.19
'0:13.914',0.38
'0:13.918',0.67
'0:13.922',0.83
'0:13.926',0.9
'0:13.930',1.14
'0:13.934',1.34
'0:13.938',1.56
'0:13.941',1.86
'0:13.945',2.11
'0:13.949',2.36
'0:13.953',2.46
'0:13.957',2.37
'0:13.961',2.27
'0:13.965',2.29
'0:13.969',2.27
'0:13.973',2.2
'0:13.977',2.03
'0:13.980',1.72
'0:13.984',1.22
'0:13.988',0.77
'0:13.992',0.48
'0:13.996',0.38
'0:14.000',0.3
'0:14.004',0.43
'0:14.008',0.56
'0:14.012',0.61
'0:14.016',0.63
'0:14.020',0.69
'0:14.023',0.73
'0:14.027',0.8
'0:14.031',1.02
'0:14.035',1.17
'0:14.039',1.2
'0:14.043',1.24
'0:14.047',1.41
'0:14.051',1.4
'0:14.055',1.26
'0:14.059',0.94
'0:14.063',0.67
'0:14.066',0.42
'0:14.070',0.16
'0:14.074',-0.18
'0:14.078',-0.61
'0:14.082',-0.98
'0:14.086',-1.3
'0:14.090',-1.6
'0:14.094',-1.78
'0:14.098',-1.85
'0:14.102',-1.8
'0:14.105',-1.71
'0:14.109',-1.63
'0:14.113',-1.55
'0:14.117',-1.6
'0:14.121',-1.68
'0:14.125',-1.72
'0:14.129',-1.83
'0:14.133',-2.24
'0:14.137',-2.88
'0:14.141',-3.25
'0:14.145',-2.99
'0:14.148',-1.91
'0:14.152',0.51
'0:14.156',4.07
'0:14.160',7.49
'0:14.164',9.56
'0:14.168',9.06
'0:14.172',6.17
'0:14.176',2.17
'0:14.180',-1.68
'0:14.184',-4.1
'0:14.188',-5.14
'0:14.191',-5.36
'0:14.195',-5.03
'0:14.199',-4.45
'0:14.203',-3.93
'0:14.207',-3.48
'0:14.211',-2.99
'0:14.215',-2.61
'0:14.219',-2.44
'0:14.223',-2.43
'0:14.227',-2.25
'0:14.230',-1.95
'0:14.234',-1.62
'0:14.238',-1.32
'0:14.242',-1.05
'0:14.246',-0.8
'0:14.250',-0.56
'0:14.254',-0.21
'0:14.258',0.13
'0:14.262',0.18
'0:14.266',0.27
'0:14.270',0.37
'0:14.273',0.58
'0:14.277',0.83
'0:14.281',1.02
'0:14.285',1.26
'0:14.289',1.46
'0:14.293',1.46
'0:14.297',1.53
'0:14.301',1.63
'0:14.305',1.77
'0:14.309',1.78
'0:14.313',1.65
'0:14.316',1.56
'0:14.320',1.68
'0:14.324',1.81
'0:14.328',1.65
'0:14.332',1.19
'0:14.336',0.76
'0:14.340',0.52
'0:14.344',0.23
'0:14.348',-0.01
'0:14.352',-0.12
'0:14.355',0.02
'0:14.359',0.32
'0:14.363',0.47
'0:14.367',0.6
'0:14.371',0.67
'0:14.375',0.68
'0:14.379',0.74
'0:14.383',0.9
'0:14.387',1.04
'0:14.391',1.15
'0:14.395',1.18
'0:14.398',1.27
'0:14.402',1.32
'0:14.406',1.18
'0:14.410',0.86
'0:14.414',0.6
'0:14.418',0.56
'0:14.422',0.46
'0:14.426',0.31
'0:14.430',0.18
'0:14.434',-0.01
'0:14.438',-0.16
'0:14.441',-0.36
'0:14.445',-0.57
'0:14.449',-0.74
'0:14.453',-0.89
'0:14.457',-0.92
'0:14.461',-0.87
'0:14.465',-0.85
'0:14.469',-0.59
'0:14.473',-0.27
'0:14.477',-0.09
'0:14.480',-0.16
'0:14.484',-0.59
'0:14.488',-1.19
'0:14.492',-1.57
'0:14.496',-1.4
'0:14.500',-0.22
'0:14.504',2.45
'0:14.508',5.99
'0:14.512',9.21
'0:14.516',10.99
'0:14.520',10.21
'0:14.523',7.1
'0:14.527',3.23
'0:14.531',-0.03
'0:14.535',-1.99
'0:14.539',-2.85
'0:14.543',-3.11
'0:14.547',-3
'0:14.551',-2.55
'0:14.555',-1.94
'0:14.559',-1.47
'0:14.563',-1.17
'0:14.566',-1
'0:14.570',-0.9
'0:14.574',-0.66
'0:14.578',-0.42
'0:14.582',-0.22
'0:14.586',-0.05
'0:14.590',0.14
'0:14.594',0.25
'0:14.598',0.29
'0:14.602',0.43
'0:14.605',0.58
'0:14.609',0.73
'0:14.613',0.94
'0:14.617',1.21
'0:14.621',1.46
'0:14.625',1.64
'0:14.629',1.75
'0:14.633',1.92
'0:14.637',2.16
'0:14.641',2.41
'0:14.645',2.58
'0:14.648',2.66
'0:14.652',2.66
'0:14.656',2.57
'0:14.660',2.54
'0:14.664',2.46
'0:14.668',2.3
'0:14.672',2.11
'0:14.676',1.96
'0:14.680',1.79
'0:14.684',1.55
'0:14.688',1.27
'0:14.691',0.97
'0:14.695',0.72
'0:14.699',0.6
'0:14.703',0.5
'0:14.707',0.25
'0:14.711',0.14
'0:14.715',0.19
'0:14.719',0.34
'0:14.723',0.47
'0:14.727',0.56
'0:14.730',0.54
'0:14.734',0.68
'0:14.738',0.95
'0:14.742',1.24
'0:14.746',1.34
'0:14.750',1.39
'0:14.754',1.34
'0:14.758',1.23
'0:14.762',1
'0:14.766',0.74
'0:14.770',0.4
'0:14.773',-0.05
'0:14.777',-0.59
'0:14.781',-1.03
'0:14.785',-1.31
'0:14.789',-1.69
'0:14.793',-2.2
'0:14.797',-2.57
'0:14.801',-2.6
'0:14.805',-2.6
'0:14.809',-2.63
'0:14.813',-2.77
'0:14.816',-2.91
'0:14.820',-2.92
'0:14.824',-2.92
'0:14.828',-2.95
'0:14.832',-2.99
'0:14.836',-3.39
'0:14.840',-3.92
'0:14.844',-4.29
'0:14.848',-4.27
'0:14.852',-3.22
'0:14.855',-0.45
'0:14.859',3.29
'0:14.863',6.66
'0:14.867',8.42
'0:14.871',6.99
'0:14.875',3.5
'0:14.879',-0.57
'0:14.883',-4.04
'0:14.887',-6.14
'0:14.891',-7.05
'0:14.895',-6.97
'0:14.898',-6.29
'0:14.902',-5.55
'0:14.906',-5.05
'0:14.910',-4.69
'0:14.914',-4.36
'0:14.918',-4.05
'0:14.922',-3.76
'0:14.926',-3.4
'0:14.930',-3.07
'0:14.934',-2.9
'0:14.938',-2.78
'0:14.941',-2.64
'0:14.945',-2.37
'0:14.949',-1.98
'0:14.953',-1.71
'0:14.957',-1.61
'0:14.961',-1.46
'0:14.965',-1.15
'0:14.969',-0.79
'0:14.973',-0.54
'0:14.977',-0.43
'0:14.980',-0.58
'0:14.984',-0.37
'0:14.988',0.04
'0:14.992',0.33
'0:14.996',0.6
'0:15.000',0.91
'0:15.004',1.22
'0:15.008',1.42
'0:15.012',1.46
'0:15.016',1.56
'0:15.020',1.56
'0:15.023',1.49
'0:15.027',1.39
'0:15.031',1.23
'0:15.035',0.92
'0:15.039',0.83
'0:15.043',0.76
'0:15.047',0.75
'0:15.051',0.67
'0:15.055',0.49
'0:15.059',0.49
'0:15.063',0.54
'0:15.066',0.53
'0:15.070',0.52
'0:15.074',0.51
'0:15.078',0.54
'0:15.082',0.52
'0:15.086',0.68
'0:15.090',0.81
'0:15.094',0.72
'0:15.098',0.62
'0:15.102',0.46
'0:15.105',0.46
'0:15.109',0.44
'0:15.113',0.33
'0:15.117',0.27
'0:15.121',0.21
'0:15.125',-0.03
'0:15.129',-0.45
'0:15.133',-0.82
'0:15.137',-1.11
'0:15.141',-1.23
'0:15.145',-1.29
'0:15.148',-1.38
'0:15.152',-1.43
'0:15.156',-1.55
'0:15.160',-1.74
'0:15.164',-1.84
'0:15.168',-1.92
'0:15.172',-2.03
'0:15.176',-2.11
'0:15.180',-2.14
'0:15.184',-2.21
'0:15.188',-2.52
'0:15.191',-2.87
'0:15.195',-2.89
'0:15.199',-2.17
'0:15.203',-0.36
'0:15.207',2.74
'0:15.211',5.97
'0:15.215',8.19
'0:15.219',8.58
'0:15.223',6.49
'0:15.227',2.89
'0:15.230',-0.81
'0:15.234',-3.72
'0:15.238',-5.3
'0:15.242',-5.63
'0:15.246',-5.16
'0:15.250',-4.43
'0:15.254',-3.74
'0:15.258',-3.06
'0:15.262',-2.45
'0:15.266',-1.96
'0:15.270',-1.66
'0:15.273',-1.46
'0:15.277',-1.34
'0:15.281',-1.21
'0:15.285',-1
'0:15.289',-0.83
'0:15.293',-0.71
'0:15.297',-0.54
'0:15.301',-0.18
'0:15.305',0.05
'0:15.309',0.13
'0:15.313',0.2
'0:15.316',0.31
'0:15.320',0.56
'0:15.324',0.73
'0:15.328',0.95
'0:15.332',1.15
'0:15.336',1.22
'0:15.340',1.34
'0:15.344',1.46
'0:15.348',1.7
'0:15.352',2.04
'0:15.355',2.4
'0:15.359',2.45
'0:15.363',2.18
'0:15.367',1.91
'0:15.371',1.74
'0:15.375',1.67
'0:15.379',1.57
'0:15.383',1.37
'0:15.387',1.09
'0:15.391',0.79
'0:15.395',0.57
'0:15.398',0.33
'0:15.402',-0.01
'0:15.406',-0.22
'0:15.410',-0.29
'0:15.414',-0.27
'0:15.418',-0.21
'0:15.422',0
'0:15.426',0.15
'0:15.430',0.24
'0:15.434',0.41
'0:15.438',0.56
'0:15.441',0.73
'0:15.445',0.81
'0:15.449',0.7
'0:15.453',0.45
'0:15.457',0.21
'0:15.461',-0.1
'0:15.465',-0.35
'0:15.469',-0.39
'0:15.473',-0.54
'0:15.477',-0.91
'0:15.480',-1.3
'0:15.484',-1.51
'0:15.488',-1.43
'0:15.492',-1.5
'0:15.496',-1.74
'0:15.500',-1.99
'0:15.504',-2.26
'0:15.508',-2.36
'0:15.512',-2.18
'0:15.516',-1.93
'0:15.520',-1.75
'0:15.523',-1.65
'0:15.527',-1.61
'0:15.531',-1.65
'0:15.535',-2.04
'0:15.539',-2.68
'0:15.543',-3.08
'0:15.547',-2.98
'0:15.551',-1.67
'0:15.555',1.33
'0:15.559',4.82
'0:15.563',7.58
'0:15.566',8.81
'0:15.570',7.86
'0:15.574',4.96
'0:15.578',1.29
'0:15.582',-1.98
'0:15.586',-4.02
'0:15.590',-4.93
'0:15.594',-4.87
'0:15.598',-4.48
'0:15.602',-4.01
'0:15.605',-3.52
'0:15.609',-2.87
'0:15.613',-2.35
'0:15.617',-2.1
'0:15.621',-1.69
'0:15.625',-1.44
'0:15.629',-1.36
'0:15.633',-1.13
'0:15.637',-0.67
'0:15.641',-0.41
'0:15.645',-0.39
'0:15.648',-0.27
'0:15.652',-0.14
'0:15.656',0.04
'0:15.660',0.24
'0:15.664',0.35
'0:15.668',0.4
'0:15.672',0.48
'0:15.676',0.61
'0:15.680',0.76
'0:15.684',0.79
'0:15.688',0.9
'0:15.691',1.09
'0:15.695',1.17
'0:15.699',1.24
'0:15.703',1.41
'0:15.707',1.68
'0:15.711',1.78
'0:15.715',1.61
'0:15.719',1.38
'0:15.723',1.36
'0:15.727',1.49
'0:15.730',1.54
'0:15.734',1.12
'0:15.738',0.69
'0:15.742',0.5
'0:15.746',0.47
'0:15.750',0.35
'0:15.754',0.13
'0:15.758',-0.11
'0:15.762',-0.23
'0:15.766',-0.31
'0:15.770',-0.14
'0:15.773',0.07
'0:15.777',0.05
'0:15.781',0.03
'0:15.785',0.1
'0:15.789',0.27
'0:15.793',0.32
'0:15.797',0.19
'0:15.801',0.11
'0:15.805',0.01
'0:15.809',-0.2
'0:15.813',-0.52
'0:15.816',-0.58
'0:15.820',-0.58
'0:15.824',-0.87
'0:15.828',-1.2
'0:15.832',-1.59
'0:15.836',-1.96
'0:15.840',-2.18
'0:15.844',-2.56
'0:15.848',-2.78
'0:15.852',-2.8
'0:15.855',-3.06
'0:15.859',-3.26
'0:15.863',-3.18
'0:15.867',-3.09
'0:15.871',-3.06
'0:15.875',-2.97
'0:15.879',-2.95
'0:15.883',-3.17
'0:15.887',-3.68
'0:15.891',-3.93
'0:15.895',-3.78
'0:15.898',-3.1
'0:15.902',-1.34
'0:15.906',1.63
'0:15.910',4.95
'0:15.914',7.63
'0:15.918',7.83
'0:15.922',5.25
'0:15.926',1.52
'0:15.930',-1.9
'0:15.934',-4.36
'0:15.938',-5.69
'0:15.941',-6.11
'0:15.945',-5.68
'0:15.949',-4.77
'0:15.953',-4.08
'0:15.957',-3.66
'0:15.961',-3.33
'0:15.965',-2.93
'0:15.969',-2.52
'0:15.973',-2.17
'0:15.977',-1.81
'0:15.980',-1.51
'0:15.984',-1.15
'0:15.988',-0.62
'0:15.992',0.06
'0:15.996',0.45
'0:16.000',0.61
'0:16.004',0.57
'0:16.008',0.57
'0:16.012',0.7
'0:16.016',0.9
'0:16.020',1.17
'0:16.023',1.32
'0:16.027',1.5
'0:16.031',1.83
'0:16.035',2.11
'0:16.039',2.43
'0:16.043',2.81
'0:16.047',2.88
'0:16.051',2.9
'0:16.055',2.97
'0:16.059',3.22
'0:16.063',3.51
'0:16.066',3.66
'0:16.070',3.68
'0:16.074',3.58
'0:16.078',3.46
'0:16.082',3.37
'0:16.086',3.27
'0:16.090',3.06
'0:16.094',2.69
'0:16.098',2.33
'0:16.102',2.04
'0:16.105',1.89
'0:16.109',1.92
'0:16.113',1.93
'0:16.117',1.95
'0:16.121',1.98
'0:16.125',1.91
'0:16.129',1.88
'0:16.133',2
'0:16.137',2.29
'0:16.141',2.51
'0:16.145',2.49
'0:16.148',2.42
'0:16.152',2.28
'0:16.156',2.11
'0:16.160',2.08
'0:16.164',1.93
'0:16.168',1.72
'0:16.172',1.45
'0:16.176',1.16
'0:16.180',0.77
'0:16.184',0.26
'0:16.188',-0.17
'0:16.191',-0.45
'0:16.195',-0.62
'0:16.199',-0.79
'0:16.203',-1.01
'0:16.207',-1.12
'0:16.211',-1.14
'0:16.215',-1.09
'0:16.219',-1.07
'0:16.223',-1.12
'0:16.227',-1.24
'0:16.230',-1.4
'0:16.234',-1.66
'0:16.238',-2.06
'0:16.242',-2.36
'0:16.246',-2.25
'0:16.250',-1.4
'0:16.254',0.87
'0:16.258',4.26
'0:16.262',7.35
'0:16.266',9.27
'0:16.270',8.8
'0:16.273',5.85
'0:16.277',1.59
'0:16.281',-2.4
'0:16.285',-4.86
'0:16.289',-5.97
'0:16.293',-6.12
'0:16.297',-5.6
'0:16.301',-4.77
'0:16.305',-3.94
'0:16.309',-3.3
'0:16.313',-2.83
'0:16.316',-2.43
'0:16.320',-2.07
'0:16.324',-1.92
'0:16.328',-1.82
'0:16.332',-1.63
'0:16.336',-1.48
'0:16.340',-1.29
'0:16.344',-1.15
'0:16.348',-0.97
'0:16.352',-0.8
'0:16.355',-0.64
'0:16.359',-0.53
'0:16.363',-0.45
'0:16.367',-0.48
'0:16.371',-0.53
'0:16.375',-0.49
'0:16.379',-0.51
'0:16.383',-0.53
'0:16.387',-0.42
'0:16.391',-0.31
'0:16.395',-0.29
'0:16.398',-0.21
'0:16.402',-0.02
'0:16.406',0.18
'0:16.410',0.2
'0:16.414',0.13
'0:16.418',-0.06
'0:16.422',-0.13
'0:16.426',-0.19
'0:16.430',-0.31
'0:16.434',-0.57
'0:16.438',-0.93
'0:16.441',-1.18
'0:16.445',-1.38
'0:16.449',-1.6
'0:16.453',-1.93
'0:16.457',-2.12
'0:16.461',-2.05
'0:16.465',-1.94
'0:16.469',-1.87
'0:16.473',-1.87
'0:16.477',-1.8
'0:16.480',-1.72
'0:16.484',-1.64
'0:16.488',-1.53
'0:16.492',-1.46
'0:16.496',-1.57
'0:16.500',-1.68
'0:16.504',-1.89
'0:16.508',-2.15
'0:16.512',-2.44
'0:16.516',-2.65
'0:16.520',-2.74
'0:16.523',-2.94
'0:16.527',-3.27
'0:16.531',-3.56
'0:16.535',-3.77
'0:16.539',-3.94
'0:16.543',-4.11
'0:16.547',-4.27
'0:16.551',-4.31
'0:16.555',-4.33
'0:16.559',-4.43
'0:16.563',-4.48
'0:16.566',-4.27
'0:16.570',-4
'0:16.574',-3.92
'0:16.578',-3.99
'0:16.582',-4.21
'0:16.586',-4.72
'0:16.590',-5.3
'0:16.594',-5.43
'0:16.598',-4.99
'0:16.602',-3.71
'0:16.605',-0.81
'0:16.609',2.84
'0:16.613',5.99
'0:16.617',7.33
'0:16.621',6.09
'0:16.625',3.1
'0:16.629',-0.36
'0:16.633',-3.43
'0:16.637',-5.41
'0:16.641',-6.16
'0:16.645',-6.07
'0:16.648',-5.56
'0:16.652',-4.82
'0:16.656',-4.1
'0:16.660',-3.59
'0:16.664',-3.1
'0:16.668',-2.73
'0:16.672',-2.32
'0:16.676',-1.86
'0:16.680',-1.42
'0:16.684',-1.08
'0:16.688',-0.76
'0:16.691',-0.49
'0:16.695',-0.34
'0:16.699',-0.38
'0:16.703',-0.27
'0:16.707',-0.03
'0:16.711',0.27
'0:16.715',0.53
'0:16.719',0.64
'0:16.723',0.8
'0:16.727',1.11
'0:16.730',1.52
'0:16.734',1.78
'0:16.738',2.04
'0:16.742',2.39
'0:16.746',2.71
'0:16.750',2.99
'0:16.754',3.21
'0:16.758',3.34
'0:16.762',3.3
'0:16.766',3.32
'0:16.770',3.37
'0:16.773',3.44
'0:16.777',3.26
'0:16.781',2.93
'0:16.785',2.78
'0:16.789',2.83
'0:16.793',2.91
'0:16.797',2.84
'0:16.801',2.64
'0:16.805',2.37
'0:16.809',2.31
'0:16.813',2.46
'0:16.816',2.84
'0:16.820',3.23
'0:16.824',3.56
'0:16.828',3.5
'0:16.832',3.47
'0:16.836',3.53
'0:16.840',3.79
'0:16.844',4.2
'0:16.848',4.36
'0:16.852',4.33
'0:16.855',4.12
'0:16.859',3.79
'0:16.863',3.4
'0:16.867',3.29
'0:16.871',3.15
'0:16.875',2.81
'0:16.879',2.49
'0:16.883',2.25
'0:16.887',2.03
'0:16.891',1.72
'0:16.895',1.31
'0:16.898',1.1
'0:16.902',1.01
'0:16.906',0.88
'0:16.910',0.71
'0:16.914',0.54
'0:16.918',0.47
'0:16.922',0.47
'0:16.926',0.42
'0:16.930',0.27
'0:16.934',0.16
'0:16.938',-0.13
'0:16.941',-0.5
'0:16.945',-0.51
'0:16.949',0.14
'0:16.953',2.01
'0:16.957',5.28
'0:16.961',8.87
'0:16.965',11.54
'0:16.969',12.19
'0:16.973',10.25
'0:16.977',6.55
'0:16.980',2.36
'0:16.984',-0.99
'0:16.988',-2.86
'0:16.992',-3.52
'0:16.996',-3.39
'0:17.000',-2.81
'0:17.004',-2.25
'0:17.008',-1.79
'0:17.012',-1.38
'0:17.016',-1.21
'0:17.020',-0.98
'0:17.023',-0.75
'0:17.027',-0.8
'0:17.031',-0.75
'0:17.035',-0.66
'0:17.039',-0.6
'0:17.043',-0.47
'0:17.047',-0.29
'0:17.051',-0.08
'0:17.055',0.07
'0:17.059',0.13
'0:17.063',0.08
'0:17.066',0.08
'0:17.070',0.18
'0:17.074',0.3
'0:17.078',0.42
'0:17.082',0.56
'0:17.086',0.52
'0:17.090',0.48
'0:17.094',0.72
'0:17.098',1.04
'0:17.102',1.26
'0:17.105',1.3
'0:17.109',1.22
'0:17.113',1.05
'0:17.117',0.93
'0:17.121',0.63
'0:17.125',0.34
'0:17.129',-0.12
'0:17.133',-0.74
'0:17.137',-1.23
'0:17.141',-1.71
'0:17.145',-2.11
'0:17.148',-2.55
'0:17.152',-2.79
'0:17.156',-2.83
'0:17.160',-2.75
'0:17.164',-2.73
'0:17.168',-2.84
'0:17.172',-3.07
'0:17.176',-3.07
'0:17.180',-2.95
'0:17.184',-2.8
'0:17.188',-2.72
'0:17.191',-2.63
'0:17.195',-2.73
'0:17.199',-2.87
'0:17.203',-2.9
'0:17.207',-3.11
'0:17.211',-3.5
'0:17.215',-3.93
'0:17.219',-4.11
'0:17.223',-4.35
'0:17.227',-4.67
'0:17.230',-5.03
'0:17.234',-5.21
'0:17.238',-5.4
'0:17.242',-5.6
'0:17.246',-5.74
'0:17.250',-5.84
'0:17.254',-5.83
'0:17.258',-5.73
'0:17.262',-5.67
'0:17.266',-5.56
'0:17.270',-5.36
'0:17.273',-5.12
'0:17.277',-4.93
'0:17.281',-4.82
'0:17.285',-4.91
'0:17.289',-5.09
'0:17.293',-5.07
'0:17.297',-4.57
'0:17.301',-3.1
'0:17.305',-0.23
'0:17.309',3.37
'0:17.313',6.29
'0:17.316',7.59
'0:17.320',6.21
'0:17.324',2.91
'0:17.328',-0.81
'0:17.332',-3.87
'0:17.336',-5.66
'0:17.340',-6.39
'0:17.344',-6.36
'0:17.348',-5.72
'0:17.352',-4.82
'0:17.355',-4.09
'0:17.359',-3.49
'0:17.363',-3.15
'0:17.367',-2.88
'0:17.371',-2.54
'0:17.375',-2.18
'0:17.379',-1.97
'0:17.383',-1.78
'0:17.387',-1.49
'0:17.391',-1.01
'0:17.395',-0.58
'0:17.398',-0.48
'0:17.402',-0.49
'0:17.406',-0.25
'0:17.410',-0.14
'0:17.414',0.02
'0:17.418',0.13
'0:17.422',0.17
'0:17.426',0.31
'0:17.430',0.63
'0:17.434',1.04
'0:17.438',1.5
'0:17.441',1.77
'0:17.445',1.83
'0:17.449',1.82
'0:17.453',1.97
'0:17.457',2.17
'0:17.461',2.36
'0:17.465',2.47
'0:17.469',2.37
'0:17.473',2.25
'0:17.477',2.19
'0:17.480',2.08
'0:17.484',1.91
'0:17.488',1.73
'0:17.492',1.64
'0:17.496',1.59
'0:17.500',1.42
'0:17.504',1.25
'0:17.508',1.18
'0:17.512',1.27
'0:17.516',1.54
'0:17.520',1.8
'0:17.523',1.93
'0:17.527',2.07
'0:17.531',2.26
'0:17.535',2.5
'0:17.539',2.73
'0:17.543',2.97
'0:17.547',3.09
'0:17.551',3.13
'0:17.555',3
'0:17.559',2.76
'0:17.563',2.52
'0:17.566',2.39
'0:17.570',2.11
'0:17.574',1.74
'0:17.578',1.45
'0:17.582',1.18
'0:17.586',0.93
'0:17.590',0.79
'0:17.594',0.76
'0:17.598',0.67
'0:17.602',0.57
'0:17.605',0.47
'0:17.609',0.37
'0:17.613',0.4
'0:17.617',0.58
'0:17.621',0.97
'0:17.625',1.29
'0:17.629',1.34
'0:17.633',1.2
'0:17.637',0.73
'0:17.641',0.3
'0:17.645',0.1
'0:17.648',0.42
'0:17.652',1.82
'0:17.656',4.78
'0:17.660',8.46
'0:17.664',11.56
'0:17.668',12.7
'0:17.672',11.13
'0:17.676',7.87
'0:17.680',4.28
'0:17.684',1.38
'0:17.688',-0.43
'0:17.691',-1.27
'0:17.695',-1.34
'0:17.699',-0.96
'0:17.703',-0.43
'0:17.707',0.23
'0:17.711',0.96
'0:17.715',1.45
'0:17.719',1.72
'0:17.723',1.83
'0:17.727',2.02
'0:17.730',2.28
'0:17.734',2.38
'0:17.738',2.46
'0:17.742',2.51
'0:17.746',2.56
'0:17.750',2.61
'0:17.754',2.7
'0:17.758',2.82
'0:17.762',2.85
'0:17.766',2.95
'0:17.770',3.02
'0:17.773',3.05
'0:17.777',3.05
'0:17.781',3.23
'0:17.785',3.57
'0:17.789',3.8
'0:17.793',3.81
'0:17.797',3.97
'0:17.801',4.16
'0:17.805',4.17
'0:17.809',4.1
'0:17.813',4.02
'0:17.816',4
'0:17.820',3.97
'0:17.824',3.97
'0:17.828',3.81
'0:17.832',3.39
'0:17.836',2.94
'0:17.840',2.68
'0:17.844',2.49
'0:17.848',2.35
'0:17.852',2.18
'0:17.855',2.1
'0:17.859',1.96
'0:17.863',1.91
'0:17.867',1.97
'0:17.871',2.17
'0:17.875',2.19
'0:17.879',2.31
'0:17.883',2.43
'0:17.887',2.58
'0:17.891',2.78
'0:17.895',2.9
'0:17.898',2.88
'0:17.902',2.69
'0:17.906',2.38
'0:17.910',2.08
'0:17.914',1.84
'0:17.918',1.69
'0:17.922',1.54
'0:17.926',1.21
'0:17.930',0.74
'0:17.934',0.26
'0:17.938',-0.08
'0:17.941',-0.47
'0:17.945',-0.84
'0:17.949',-1.09
'0:17.953',-1.33
'0:17.957',-1.53
'0:17.961',-1.58
'0:17.965',-1.53
'0:17.969',-1.46
'0:17.973',-1.39
'0:17.977',-1.41
'0:17.980',-1.48
'0:17.984',-1.67
'0:17.988',-2.3
'0:17.992',-2.7
'0:17.996',-2.63
'0:18.000',-2.13
'0:18.004',-0.63
'0:18.008',2.28
'0:18.012',5.46
'0:18.016',7.73
'0:18.020',8.27
'0:18.023',6.29
'0:18.027',2.57
'0:18.031',-1.45
'0:18.035',-4.66
'0:18.039',-6.51
'0:18.043',-7.1
'0:18.047',-6.94
'0:18.051',-6.6
'0:18.055',-5.94
'0:18.059',-5.2
'0:18.063',-4.69
'0:18.066',-4.4
'0:18.070',-4.23
'0:18.074',-4.05
'0:18.078',-3.69
'0:18.082',-3.39
'0:18.086',-3.07
'0:18.090',-2.87
'0:18.094',-2.87
'0:18.098',-2.85
'0:18.102',-2.69
'0:18.105',-2.63
'0:18.109',-2.58
'0:18.113',-2.42
'0:18.117',-2.29
'0:18.121',-2.23
'0:18.125',-2.13
'0:18.129',-1.93
'0:18.133',-1.5
'0:18.137',-1.22
'0:18.141',-1.22
'0:18.145',-1.25
'0:18.148',-1.12
'0:18.152',-1.03
'0:18.156',-0.9
'0:18.160',-0.78
'0:18.164',-0.77
'0:18.168',-0.61
'0:18.172',-0.2
'0:18.176',0.03
'0:18.180',-0.16
'0:18.184',-0.45
'0:18.188',-0.61
'0:18.191',-0.77
'0:18.195',-1.02
'0:18.199',-1.19
'0:18.203',-1.35
'0:18.207',-1.34
'0:18.211',-1.26
'0:18.215',-1.1
'0:18.219',-1.08
'0:18.223',-1.12
'0:18.227',-1.13
'0:18.230',-1.1
'0:18.234',-0.92
'0:18.238',-0.7
'0:18.242',-0.39
'0:18.246',-0.12
'0:18.250',0.14
'0:18.254',0.46
'0:18.258',0.73
'0:18.262',0.62
'0:18.266',0.14
'0:18.270',-0.28
'0:18.273',-0.4
'0:18.277',-0.53
'0:18.281',-0.84
'0:18.285',-1.13
'0:18.289',-1.28
'0:18.293',-1.35
'0:18.297',-1.53
'0:18.301',-1.7
'0:18.305',-1.84
'0:18.309',-1.95
'0:18.313',-2.02
'0:18.316',-1.94
'0:18.320',-1.84
'0:18.324',-1.73
'0:18.328',-1.46
'0:18.332',-1.31
'0:18.336',-1.52
'0:18.340',-2.17
'0:18.344',-2.55
'0:18.348',-2.39
'0:18.352',-1.54
'0:18.355',0.66
'0:18.359',4.01
'0:18.363',7.35
'0:18.367',9.64
'0:18.371',9.55
'0:18.375',6.96
'0:18.379',3.22
'0:18.383',-0.3
'0:18.387',-2.64
'0:18.391',-3.75
'0:18.395',-4.04
'0:18.398',-3.73
'0:18.402',-3.06
'0:18.406',-2.3
'0:18.410',-1.64
'0:18.414',-1.05
'0:18.418',-0.73
'0:18.422',-0.56
'0:18.426',-0.18
'0:18.430',0.27
'0:18.434',0.61
'0:18.438',0.66
'0:18.441',0.69
'0:18.445',0.78
'0:18.449',0.89
'0:18.453',0.95
'0:18.457',1.04
'0:18.461',1.13
'0:18.465',1.21
'0:18.469',1.18
'0:18.473',1.03
'0:18.477',1
'0:18.480',1.15
'0:18.484',1.34
'0:18.488',1.42
'0:18.492',1.49
'0:18.496',1.66
'0:18.500',1.83
'0:18.504',2.03
'0:18.508',2.1
'0:18.512',2.1
'0:18.516',2.08
'0:18.520',2.08
'0:18.523',1.91
'0:18.527',1.71
'0:18.531',1.49
'0:18.535',1.37
'0:18.539',1.17
'0:18.543',0.79
'0:18.547',0.31
'0:18.551',-0.08
'0:18.555',-0.37
'0:18.559',-0.57
'0:18.563',-0.58
'0:18.566',-0.43
'0:18.570',-0.21
'0:18.574',0.1
'0:18.578',0.25
'0:18.582',0.18
'0:18.586',0.04
'0:18.590',-0.08
'0:18.594',-0.26
'0:18.598',-0.45
'0:18.602',-0.64
'0:18.605',-1
'0:18.609',-1.37
'0:18.613',-1.75
'0:18.617',-1.92
'0:18.621',-1.97
'0:18.625',-1.88
'0:18.629',-1.94
'0:18.633',-2.23
'0:18.637',-2.55
'0:18.641',-2.71
'0:18.645',-2.8
'0:18.648',-2.89
'0:18.652',-3.06
'0:18.656',-3.11
'0:18.660',-3.13
'0:18.664',-3.09
'0:18.668',-2.91
'0:18.672',-2.75
'0:18.676',-2.66
'0:18.680',-2.48
'0:18.684',-2.31
'0:18.688',-2.49
'0:18.691',-2.94
'0:18.695',-3.25
'0:18.699',-3.08
'0:18.703',-2.1
'0:18.707',0.28
'0:18.711',3.89
'0:18.715',7.35
'0:18.719',9.66
'0:18.723',9.36
'0:18.727',6.57
'0:18.730',2.56
'0:18.734',-1.18
'0:18.738',-3.75
'0:18.742',-4.98
'0:18.746',-5.19
'0:18.750',-4.74
'0:18.754',-3.99
'0:18.758',-3.28
'0:18.762',-2.72
'0:18.766',-2.29
'0:18.770',-1.88
'0:18.773',-1.54
'0:18.777',-1.29
'0:18.781',-0.96
'0:18.785',-0.68
'0:18.789',-0.51
'0:18.793',-0.37
'0:18.797',-0.14
'0:18.801',-0.01
'0:18.805',0.08
'0:18.809',0.2
'0:18.813',0.39
'0:18.816',0.58
'0:18.820',0.63
'0:18.824',0.66
'0:18.828',0.66
'0:18.832',0.75
'0:18.836',1
'0:18.840',1.27
'0:18.844',1.49
'0:18.848',1.68
'0:18.852',1.99
'0:18.855',2.22
'0:18.859',2.3
'0:18.863',2.41
'0:18.867',2.48
'0:18.871',2.42
'0:18.875',2.41
'0:18.879',2.28
'0:18.883',2.01
'0:18.887',1.74
'0:18.891',1.59
'0:18.895',1.45
'0:18.898',1.39
'0:18.902',1.28
'0:18.906',1.13
'0:18.910',0.96
'0:18.914',0.87
'0:18.918',0.89
'0:18.922',1.07
'0:18.926',1.18
'0:18.930',1.22
'0:18.934',1.21
'0:18.938',1.36
'0:18.941',1.56
'0:18.945',1.75
'0:18.949',1.83
'0:18.953',1.85
'0:18.957',1.78
'0:18.961',1.73
'0:18.965',1.64
'0:18.969',1.39
'0:18.973',0.99
'0:18.977',0.53
'0:18.980',0.04
'0:18.984',-0.4
'0:18.988',-0.59
'0:18.992',-0.56
'0:18.996',-0.46
'0:19.000',-0.59
'0:19.004',-0.94
'0:19.008',-1.12
'0:19.012',-1.25
'0:19.016',-1.43
'0:19.020',-1.51
'0:19.023',-1.32
'0:19.027',-1.17
'0:19.031',-1.05
'0:19.035',-1.02
'0:19.039',-1.32
'0:19.043',-1.84
'0:19.047',-2.18
'0:19.051',-1.95
'0:19.055',-0.82
'0:19.059',1.66
'0:19.063',5.17
'0:19.066',8.55
'0:19.070',10.54
'0:19.074',9.82
'0:19.078',6.72
'0:19.082',2.64
'0:19.086',-1.03
'0:19.090',-3.4
'0:19.094',-4.52
'0:19.098',-4.65
'0:19.102',-4.15
'0:19.105',-3.32
'0:19.109',-2.51
'0:19.113',-1.93
'0:19.117',-1.56
'0:19.121',-1.31
'0:19.125',-1.2
'0:19.129',-0.99
'0:19.133',-0.64
'0:19.137',-0.22
'0:19.141',0.12
'0:19.145',0.35
'0:19.148',0.6
'0:19.152',0.79
'0:19.156',0.83
'0:19.160',0.95
'0:19.164',1.27
'0:19.168',1.68
'0:19.172',2
'0:19.176',2.17
'0:19.180',2.34
'0:19.184',2.55
'0:19.188',2.89
'0:19.191',3.33
'0:19.195',3.53
'0:19.199',3.68
'0:19.203',3.95
'0:19.207',4.29
'0:19.211',4.57
'0:19.215',4.8
'0:19.219',4.71
'0:19.223',4.49
'0:19.227',4.3
'0:19.230',4.03
'0:19.234',3.67
'0:19.238',3.32
'0:19.242',2.94
'0:19.246',2.55
'0:19.250',2.21
'0:19.254',2.02
'0:19.258',1.98
'0:19.262',1.93
'0:19.266',1.96
'0:19.270',1.98
'0:19.273',2.12
'0:19.277',2.39
'0:19.281',2.63
'0:19.285',2.78
'0:19.289',2.91
'0:19.293',2.91
'0:19.297',2.85
'0:19.301',2.76
'0:19.305',2.59
'0:19.309',2.42
'0:19.313',2.27
'0:19.316',1.91
'0:19.320',1.61
'0:19.324',1.3
'0:19.328',0.98
'0:19.332',0.59
'0:19.336',0.26
'0:19.340',0.1
'0:19.344',-0.04
'0:19.348',-0.15
'0:19.352',-0.51
'0:19.355',-0.8
'0:19.359',-1.01
'0:19.363',-1.16
'0:19.367',-1.32
'0:19.371',-1.41
'0:19.375',-1.41
'0:19.379',-1.36
'0:19.383',-1.34
'0:19.387',-1.55
'0:19.391',-2.06
'0:19.395',-2.72
'0:19.398',-3.02
'0:19.402',-2.23
'0:19.406',-0.07
'0:19.410',3.34
'0:19.414',7.14
'0:19.418',10.2
'0:19.422',11.15
'0:19.426',9.17
'0:19.430',4.99
'0:19.434',0.51
'0:19.438',-2.87
'0:19.441',-4.66
'0:19.445',-5.25
'0:19.449',-5.07
'0:19.453',-4.52
'0:19.457',-3.68
'0:19.461',-3.07
'0:19.465',-2.91
'0:19.469',-2.82
'0:19.473',-2.49
'0:19.477',-2.29
'0:19.480',-2.26
'0:19.484',-2.23
'0:19.488',-2.02
'0:19.492',-1.71
'0:19.496',-1.38
'0:19.500',-1.25
'0:19.504',-1.26
'0:19.508',-1.33
'0:19.512',-1.49
'0:19.516',-1.53
'0:19.520',-1.32
'0:19.523',-0.95
'0:19.527',-0.68
