'0:00.000',-3.3
'0:00.004',-3.23
'0:00.008',-2.92
'0:00.012',-2.24
'0:00.016',-1.74
'0:00.020',-1.69
'0:00.023',-1.65
'0:00.027',-1.6
'0:00.031',-1.25
'0:00.035',-0.81
'0:00.039',-0.82
'0:00.043',-0.99
'0:00.047',-0.97
'0:00.051',-0.84
'0:00.055',-0.51
'0:00.059',0.1
'0:00.063',0.7
'0:00.066',0.81
'0:00.070',0.89
'0:00.074',1.1
'0:00.078',1.48
'0:00.082',1.64
'0:00.086',1.53
'0:00.090',1.09
'0:00.094',0.8
'0:00.098',0.62
'0:00.102',0.28
'0:00.105',0.05
'0:00.109',-0.14
'0:00.113',-0.42
'0:00.117',-0.43
'0:00.121',-0.74
'0:00.125',-1.05
'0:00.129',-1.18
'0:00.133',-0.94
'0:00.137',-0.85
'0:00.141',-1.09
'0:00.145',-1.42
'0:00.148',-1.56
'0:00.152',-1.47
'0:00.156',-0.92
'0:00.160',-0.46
'0:00.164',-0.67
'0:00.168',-0.99
'0:00.172',-0.59
'0:00.176',-0.99
'0:00.180',-2.48
'0:00.184',-3.34
'0:00.188',-2.92
'0:00.191',-2.26
'0:00.195',-1.94
'0:00.199',-1.85
'0:00.203',-1.77
'0:00.207',-1.64
'0:00.211',-1.5
'0:00.215',-1.65
'0:00.219',-2.28
'0:00.223',-2.51
'0:00.227',-2.23
'0:00.230',-1.97
'0:00.234',-2.05
'0:00.238',-1.88
'0:00.242',-1.23
'0:00.246',-0.15
'0:00.250',2.08
'0:00.254',5.04
'0:00.258',7.72
'0:00.262',8.86
'0:00.266',7.65
'0:00.270',5.42
'0:00.273',5.41
'0:00.277',5.41
'0:00.281',5.41
'0:00.285',-4.57
'0:00.289',-4.47
'0:00.293',-3.94
'0:00.297',-3.32
'0:00.301',-2.41
'0:00.305',-1.36
'0:00.309',-0.95
'0:00.313',-1.06
'0:00.316',-0.65
'0:00.320',-0.17
'0:00.324',-0.22
'0:00.328',-0.16
'0:00.332',-0.04
'0:00.336',-0.2
'0:00.340',-0.44
'0:00.344',-0.57
'0:00.348',-0.51
'0:00.352',0
'0:00.355',0.36
'0:00.359',0.95
'0:00.363',1.22
'0:00.367',1.32
'0:00.371',1.26
'0:00.375',1.33
'0:00.379',1.04
'0:00.383',0.81
'0:00.387',0.91
'0:00.391',1.16
'0:00.395',1.24
'0:00.398',0.93
'0:00.402',0.76
'0:00.406',0.86
'0:00.410',0.87
'0:00.414',0.98
'0:00.418',0.9
'0:00.422',0.75
'0:00.426',0.61
'0:00.430',0.88
'0:00.434',1.37
'0:00.438',1.83
'0:00.441',2.21
'0:00.445',2.54
'0:00.449',2.61
'0:00.453',2.54
'0:00.457',2.44
'0:00.461',2.33
'0:00.465',2.57
'0:00.469',2.89
'0:00.473',3.09
'0:00.477',2.88
'0:00.480',2.5
'0:00.484',2.22
'0:00.488',2.02
'0:00.492',1.79
'0:00.496',1.46
'0:00.500',1.26
'0:00.504',1.1
'0:00.508',0.77
'0:00.512',0.54
'0:00.516',0.5
'0:00.520',0.38
'0:00.523',0.28
'0:00.527',0.08
'0:00.531',-0.13
'0:00.535',-0.05
'0:00.539',0.25
'0:00.543',0.01
'0:00.547',-0.5
'0:00.551',-0.47
'0:00.555',0.3
'0:00.559',1.67
'0:00.563',4.13
'0:00.566',7.59
'0:00.570',9.95
'0:00.574',9.94
'0:00.578',7.5
'0:00.582',3.62
'0:00.586',0.11
'0:00.590',-2.17
'0:00.594',-3.21
'0:00.598',-3.65
'0:00.602',-3.48
'0:00.605',-3.27
'0:00.609',-2.69
'0:00.613',-1.92
'0:00.617',-1.62
'0:00.621',-1.5
'0:00.625',-1.08
'0:00.629',-0.87
'0:00.633',-1.11
'0:00.637',-1.42
'0:00.641',-1.57
'0:00.645',-1.97
'0:00.648',-2.14
'0:00.652',-1.88
'0:00.656',-1.14
'0:00.660',-0.23
'0:00.664',0.4
'0:00.668',0.18
'0:00.672',-0.28
'0:00.676',-0.61
'0:00.680',-0.39
'0:00.684',0.47
'0:00.688',0.92
'0:00.691',1.24
'0:00.695',1.17
'0:00.699',1.08
'0:00.703',1.29
'0:00.707',1.54
'0:00.711',1.13
'0:00.715',-0.04
'0:00.719',-0.68
'0:00.723',-0.28
'0:00.727',0.33
'0:00.730',1
'0:00.734',1.37
'0:00.738',1.6
'0:00.742',0.36
'0:00.746',-1.23
'0:00.750',-1.66
'0:00.754',-1.1
'0:00.758',-0.46
'0:00.762',0.13
'0:00.766',-0.03
'0:00.770',-0.43
'0:00.773',-0.1
'0:00.777',0.15
'0:00.781',0.11
'0:00.785',0.24
'0:00.789',0.01
'0:00.793',-0.28
'0:00.797',-0.96
'0:00.801',-0.96
'0:00.805',-0.79
'0:00.809',-1.09
'0:00.813',-1.6
'0:00.816',-2.15
'0:00.820',-2
'0:00.824',-1.94
'0:00.828',-2.15
'0:00.832',-2.15
'0:00.836',-2.2
'0:00.840',-2.56
'0:00.844',-2.43
'0:00.848',-2.26
'0:00.852',-2.34
'0:00.855',-2.26
'0:00.859',-2.16
'0:00.863',-2.28
'0:00.867',-1.58
'0:00.871',0.56
'0:00.875',3.61
'0:00.879',6.58
'0:00.883',8.09
'0:00.887',6.85
'0:00.891',3.76
'0:00.895',0.02
'0:00.898',-3.27
'0:00.902',-4.82
'0:00.906',-5.21
'0:00.910',-5.18
'0:00.914',-4.9
'0:00.918',-4.4
'0:00.922',-3.61
'0:00.926',-3.04
'0:00.930',-2.53
'0:00.934',-2.1
'0:00.938',-1.97
'0:00.941',-2.36
'0:00.945',-2.77
'0:00.949',-2.52
'0:00.953',-2.21
'0:00.957',-2.37
'0:00.961',-2.17
'0:00.965',-1.55
'0:00.969',-1.45
'0:00.973',-1.65
'0:00.977',-1.49
'0:00.980',-1.23
'0:00.984',-0.95
'0:00.988',-0.33
'0:00.992',0.32
'0:00.996',0.96
'0:01.000',1.31
'0:01.004',1.26
'0:01.008',1.43
'0:01.012',1.7
'0:01.016',1.83
'0:01.020',1.7
'0:01.023',1.35
'0:01.027',0.86
'0:01.031',0.46
'0:01.035',0.03
'0:01.039',-1.58
'0:01.043',-2.26
'0:01.047',-1.59
'0:01.051',-0.45
'0:01.055',0.23
'0:01.059',-0.64
'0:01.063',-0.95
'0:01.066',0.18
'0:01.070',1.08
'0:01.074',1.05
'0:01.078',0.82
'0:01.082',0.68
'0:01.086',0.58
'0:01.090',0.95
'0:01.094',0.9
'0:01.098',0.65
'0:01.102',0.51
'0:01.105',0.29
'0:01.109',-0.06
'0:01.113',-0.65
'0:01.117',-1.04
'0:01.121',-1.47
'0:01.125',-1.91
'0:01.129',-1.99
'0:01.133',-1.92
'0:01.137',-2.26
'0:01.141',-2.41
'0:01.145',-2.43
'0:01.148',-2.38
'0:01.152',-2.11
'0:01.156',-2.02
'0:01.160',-2.22
'0:01.164',-2.15
'0:01.168',-1.99
'0:01.172',-1.79
'0:01.176',-1.22
'0:01.180',-0.5
'0:01.184',0.92
'0:01.188',3.46
'0:01.191',6.4
'0:01.195',8
'0:01.199',6.99
'0:01.203',4.01
'0:01.207',0.25
'0:01.211',-2.97
'0:01.215',-5.1
'0:01.219',-6.15
'0:01.223',-6.09
'0:01.227',-5.28
'0:01.230',-4.34
'0:01.234',-3.48
'0:01.238',-2.69
'0:01.242',-2.13
'0:01.246',-1.87
'0:01.250',-1.77
'0:01.254',-1.7
'0:01.258',-1.42
'0:01.262',-1.03
'0:01.266',-0.61
'0:01.270',-0.37
'0:01.273',-0.34
'0:01.277',-0.17
'0:01.281',0.5
'0:01.285',1.14
'0:01.289',1.29
'0:01.293',1.19
'0:01.297',1.1
'0:01.301',1.31
'0:01.305',1.59
'0:01.309',1.81
'0:01.313',1.88
'0:01.316',2
'0:01.320',2.75
'0:01.324',3.61
'0:01.328',4.06
'0:01.332',3.93
'0:01.336',3.69
'0:01.340',3.29
'0:01.344',2.74
'0:01.348',2.14
'0:01.352',1.57
'0:01.355',1.3
'0:01.359',1.46
'0:01.363',1.74
'0:01.367',1.87
'0:01.371',1.95
'0:01.375',1.93
'0:01.379',1.74
'0:01.383',1.42
'0:01.387',1.44
'0:01.391',1.33
'0:01.395',0.79
'0:01.398',0.33
'0:01.402',0.2
'0:01.406',0.35
'0:01.410',0.02
'0:01.414',-0.84
'0:01.418',-1.71
'0:01.422',-2.02
'0:01.426',-1.62
'0:01.430',-1.38
'0:01.434',-1.49
'0:01.438',-1.63
'0:01.441',-1.63
'0:01.445',-1.49
'0:01.449',-1.37
'0:01.453',-1
'0:01.457',-1.24
'0:01.461',-1.74
'0:01.465',-2.24
'0:01.469',-2.87
'0:01.473',-3.2
'0:01.477',-3.41
'0:01.480',-3.61
'0:01.484',-3.32
'0:01.488',-2.56
'0:01.492',-2.24
'0:01.496',-1.77
'0:01.500',0.49
'0:01.504',4.08
'0:01.508',7.31
'0:01.512',8.53
'0:01.516',7.31
'0:01.520',4.08
'0:01.523',0.26
'0:01.527',-2.8
'0:01.531',-4.29
'0:01.535',-4.76
'0:01.539',-5.53
'0:01.543',-5.6
'0:01.547',-4.35
'0:01.551',-2.89
'0:01.555',-2.6
'0:01.559',-1.76
'0:01.563',-0.64
'0:01.566',-0.61
'0:01.570',-0.75
'0:01.574',-0.65
'0:01.578',-0.28
'0:01.582',0.27
'0:01.586',0.04
'0:01.590',0.11
'0:01.594',0.09
'0:01.598',0.34
'0:01.602',1.17
'0:01.605',1.57
'0:01.609',1.72
'0:01.613',1.27
'0:01.617',0.78
'0:01.621',0.8
'0:01.625',1.29
'0:01.629',2.08
'0:01.633',3.17
'0:01.637',2.76
'0:01.641',1.63
'0:01.645',1.49
'0:01.648',2.03
'0:01.652',2.37
'0:01.656',2.49
'0:01.660',2.29
'0:01.664',1.52
'0:01.668',1.21
'0:01.672',1.21
'0:01.676',0.93
'0:01.680',0.44
'0:01.684',0.1
'0:01.688',0.31
'0:01.691',0.62
'0:01.695',0.69
'0:01.699',0.73
'0:01.703',0.74
'0:01.707',0.65
'0:01.711',0.42
'0:01.715',0.39
'0:01.719',0.49
'0:01.723',0.15
'0:01.727',-0.24
'0:01.730',-0.55
'0:01.734',-0.96
'0:01.738',-1.25
'0:01.742',-1.55
'0:01.746',-1.79
'0:01.750',-1.88
'0:01.754',-1.99
'0:01.758',-1.89
'0:01.762',-1.7
'0:01.766',-1.64
'0:01.770',-1.54
'0:01.773',-1.45
'0:01.777',-1.38
'0:01.781',-1.45
'0:01.785',-1.57
'0:01.789',-1.7
'0:01.793',-2.24
'0:01.797',-2.37
'0:01.801',-1.64
'0:01.805',-0.72
'0:01.809',0.39
'0:01.813',2.65
'0:01.816',5.63
'0:01.820',8.82
'0:01.824',7.25
'0:01.828',3.38
'0:01.832',-0.99
'0:01.836',-4.06
'0:01.840',-5.42
'0:01.844',-5.33
'0:01.848',-4.72
'0:01.852',-3.69
'0:01.855',-2.89
'0:01.859',-2.28
'0:01.863',-1.7
'0:01.867',-1.13
'0:01.871',-0.38
'0:01.875',0.23
'0:01.879',0.27
'0:01.883',0.13
'0:01.887',0.27
'0:01.891',0.45
'0:01.895',0.67
'0:01.898',0.48
'0:01.902',-0.01
'0:01.906',0.35
'0:01.910',1.09
'0:01.914',1.85
'0:01.918',2.2
'0:01.922',2.15
'0:01.926',2.15
'0:01.930',2
'0:01.934',1.99
'0:01.938',2.41
'0:01.941',2.9
'0:01.945',3.25
'0:01.949',3.38
'0:01.953',3.54
'0:01.957',3.69
'0:01.961',3.48
'0:01.965',2.82
'0:01.969',2.13
'0:01.973',2.29
'0:01.977',2.68
'0:01.980',2.83
'0:01.984',2.79
'0:01.988',2.63
'0:01.992',2.26
'0:01.996',2.26
'0:02.000',2.84
'0:02.004',3.26
'0:02.008',3.39
'0:02.012',3.15
'0:02.016',2.34
'0:02.020',1.53
'0:02.023',0.82
'0:02.027',0.83
'0:02.031',1.06
'0:02.035',1.25
'0:02.039',1.07
'0:02.043',0.7
'0:02.047',0.49
'0:02.051',-0.01
'0:02.055',-0.77
'0:02.059',-0.95
'0:02.063',-0.3
'0:02.066',-0.22
'0:02.070',-0.72
'0:02.074',-1.15
'0:02.078',-0.81
'0:02.082',-0.77
'0:02.086',-0.85
'0:02.090',-0.57
'0:02.094',-0.59
'0:02.098',-0.87
'0:02.102',-1.26
'0:02.105',-1.72
'0:02.109',-2.15
'0:02.113',-1.16
'0:02.117',0.96
'0:02.121',3.84
'0:02.125',6.69
'0:02.129',8.47
'0:02.133',7.97
'0:02.137',5.37
'0:02.141',1.78
'0:02.145',-1.44
'0:02.148',-3.52
'0:02.152',-4.59
'0:02.156',-4.61
'0:02.160',-4.14
'0:02.164',-3.21
'0:02.168',-2.23
'0:02.172',-1.43
'0:02.176',-0.67
'0:02.180',0.1
'0:02.184',0.35
'0:02.188',0.24
'0:02.191',0.65
'0:02.195',1.37
'0:02.199',1.97
'0:02.203',2.21
'0:02.207',2.04
'0:02.211',2.06
'0:02.215',2.04
'0:02.219',1.85
'0:02.223',2.12
'0:02.227',2.44
'0:02.230',2.7
'0:02.234',3.01
'0:02.238',2.97
'0:02.242',2.84
'0:02.246',3.09
'0:02.250',3.43
'0:02.254',3.76
'0:02.258',3.96
'0:02.262',3.94
'0:02.266',3.58
'0:02.270',3.3
'0:02.273',2.68
'0:02.277',1.98
'0:02.281',1.46
'0:02.285',0.92
'0:02.289',0.6
'0:02.293',0.08
'0:02.297',-0.21
'0:02.301',-0.22
'0:02.305',-0.08
'0:02.309',-0.15
'0:02.313',-0.37
'0:02.316',-0.61
'0:02.320',-0.38
'0:02.324',-0.15
'0:02.328',-0.68
'0:02.332',-1.03
'0:02.336',-0.97
'0:02.340',-1.38
'0:02.344',-1.72
'0:02.348',-1.64
'0:02.352',-1.8
'0:02.355',-2.29
'0:02.359',-2.78
'0:02.363',-3.28
'0:02.367',-3.56
'0:02.371',-3.12
'0:02.375',-2.92
'0:02.379',-2.82
'0:02.383',-3.22
'0:02.387',-3.87
'0:02.391',-3.82
'0:02.395',-3.15
'0:02.398',-3.24
'0:02.402',-3.8
'0:02.406',-3.54
'0:02.410',-3.14
'0:02.414',-3.2
'0:02.418',-3.51
'0:02.422',-3.86
'0:02.426',-2.28
'0:02.430',-0.36
'0:02.434',1.82
'0:02.438',4.2
'0:02.441',6.31
'0:02.445',6.74
'0:02.449',4.41
'0:02.453',0.51
'0:02.457',-3.13
'0:02.461',-5.08
'0:02.465',-6.29
'0:02.469',-7.45
'0:02.473',-7.14
'0:02.477',-6.15
'0:02.480',-5.26
'0:02.484',-4.55
'0:02.488',-3.87
'0:02.492',-3.43
'0:02.496',-3.59
'0:02.500',-4.05
'0:02.504',-3.87
'0:02.508',-3.47
'0:02.512',-3.09
'0:02.516',-2.47
'0:02.520',-1.67
'0:02.523',-1.49
'0:02.527',-2.01
'0:02.531',-2.16
'0:02.535',-1.64
'0:02.539',-1.46
'0:02.543',-1.34
'0:02.547',-1.21
'0:02.551',-0.9
'0:02.555',-0.75
'0:02.559',-0.64
'0:02.563',-0.33
'0:02.566',0.06
'0:02.570',0.4
'0:02.574',0.44
'0:02.578',0.42
'0:02.582',0.76
'0:02.586',1.16
'0:02.590',0.96
'0:02.594',0.13
'0:02.598',-0.99
'0:02.602',-1.57
'0:02.605',-1.62
'0:02.609',-1.34
'0:02.613',-1.19
'0:02.617',-1.03
'0:02.621',-1.12
'0:02.625',-1.33
'0:02.629',-1.43
'0:02.633',-1.63
'0:02.637',-1.57
'0:02.641',-1.26
'0:02.645',-1.14
'0:02.648',-1.27
'0:02.652',-1.52
'0:02.656',-1.9
'0:02.660',-1.96
'0:02.664',-1.62
'0:02.668',-1.34
'0:02.672',-1.67
'0:02.676',-2.19
'0:02.680',-2.62
'0:02.684',-2.43
'0:02.688',-1.89
'0:02.691',-1.6
'0:02.695',-1.65
'0:02.699',-1.54
'0:02.703',-1.54
'0:02.707',-2.06
'0:02.711',-2.67
'0:02.715',-3.04
'0:02.719',-2.91
'0:02.723',-2.69
'0:02.727',-2.52
'0:02.730',-2.24
'0:02.734',-1.72
'0:02.738',-0.88
'0:02.742',0.33
'0:02.746',2.21
'0:02.750',5.17
'0:02.754',8.4
'0:02.758',10.16
'0:02.762',9.07
'0:02.766',5.61
'0:02.770',1.53
'0:02.773',-1.6
'0:02.777',-3.45
'0:02.781',-4.57
'0:02.785',-4.81
'0:02.789',-4.36
'0:02.793',-3.74
'0:02.797',-2.97
'0:02.801',-2.38
'0:02.805',-1.68
'0:02.809',-0.94
'0:02.813',-0.21
'0:02.816',0.12
'0:02.820',0.33
'0:02.824',0.71
'0:02.828',0.63
'0:02.832',0.7
'0:02.836',1
'0:02.840',0.62
'0:02.844',0.44
'0:02.848',0.61
'0:02.852',0.97
'0:02.855',1.51
'0:02.859',1.69
'0:02.863',2.08
'0:02.867',2.18
'0:02.871',2.06
'0:02.875',1.54
'0:02.879',1.52
'0:02.883',1.98
'0:02.887',2.82
'0:02.891',3.35
'0:02.895',3.45
'0:02.898',3.18
'0:02.902',2.64
'0:02.906',2.29
'0:02.910',2.2
'0:02.914',2.31
'0:02.918',2.52
'0:02.922',2.68
'0:02.926',2.39
'0:02.930',1.78
'0:02.934',1.02
'0:02.938',0.53
'0:02.941',0.5
'0:02.945',0.65
'0:02.949',0.64
'0:02.953',0.67
'0:02.957',0.57
'0:02.961',0.33
'0:02.965',0.51
'0:02.969',1.01
'0:02.973',1.17
'0:02.977',1.4
'0:02.980',1.49
'0:02.984',1.48
'0:02.988',1.29
'0:02.992',1.03
'0:02.996',0.85
'0:03.000',0.58
'0:03.004',0.61
'0:03.008',1.15
'0:03.012',1.67
'0:03.016',1.93
'0:03.020',2.05
'0:03.023',2.26
'0:03.027',2.38
'0:03.031',2.7
'0:03.035',3.03
'0:03.039',3.18
'0:03.043',3.1
'0:03.047',3.13
'0:03.051',3.6
'0:03.055',5.24
'0:03.059',7.99
'0:03.063',10.8
'0:03.066',12.4
'0:03.070',11.67
'0:03.074',8.51
'0:03.078',4.57
'0:03.082',1.3
'0:03.086',-1.05
'0:03.090',-2.44
'0:03.094',-2.9
'0:03.098',-2.88
'0:03.102',-2.54
'0:03.105',-2.14
'0:03.109',-1.66
'0:03.113',-1.31
'0:03.117',-1.32
'0:03.121',-1.63
'0:03.125',-1.86
'0:03.129',-1.94
'0:03.133',-1.95
'0:03.137',-1.97
'0:03.141',-1.95
'0:03.145',-1.94
'0:03.148',-1.74
'0:03.152',-1.55
'0:03.156',-1.22
'0:03.160',-0.92
'0:03.164',-0.82
'0:03.168',-0.54
'0:03.172',0.49
'0:03.176',1.43
'0:03.180',1.36
'0:03.184',1.27
'0:03.188',1.71
'0:03.191',1.58
'0:03.195',1.62
'0:03.199',1.99
'0:03.203',2.09
'0:03.207',1.64
'0:03.211',1.02
'0:03.215',0.52
'0:03.219',0.22
'0:03.223',-0.29
'0:03.227',-0.59
'0:03.230',-0.29
'0:03.234',-0.37
'0:03.238',-0.86
'0:03.242',-1.02
'0:03.246',-0.34
'0:03.250',-0.05
'0:03.254',0.26
'0:03.258',0.59
'0:03.262',-0.08
'0:03.266',-1.08
'0:03.270',-0.74
'0:03.273',0.15
'0:03.277',-0.02
'0:03.281',-1.4
'0:03.285',-2.62
'0:03.289',-3.06
'0:03.293',-2.5
'0:03.297',-1.68
'0:03.301',-1.65
'0:03.305',-0.89
'0:03.309',0.24
'0:03.313',-0.2
'0:03.316',-1.46
'0:03.320',-2.13
'0:03.324',-2
'0:03.328',-1.81
'0:03.332',-1.47
'0:03.336',-0.51
'0:03.340',-0.52
'0:03.344',-1.35
'0:03.348',-1.61
'0:03.352',-0.84
'0:03.355',-0.29
'0:03.359',-0.89
'0:03.363',-1.48
'0:03.367',-0.78
'0:03.371',1.66
'0:03.375',4.58
'0:03.379',6.58
'0:03.383',6.19
'0:03.387',3.49
'0:03.391',0
'0:03.395',-3.09
'0:03.398',-5.3
'0:03.402',-6.15
'0:03.406',-5.78
'0:03.410',-4.9
'0:03.414',-4
'0:03.418',-2.98
'0:03.422',-2.47
'0:03.426',-2.61
'0:03.430',-2.72
'0:03.434',-2.44
'0:03.438',-2.02
'0:03.441',-1.81
'0:03.445',-1.6
'0:03.449',-1.45
'0:03.453',-1.37
'0:03.457',-0.99
'0:03.461',-0.83
'0:03.465',-1.15
'0:03.469',-1.07
'0:03.473',-0.36
'0:03.477',0.34
'0:03.480',0.12
'0:03.484',-0.43
'0:03.488',-0.41
'0:03.492',0.2
'0:03.496',0.96
'0:03.500',1.51
'0:03.504',1.59
'0:03.508',1.39
'0:03.512',1.18
'0:03.516',1.17
'0:03.520',1.09
'0:03.523',0.66
'0:03.527',-0.18
'0:03.531',-0.81
'0:03.535',-1.01
'0:03.539',-1.12
'0:03.543',-1.36
'0:03.547',-1.4
'0:03.551',-1.09
'0:03.555',-0.6
'0:03.559',-0.33
'0:03.563',-0.31
'0:03.566',-1
'0:03.570',-1.3
'0:03.574',-1.09
'0:03.578',-1.25
'0:03.582',-1.43
'0:03.586',-1.69
'0:03.590',-2.08
'0:03.594',-2.14
'0:03.598',-2.12
'0:03.602',-2.38
'0:03.605',-2.42
'0:03.609',-2.61
'0:03.613',-2.8
'0:03.617',-3.08
'0:03.621',-3.21
'0:03.625',-2.87
'0:03.629',-2.93
'0:03.633',-2.89
'0:03.637',-2.59
'0:03.641',-2.48
'0:03.645',-2.5
'0:03.648',-2.38
'0:03.652',-2.43
'0:03.656',-2.67
'0:03.660',-3.03
'0:03.664',-2.98
'0:03.668',-2.22
'0:03.672',-1.74
'0:03.676',-1.58
'0:03.680',-1.03
'0:03.684',0.93
'0:03.688',3.95
'0:03.691',7.1
'0:03.695',8.4
'0:03.699',6.23
'0:03.703',2.77
'0:03.707',-0.45
'0:03.711',-3.12
'0:03.715',-5.24
'0:03.719',-6.5
'0:03.723',-6.6
'0:03.727',-5.91
'0:03.730',-5.04
'0:03.734',-4.23
'0:03.738',-3.24
'0:03.742',-3.07
'0:03.746',-3.07
'0:03.750',-3.07
'0:03.754',-3.07
'0:03.758',-3.07
'0:03.762',-3.07
'0:03.766',-3.07
'0:03.770',-3.06
'0:03.773',-1.26
'0:03.777',-0.97
'0:03.781',-0.37
'0:03.785',-0.45
'0:03.789',-0.65
'0:03.793',-0.23
'0:03.797',0.32
'0:03.801',0.27
'0:03.805',0.25
'0:03.809',0.71
'0:03.813',1.31
'0:03.816',1.45
'0:03.820',1.53
'0:03.824',1.63
'0:03.828',1.84
'0:03.832',1.98
'0:03.836',1.82
'0:03.840',1.58
'0:03.844',1.51
'0:03.848',1.56
'0:03.852',1.74
'0:03.855',1.83
'0:03.859',1.74
'0:03.863',1.66
'0:03.867',1.54
'0:03.871',1.59
'0:03.875',1.92
'0:03.879',2.07
'0:03.883',2.27
'0:03.887',2.58
'0:03.891',3.01
'0:03.895',2.86
'0:03.898',2.58
'0:03.902',2.53
'0:03.906',2.75
'0:03.910',3
'0:03.914',2.78
'0:03.918',2.22
'0:03.922',1.61
'0:03.926',1.08
'0:03.930',0.7
'0:03.934',0.67
'0:03.938',0.83
'0:03.941',0.69
'0:03.945',0.39
'0:03.949',0.43
'0:03.953',0.51
'0:03.957',0.18
'0:03.961',-0.16
'0:03.965',-0.3
'0:03.969',-0.38
'0:03.973',-1.12
'0:03.977',-1.94
'0:03.980',-1.82
'0:03.984',-1.37
'0:03.988',-0.75
'0:03.992',0.77
'0:03.996',3.56
'0:04.000',6.94
'0:04.004',8.73
'0:04.008',7.6
'0:04.012',4.6
'0:04.016',1.18
'0:04.020',-1.37
'0:04.023',-3.1
'0:04.027',-4.16
'0:04.031',-4.02
'0:04.035',-3.44
'0:04.039',-3.31
'0:04.043',-3.45
'0:04.047',-3.1
'0:04.051',-2.27
'0:04.055',-1.86
'0:04.059',-2.02
'0:04.063',-2.11
'0:04.066',-1.78
'0:04.070',-1.38
'0:04.074',-1.27
'0:04.078',-1
'0:04.082',-0.54
'0:04.086',-0.13
'0:04.090',-0.16
'0:04.094',-0.26
'0:04.098',-0.24
'0:04.102',0.72
'0:04.105',1.12
'0:04.109',1.3
'0:04.113',2.27
'0:04.117',2.24
'0:04.121',2.2
'0:04.125',3.01
'0:04.129',3.68
'0:04.133',3.66
'0:04.137',3.97
'0:04.141',4.13
'0:04.145',3.49
'0:04.148',3.07
'0:04.152',2.25
'0:04.156',1.72
'0:04.160',0.72
'0:04.164',0.79
'0:04.168',1.2
'0:04.172',2.31
'0:04.176',2.09
'0:04.180',1.03
'0:04.184',0.69
'0:04.188',0.93
'0:04.191',1.34
'0:04.195',1.99
'0:04.199',2.33
'0:04.203',2.28
'0:04.207',2.36
'0:04.211',1.47
'0:04.215',0.87
'0:04.219',0.53
'0:04.223',0.77
'0:04.227',1.07
'0:04.230',0.17
'0:04.234',-0.4
'0:04.238',-0.51
'0:04.242',-0.38
'0:04.246',-0.2
'0:04.250',-0.52
'0:04.254',-1.03
'0:04.258',-1.36
'0:04.262',-0.87
'0:04.266',0
'0:04.270',0.75
'0:04.273',0.34
'0:04.277',-0.39
'0:04.281',-0.76
'0:04.285',-0.94
'0:04.289',-0.54
'0:04.293',-0.35
'0:04.297',-0.21
'0:04.301',1.17
'0:04.305',3.92
'0:04.309',6.89
'0:04.313',8.43
'0:04.316',7.22
'0:04.320',4.05
'0:04.324',0.17
'0:04.328',-3.13
'0:04.332',-5.69
'0:04.336',-6.95
'0:04.340',-6.64
'0:04.344',-5.51
'0:04.348',-4.29
'0:04.352',-3.69
'0:04.355',-3.47
'0:04.359',-3.52
'0:04.363',-3.74
'0:04.367',-3.14
'0:04.371',-2.37
'0:04.375',-2.43
'0:04.379',-2.71
'0:04.383',-2.67
'0:04.387',-2.42
'0:04.391',-2.22
'0:04.395',-1.83
'0:04.398',-1.56
'0:04.402',-1.6
'0:04.406',-1.51
'0:04.410',-1.18
'0:04.414',-1.35
'0:04.418',-1.82
'0:04.422',-1.62
'0:04.426',-0.99
'0:04.430',-0.66
'0:04.434',-0.22
'0:04.438',0.54
'0:04.441',0.81
'0:04.445',0.44
'0:04.449',0.84
'0:04.453',1.72
'0:04.457',1.98
'0:04.461',1.88
'0:04.465',1.87
'0:04.469',1.31
'0:04.473',-0.39
'0:04.477',-1.19
'0:04.480',-1.53
'0:04.484',-1.06
'0:04.488',-0.02
'0:04.492',0.07
'0:04.496',0.48
'0:04.500',1.87
'0:04.504',3.28
'0:04.508',3.32
'0:04.512',2.83
'0:04.516',2.04
'0:04.520',1.44
'0:04.523',2.08
'0:04.527',2.13
'0:04.531',1.56
'0:04.535',1.06
'0:04.539',0.2
'0:04.543',-0.99
'0:04.547',-1.46
'0:04.551',-1.48
'0:04.555',-1.38
'0:04.559',-1.25
'0:04.563',-1.35
'0:04.566',-1.83
'0:04.570',-1.68
'0:04.574',-1.62
'0:04.578',-1.79
'0:04.582',-2.14
'0:04.586',-1.88
'0:04.590',-1.75
'0:04.594',-1.8
'0:04.598',-1.72
'0:04.602',-1.26
'0:04.605',-0.74
'0:04.609',-0.12
'0:04.613',0.87
'0:04.617',2.73
'0:04.621',5.51
'0:04.625',7.59
'0:04.629',7.73
'0:04.633',5.55
'0:04.637',2
'0:04.641',-1.74
'0:04.645',-4.47
'0:04.648',-5.74
'0:04.652',-6.45
'0:04.656',-6.3
'0:04.660',-5.58
'0:04.664',-4.86
'0:04.668',-4.31
'0:04.672',-3.63
'0:04.676',-2.92
'0:04.680',-2.33
'0:04.684',-1.86
'0:04.688',-1.54
'0:04.691',-1.34
'0:04.695',-1.4
'0:04.699',-1.37
'0:04.703',-1.27
'0:04.707',-0.95
'0:04.711',-0.61
'0:04.715',-0.14
'0:04.719',0.31
'0:04.723',0.35
'0:04.727',0.38
'0:04.730',0.64
'0:04.734',1.39
'0:04.738',2.34
'0:04.742',3.06
'0:04.746',3.4
'0:04.750',3.32
'0:04.754',2.89
'0:04.758',2.37
'0:04.762',2.29
'0:04.766',2.73
'0:04.770',2.79
'0:04.773',2.35
'0:04.777',1.26
'0:04.781',0.52
'0:04.785',-0.14
'0:04.789',-0.84
'0:04.793',-0.84
'0:04.797',-0.61
'0:04.801',-0.75
'0:04.805',-0.62
'0:04.809',-0.77
'0:04.813',-1.07
'0:04.816',-1.39
'0:04.820',-1.42
'0:04.824',-1.05
'0:04.828',-0.89
'0:04.832',-1.18
'0:04.836',-1.62
'0:04.840',-1.99
'0:04.844',-2.04
'0:04.848',-2.1
'0:04.852',-2.31
'0:04.855',-2.14
'0:04.859',-1.54
'0:04.863',-1.55
'0:04.867',-2.23
'0:04.871',-2.95
'0:04.875',-3.63
'0:04.879',-3.97
'0:04.883',-4.06
'0:04.887',-3.8
'0:04.891',-3.57
'0:04.895',-3.72
'0:04.898',-3.47
'0:04.902',-2.58
'0:04.906',-1.64
'0:04.910',-0.87
'0:04.914',-1.08
'0:04.918',-1.8
'0:04.922',-2.05
'0:04.926',-1.04
'0:04.930',1.06
'0:04.934',4.21
'0:04.938',7.13
'0:04.941',8.62
'0:04.945',7.95
'0:04.949',5.51
'0:04.953',2.2
'0:04.957',-0.72
'0:04.961',-3.16
'0:04.965',-4.3
'0:04.969',-3.96
'0:04.973',-3.51
'0:04.977',-3.65
'0:04.980',-3.56
'0:04.984',-2.65
'0:04.988',-1.3
'0:04.992',-0.25
'0:04.996',-0.65
'0:05.000',-1.7
'0:05.004',-1.97
'0:05.008',-0.89
'0:05.012',1.05
'0:05.016',1.57
'0:05.020',0.97
'0:05.023',0.69
'0:05.027',0.83
'0:05.031',1.27
'0:05.035',1.57
'0:05.039',1.17
'0:05.043',0.72
'0:05.047',1.02
'0:05.051',1.28
'0:05.055',1.45
'0:05.059',1.63
'0:05.063',2.13
'0:05.066',2.01
'0:05.070',1.73
'0:05.074',1.6
'0:05.078',1.6
'0:05.082',1.71
'0:05.086',1.88
'0:05.090',2.19
'0:05.094',1.79
'0:05.098',1.14
'0:05.102',0.51
'0:05.105',0.12
'0:05.109',0.22
'0:05.113',0.87
'0:05.117',1.65
'0:05.121',2
'0:05.125',1.79
'0:05.129',1.48
'0:05.133',1.34
'0:05.137',1.34
'0:05.141',1.41
'0:05.145',1.39
'0:05.148',1.34
'0:05.152',1.26
'0:05.156',1.02
'0:05.160',0.74
'0:05.164',0.09
'0:05.168',-0.74
'0:05.172',-1.25
'0:05.176',-1.54
'0:05.180',-2
'0:05.184',-2.14
'0:05.188',-2.01
'0:05.191',-1.82
'0:05.195',-1.68
'0:05.199',-1.86
'0:05.203',-1.81
'0:05.207',-1.37
'0:05.211',-1.06
'0:05.215',-1.02
'0:05.219',-1.15
'0:05.223',-1.24
'0:05.227',-1.31
'0:05.230',-1.33
'0:05.234',-1
'0:05.238',-0.19
'0:05.242',1.82
'0:05.246',4.69
'0:05.250',7.7
'0:05.254',9.03
'0:05.258',7.77
'0:05.262',4.48
'0:05.266',0.39
'0:05.270',-2.57
'0:05.273',-3.78
'0:05.277',-4.05
'0:05.281',-4.03
'0:05.285',-3.87
'0:05.289',-3.65
'0:05.293',-2.78
'0:05.297',-1.44
'0:05.301',-0.87
'0:05.305',-0.81
'0:05.309',-0.69
'0:05.313',-0.54
'0:05.316',-0.43
'0:05.320',-0.21
'0:05.324',0.58
'0:05.328',1.26
'0:05.332',1.45
'0:05.336',0.93
'0:05.340',0.22
'0:05.344',0.52
'0:05.348',1.19
'0:05.352',1.83
'0:05.355',1.97
'0:05.359',2.23
'0:05.363',2.43
'0:05.367',2.44
'0:05.371',2.65
'0:05.375',3.28
'0:05.379',3.98
'0:05.383',4.76
'0:05.387',5.42
'0:05.391',5.32
'0:05.395',4.93
'0:05.398',4.59
'0:05.402',3.93
'0:05.406',3
'0:05.410',2.89
'0:05.414',2.84
'0:05.418',2.2
'0:05.422',1.54
'0:05.426',1.45
'0:05.430',1.79
'0:05.434',1.79
'0:05.438',1.23
'0:05.441',0.89
'0:05.445',0.82
'0:05.449',0.84
'0:05.453',1.08
'0:05.457',0.99
'0:05.461',0.47
'0:05.465',0.02
'0:05.469',-0.01
'0:05.473',0.31
'0:05.477',0.17
'0:05.480',0.24
'0:05.484',0.41
'0:05.488',-0.01
'0:05.492',-0.65
'0:05.496',-0.93
'0:05.500',-1.09
'0:05.504',-1.12
'0:05.508',-1.23
'0:05.512',-1.37
'0:05.516',-1.6
'0:05.520',-1.81
'0:05.523',-1.65
'0:05.527',-1.58
'0:05.531',-1.79
'0:05.535',-1.63
'0:05.539',-0.93
'0:05.543',0.14
'0:05.547',1.41
'0:05.551',3.35
'0:05.555',6.28
'0:05.559',9.01
'0:05.563',10.42
'0:05.566',9.25
'0:05.570',5.8
'0:05.574',1.39
'0:05.578',-2.19
'0:05.582',-4.11
'0:05.586',-4.25
'0:05.590',-3.39
'0:05.594',-2.57
'0:05.598',-1.88
'0:05.602',-0.92
'0:05.605',-0.08
'0:05.609',0.21
'0:05.613',0.33
'0:05.617',0.58
'0:05.621',0.83
'0:05.625',0.95
'0:05.629',0.96
'0:05.633',0.99
'0:05.637',1.15
'0:05.641',1.04
'0:05.645',1.01
'0:05.648',1.3
'0:05.652',1.26
'0:05.656',1.13
'0:05.660',1.06
'0:05.664',1.03
'0:05.668',1.44
'0:05.672',1.59
'0:05.676',1.64
'0:05.680',1.7
'0:05.684',1.8
'0:05.688',2.05
'0:05.691',2.34
'0:05.695',2.61
'0:05.699',3.16
'0:05.703',3.18
'0:05.707',2.11
'0:05.711',1.3
'0:05.715',0.91
'0:05.719',0.46
'0:05.723',-0.36
'0:05.727',-1.12
'0:05.730',-1.06
'0:05.734',-1.34
'0:05.738',-2.12
'0:05.742',-2.43
'0:05.746',-2.37
'0:05.750',-1.62
'0:05.754',-0.91
'0:05.758',-1.07
'0:05.762',-1.6
'0:05.766',-1.78
'0:05.770',-2.17
'0:05.773',-2.3
'0:05.777',-1.96
'0:05.781',-2.06
'0:05.785',-2.04
'0:05.789',-2.19
'0:05.793',-2.13
'0:05.797',-2.1
'0:05.801',-2.01
'0:05.805',-2.76
'0:05.809',-3.03
'0:05.813',-3.19
'0:05.816',-3.52
'0:05.820',-3.56
'0:05.824',-3.86
'0:05.828',-3.56
'0:05.832',-2.96
'0:05.836',-2.85
'0:05.840',-2.34
'0:05.844',-2.71
'0:05.848',-2.62
'0:05.852',-1.79
'0:05.855',-0.64
'0:05.859',0
'0:05.863',1.33
'0:05.867',3.93
'0:05.871',6.74
'0:05.875',7.15
'0:05.879',5.2
'0:05.883',1.54
'0:05.887',-2.49
'0:05.891',-5.1
'0:05.895',-5.91
'0:05.898',-6.45
'0:05.902',-6.61
'0:05.906',-5.82
'0:05.910',-4.78
'0:05.914',-3.85
'0:05.918',-2.96
'0:05.922',-2.55
'0:05.926',-2.28
'0:05.930',-2.03
'0:05.934',-2.01
'0:05.938',-2.25
'0:05.941',-2.43
'0:05.945',-2.43
'0:05.949',-2.16
'0:05.953',-1.59
'0:05.957',-1.07
'0:05.961',-0.63
'0:05.965',-0.26
'0:05.969',0.12
'0:05.973',0.4
'0:05.977',0.54
'0:05.980',0.64
'0:05.984',0.91
'0:05.988',1.11
'0:05.992',1.11
'0:05.996',0.89
'0:06.000',0.79
'0:06.004',0.72
'0:06.008',0.53
'0:06.012',0.63
'0:06.016',0.82
'0:06.020',0.77
'0:06.023',0.42
'0:06.027',0.03
'0:06.031',-0.02
'0:06.035',0.2
'0:06.039',-0.05
'0:06.043',-0.35
'0:06.047',-0.65
'0:06.051',-1.09
'0:06.055',-1.37
'0:06.059',-1.18
'0:06.063',-0.92
'0:06.066',-1.17
'0:06.070',-1.18
'0:06.074',-0.59
'0:06.078',0.05
'0:06.082',-0.07
'0:06.086',-0.95
'0:06.090',-1.74
'0:06.094',-2.08
'0:06.098',-2.1
'0:06.102',-1.86
'0:06.105',-1.96
'0:06.109',-2.67
'0:06.113',-3.13
'0:06.117',-2.41
'0:06.121',-1.96
'0:06.125',-2.54
'0:06.129',-3.15
'0:06.133',-2.84
'0:06.137',-1.92
'0:06.141',-1.71
'0:06.145',-2.03
'0:06.148',-2.07
'0:06.152',-1.92
'0:06.156',-1.66
'0:06.160',-1.1
'0:06.164',-1.03
'0:06.168',-1.33
'0:06.172',-1.32
'0:06.176',0.17
'0:06.180',3.39
'0:06.184',6.62
'0:06.188',8.16
'0:06.191',7.46
'0:06.195',4.41
'0:06.199',0.57
'0:06.203',-2.91
'0:06.207',-4.84
'0:06.211',-5.61
'0:06.215',-5.89
'0:06.219',-5.43
'0:06.223',-4.74
'0:06.227',-4.12
'0:06.230',-3.59
'0:06.234',-3.11
'0:06.238',-2.35
'0:06.242',-1.29
'0:06.246',-0.51
'0:06.250',-0.26
'0:06.254',-0.46
'0:06.258',-0.17
'0:06.262',-0.05
'0:06.266',-0.3
'0:06.270',-0.24
'0:06.273',0.2
'0:06.277',0.84
'0:06.281',1.14
'0:06.285',1.52
'0:06.289',1.66
'0:06.293',1.42
'0:06.297',1.48
'0:06.301',1.48
'0:06.305',1.52
'0:06.309',1.86
'0:06.313',2.22
'0:06.316',2.33
'0:06.320',2.01
'0:06.324',1.88
'0:06.328',2.23
'0:06.332',2.38
'0:06.336',2.57
'0:06.340',2.45
'0:06.344',1.38
'0:06.348',0.29
'0:06.352',0.03
'0:06.355',0.38
'0:06.359',0.85
'0:06.363',1.08
'0:06.367',0.94
'0:06.371',0.98
'0:06.375',1.34
'0:06.379',1.39
'0:06.383',1.37
'0:06.387',1.45
'0:06.391',1.56
'0:06.395',1.85
'0:06.398',2.3
'0:06.402',2.49
'0:06.406',2.23
'0:06.410',2.02
'0:06.414',2.01
'0:06.418',1.8
'0:06.422',1.48
'0:06.426',1.26
'0:06.430',1
'0:06.434',0.72
'0:06.438',0.39
'0:06.441',0.21
'0:06.445',0.54
'0:06.449',0.52
'0:06.453',0.25
'0:06.457',0.02
'0:06.461',-0.13
'0:06.465',-0.39
'0:06.469',-0.87
'0:06.473',-1
'0:06.477',-0.47
'0:06.480',0.35
'0:06.484',2.15
'0:06.488',5.13
'0:06.492',8.48
'0:06.496',10.48
'0:06.500',9.74
'0:06.504',6.51
'0:06.508',2.54
'0:06.512',-0.71
'0:06.516',-2.53
'0:06.520',-3.54
'0:06.523',-3.96
'0:06.527',-3.9
'0:06.531',-3.63
'0:06.535',-3.08
'0:06.539',-2.19
'0:06.543',-1.7
'0:06.547',-1.9
'0:06.551',-2.34
'0:06.555',-2.3
'0:06.559',-1.47
'0:06.563',-0.78
'0:06.566',-0.53
'0:06.570',-1.04
'0:06.574',-1.77
'0:06.578',-1.95
'0:06.582',-1.74
'0:06.586',-1.4
'0:06.590',-1.13
'0:06.594',-0.77
'0:06.598',-0.31
'0:06.602',0.11
'0:06.605',0.99
'0:06.609',1.58
'0:06.613',1.86
'0:06.617',2.85
'0:06.621',2.57
'0:06.625',1.58
'0:06.629',1.37
'0:06.633',2.05
'0:06.637',2.83
'0:06.641',2.61
'0:06.645',1.38
'0:06.648',0.62
'0:06.652',0.98
'0:06.656',1.87
'0:06.660',2.33
'0:06.664',1.55
'0:06.668',0.82
'0:06.672',0.67
'0:06.676',0.79
'0:06.680',2.08
'0:06.684',2.88
'0:06.688',2.74
'0:06.691',2.33
'0:06.695',2.15
'0:06.699',1.59
'0:06.703',1.45
'0:06.707',1.26
'0:06.711',1.02
'0:06.715',0.59
'0:06.719',0.51
'0:06.723',0.6
'0:06.727',0.6
'0:06.730',0.16
'0:06.734',-0.25
'0:06.738',-0.35
'0:06.742',-0.52
'0:06.746',-0.39
'0:06.750',0.05
'0:06.754',-0.61
'0:06.758',-1.65
'0:06.762',-1.83
'0:06.766',-1.58
'0:06.770',-1.1
'0:06.773',-0.73
'0:06.777',-1.07
'0:06.781',-1.27
'0:06.785',-0.72
'0:06.789',0.17
'0:06.793',1.35
'0:06.797',3.35
'0:06.801',5.78
'0:06.805',7.77
'0:06.809',7.95
'0:06.813',6.01
'0:06.816',2.47
'0:06.820',-1.7
'0:06.824',-5.29
'0:06.828',-6.61
'0:06.832',-6.36
'0:06.836',-5.48
'0:06.840',-4.57
'0:06.844',-3.78
'0:06.848',-3.3
'0:06.852',-3.19
'0:06.855',-3.15
'0:06.859',-3.15
'0:06.863',-3.29
'0:06.867',-2.82
'0:06.871',-1.99
'0:06.875',-1.71
'0:06.879',-1.74
'0:06.883',-1.61
'0:06.887',-1.29
'0:06.891',-1.13
'0:06.895',-1.7
'0:06.898',-2.15
'0:06.902',-1.49
'0:06.906',-0.33
'0:06.910',0.45
'0:06.914',0.48
'0:06.918',0.14
'0:06.922',0
'0:06.926',0.13
'0:06.930',0.68
'0:06.934',1.45
'0:06.938',1.92
'0:06.941',1.83
'0:06.945',1.1
'0:06.949',0.45
'0:06.953',-0.01
'0:06.957',-0.33
'0:06.961',-0.51
'0:06.965',-0.47
'0:06.969',-0.54
'0:06.973',-1.25
'0:06.977',-1.51
'0:06.980',-1.14
'0:06.984',-0.4
'0:06.988',-0.02
'0:06.992',-0.59
'0:06.996',-0.74
'0:07.000',-0.17
'0:07.004',0.28
'0:07.008',0.44
'0:07.012',0
'0:07.016',-0.8
'0:07.020',-0.78
'0:07.023',-0.1
'0:07.027',0.31
'0:07.031',0.23
'0:07.035',-0.01
'0:07.039',-0.16
'0:07.043',-0.56
'0:07.047',-1.31
'0:07.051',-1.42
'0:07.055',-0.93
'0:07.059',-0.44
'0:07.063',-0.16
'0:07.066',0.15
'0:07.070',0.2
'0:07.074',-0.33
'0:07.078',-1.33
'0:07.082',-1.72
'0:07.086',-1.89
'0:07.090',-2.15
'0:07.094',-1.89
'0:07.098',-1.1
'0:07.102',-0.08
'0:07.105',1.66
'0:07.109',4.34
'0:07.113',6.57
'0:07.117',7.21
'0:07.121',5.84
'0:07.125',2.51
'0:07.129',-1.33
'0:07.133',-4.12
'0:07.137',-5.53
'0:07.141',-6
'0:07.145',-5.96
'0:07.148',-5.25
'0:07.152',-4.05
'0:07.156',-3.34
'0:07.160',-2.69
'0:07.164',-2.04
'0:07.168',-1.63
'0:07.172',-1.3
'0:07.176',-1.08
'0:07.180',-1
'0:07.184',-0.87
'0:07.188',-0.61
'0:07.191',-0.36
'0:07.195',0.07
'0:07.199',0.49
'0:07.203',0.75
'0:07.207',0.85
'0:07.211',1.06
'0:07.215',1.38
'0:07.219',1.67
'0:07.223',1.78
'0:07.227',1.8
'0:07.230',2.17
'0:07.234',2.82
'0:07.238',3.48
'0:07.242',4.02
'0:07.246',4.41
'0:07.250',4.54
'0:07.254',4.24
'0:07.258',3.82
'0:07.262',3.38
'0:07.266',2.97
'0:07.270',2.64
'0:07.273',2.56
'0:07.277',2.5
'0:07.281',1.92
'0:07.285',0.98
'0:07.289',0.18
'0:07.293',-0.2
'0:07.297',0.12
'0:07.301',0.59
'0:07.305',0.99
'0:07.309',0.98
'0:07.313',0.43
'0:07.316',-0.08
'0:07.320',-0.28
'0:07.324',-0.4
'0:07.328',-0.55
'0:07.332',-0.44
'0:07.336',0.01
'0:07.340',0.21
'0:07.344',-0.25
'0:07.348',-1.06
'0:07.352',-1.88
'0:07.355',-2.5
'0:07.359',-3.09
'0:07.363',-3.26
'0:07.367',-3.16
'0:07.371',-3.1
'0:07.375',-3.11
'0:07.379',-2.91
'0:07.383',-2.69
'0:07.387',-2.56
'0:07.391',-2.26
'0:07.395',-1.78
'0:07.398',-2.29
'0:07.402',-3.5
'0:07.406',-4.45
'0:07.410',-4.34
'0:07.414',-3.14
'0:07.418',-1.33
'0:07.422',1.43
'0:07.426',5.13
'0:07.430',7.48
'0:07.434',6.79
'0:07.438',3.93
'0:07.441',0.92
'0:07.445',-2.06
'0:07.449',-5.41
'0:07.453',-7.52
'0:07.457',-7.49
'0:07.461',-6.23
'0:07.465',-4.76
'0:07.469',-3.49
'0:07.473',-2.82
'0:07.477',-2
'0:07.480',-1.12
'0:07.484',-0.76
'0:07.488',-0.91
'0:07.492',-1.37
'0:07.496',-1.38
'0:07.500',-1.1
'0:07.504',-1.35
'0:07.508',-1.07
'0:07.512',-0.73
'0:07.516',-1.08
'0:07.520',-0.87
'0:07.523',-0.17
'0:07.527',-0.02
'0:07.531',0.24
'0:07.535',1.53
'0:07.539',2.12
'0:07.543',1.79
'0:07.547',1.06
'0:07.551',0.47
'0:07.555',0.98
'0:07.559',1.5
'0:07.563',1.75
'0:07.566',1.52
'0:07.570',1.39
'0:07.574',1.4
'0:07.578',1.19
'0:07.582',1.72
'0:07.586',2.08
'0:07.590',1.44
'0:07.594',0.78
'0:07.598',0.72
'0:07.602',0.45
'0:07.605',0.21
'0:07.609',0.13
'0:07.613',0.58
'0:07.617',1.18
'0:07.621',0.98
'0:07.625',0.32
'0:07.629',0.27
'0:07.633',0.23
'0:07.637',-0.12
'0:07.641',-0.59
'0:07.645',-0.57
'0:07.648',-0.46
'0:07.652',-0.18
'0:07.656',-0.03
'0:07.660',-0.03
'0:07.664',-0.23
'0:07.668',-0.34
'0:07.672',-0.54
'0:07.676',-0.8
'0:07.680',-0.78
'0:07.684',-1.14
'0:07.688',-1.94
'0:07.691',-2.6
'0:07.695',-2.87
'0:07.699',-2.4
'0:07.703',-1.37
'0:07.707',-1.11
'0:07.711',-1.31
'0:07.715',-1.12
'0:07.719',-1.33
'0:07.723',-1.62
'0:07.727',-0.69
'0:07.730',2.38
'0:07.734',6.03
'0:07.738',8.67
'0:07.742',9.36
'0:07.746',7.95
'0:07.750',4.17
'0:07.754',-0.47
'0:07.758',-3.84
'0:07.762',-5.39
'0:07.766',-6.04
'0:07.770',-6.3
'0:07.773',-5.91
'0:07.777',-5.44
'0:07.781',-5.96
'0:07.785',-6.14
'0:07.789',-4.91
'0:07.793',-3.6
'0:07.797',-3.1
'0:07.801',-2.93
'0:07.805',-2.49
'0:07.809',-1.74
'0:07.813',-1.08
'0:07.816',-0.72
'0:07.820',-0.42
'0:07.824',-0.54
'0:07.828',-0.87
'0:07.832',-0.82
'0:07.836',-0.89
'0:07.840',-0.85
'0:07.844',-0.61
'0:07.848',-0.47
'0:07.852',-0.04
'0:07.855',0.64
'0:07.859',0.9
'0:07.863',0.94
'0:07.867',1.58
'0:07.871',2.25
'0:07.875',2.55
'0:07.879',2.91
'0:07.883',3
'0:07.887',3.37
'0:07.891',3.36
'0:07.895',2.48
'0:07.898',1.91
'0:07.902',1.92
'0:07.906',2.18
'0:07.910',2.73
'0:07.914',2.96
'0:07.918',2.66
'0:07.922',2.12
'0:07.926',1.88
'0:07.930',2.11
'0:07.934',2.4
'0:07.938',2.41
'0:07.941',2.16
'0:07.945',1.75
'0:07.949',1.77
'0:07.953',2.3
'0:07.957',2.55
'0:07.961',1.95
'0:07.965',0.86
'0:07.969',0.33
'0:07.973',0.64
'0:07.977',1.14
'0:07.980',1.43
'0:07.984',1.35
'0:07.988',1.18
'0:07.992',1.04
'0:07.996',0.7
'0:08.000',0.34
'0:08.004',-0.41
'0:08.008',-1.12
'0:08.012',-1.36
'0:08.016',-1.45
'0:08.020',-1.68
'0:08.023',-1.31
'0:08.027',-0.46
'0:08.031',0.22
'0:08.035',0.67
'0:08.039',1.88
'0:08.043',4.47
'0:08.047',7.9
'0:08.051',9.79
'0:08.055',8.89
'0:08.059',5.47
'0:08.063',1.92
'0:08.066',0.12
'0:08.070',-0.28
'0:08.074',-0.32
'0:08.078',-0.01
'0:08.082',0.31
'0:08.086',0.77
'0:08.090',0.95
'0:08.094',1.02
'0:08.098',1.25
'0:08.102',1.59
'0:08.105',1.92
'0:08.109',2.19
'0:08.113',2.62
'0:08.117',2.69
'0:08.121',1.87
'0:08.125',1.08
'0:08.129',1.42
'0:08.133',2.19
'0:08.137',2.83
'0:08.141',3.02
'0:08.145',2.98
'0:08.148',2.89
'0:08.152',2.65
'0:08.156',2.78
'0:08.160',3.06
'0:08.164',3.44
'0:08.168',3.16
'0:08.172',3.02
'0:08.176',2.85
'0:08.180',2.52
'0:08.184',2.33
'0:08.188',2.23
'0:08.191',1.99
'0:08.195',1.74
'0:08.199',1.11
'0:08.203',0.9
'0:08.207',0.96
'0:08.211',0.47
'0:08.215',0.58
'0:08.219',0.82
'0:08.223',1.42
'0:08.227',2.09
'0:08.230',2.18
'0:08.234',1.71
'0:08.238',1.37
'0:08.242',1.3
'0:08.246',0.76
'0:08.250',0.08
'0:08.254',0.27
'0:08.258',-0.42
'0:08.262',-1.15
'0:08.266',-1.6
'0:08.270',-1.77
'0:08.273',-2.06
'0:08.277',-2.37
'0:08.281',-2.27
'0:08.285',-2.02
'0:08.289',-2.28
'0:08.293',-3.21
'0:08.297',-3.95
'0:08.301',-3.76
'0:08.305',-3.81
'0:08.309',-4.24
'0:08.313',-4.95
'0:08.316',-5.53
'0:08.320',-5.51
'0:08.324',-5.31
'0:08.328',-5.69
'0:08.332',-5.48
'0:08.336',-5.45
'0:08.340',-5.42
'0:08.344',-4.67
'0:08.348',-3.56
'0:08.352',-0.83
'0:08.355',2.59
'0:08.359',5.42
'0:08.363',4.71
'0:08.367',0.74
'0:08.371',-3.77
'0:08.375',-6.28
'0:08.379',-6.6
'0:08.383',-6.3
'0:08.387',-5.94
'0:08.391',-5.51
'0:08.395',-6.2
'0:08.398',-7.12
'0:08.402',-6.66
'0:08.406',-5.06
'0:08.410',-3.59
'0:08.414',-2.46
'0:08.418',-2.59
'0:08.422',-2.97
'0:08.426',-2.3
'0:08.430',-1.45
'0:08.434',-1.1
'0:08.438',-1.06
'0:08.441',-0.79
'0:08.445',-0.34
'0:08.449',-0.43
'0:08.453',-0.69
'0:08.457',-0.89
'0:08.461',-0.34
'0:08.465',0.66
'0:08.469',1.46
'0:08.473',1.99
'0:08.477',2.31
'0:08.480',2.66
'0:08.484',2.87
'0:08.488',2.85
'0:08.492',2.74
'0:08.496',2.57
'0:08.500',2.39
'0:08.504',2.28
'0:08.508',2.27
'0:08.512',2.27
'0:08.516',2.06
'0:08.520',1.8
'0:08.523',1.81
'0:08.527',1.72
'0:08.531',1.49
'0:08.535',0.91
'0:08.539',0.19
'0:08.543',-0.23
'0:08.547',-0.22
'0:08.551',-0.02
'0:08.555',0.05
'0:08.559',-0.04
'0:08.563',0.05
'0:08.566',0.2
'0:08.570',0.35
'0:08.574',0.19
'0:08.578',-0.46
'0:08.582',-0.96
'0:08.586',-0.88
'0:08.590',-0.47
'0:08.594',-0.47
'0:08.598',-0.9
'0:08.602',-1.51
'0:08.605',-1.93
'0:08.609',-2.33
'0:08.613',-2.38
'0:08.617',-2.02
'0:08.621',-1.93
'0:08.625',-2.11
'0:08.629',-2.26
'0:08.633',-2.22
'0:08.637',-2.04
'0:08.641',-1.88
'0:08.645',-1.82
'0:08.648',-2.06
'0:08.652',-2.01
'0:08.656',-1.03
'0:08.660',0.49
'0:08.664',2.81
'0:08.668',5.09
'0:08.672',6.3
'0:08.676',5.13
'0:08.680',2.24
'0:08.684',-1.28
'0:08.688',-3.91
'0:08.691',-5.59
'0:08.695',-6.41
'0:08.699',-5.82
'0:08.703',-4.96
'0:08.707',-4.06
'0:08.711',-3.7
'0:08.715',-3.49
'0:08.719',-2.49
'0:08.723',-1.57
'0:08.727',-1.24
'0:08.730',-0.86
'0:08.734',-0.14
'0:08.738',-0.16
'0:08.742',-0.22
'0:08.746',-0.33
'0:08.750',-0.18
'0:08.754',0.31
'0:08.758',0.44
'0:08.762',0.65
'0:08.766',0.78
'0:08.770',0.87
'0:08.773',1.32
'0:08.777',1.96
'0:08.781',2.34
'0:08.785',1.85
'0:08.789',1.46
'0:08.793',1.39
'0:08.797',1.18
'0:08.801',1.14
'0:08.805',1.48
'0:08.809',1.52
'0:08.813',1.3
'0:08.816',1.03
'0:08.820',0.93
'0:08.824',0.68
'0:08.828',-0.26
'0:08.832',-1.26
'0:08.836',-1.59
'0:08.840',-1.35
'0:08.844',-1.11
'0:08.848',-1.23
'0:08.852',-1.69
'0:08.855',-2.11
'0:08.859',-2.19
'0:08.863',-1.74
'0:08.867',-1.08
'0:08.871',-0.91
'0:08.875',-1.14
'0:08.879',-1.43
'0:08.883',-1.53
'0:08.887',-1.32
'0:08.891',-1.4
'0:08.895',-1.71
'0:08.898',-1.92
'0:08.902',-1.98
'0:08.906',-1.8
'0:08.910',-1.5
'0:08.914',-1.03
'0:08.918',-0.81
'0:08.922',-1.39
'0:08.926',-1.72
'0:08.930',-1.56
'0:08.934',-1.24
'0:08.938',-0.64
'0:08.941',0.09
'0:08.945',0.37
'0:08.949',0.02
'0:08.953',-0.34
'0:08.957',-0.55
'0:08.961',-0.03
'0:08.965',0.59
'0:08.969',1.54
'0:08.973',3.3
'0:08.977',6.31
'0:08.980',9.59
'0:08.984',10.98
'0:08.988',9.33
'0:08.992',5.08
'0:08.996',0.39
'0:09.000',-2.27
'0:09.004',-3.43
'0:09.008',-3.94
'0:09.012',-3.71
'0:09.016',-3.01
'0:09.020',-2.57
'0:09.023',-2.39
'0:09.027',-2.2
'0:09.031',-1.79
'0:09.035',-1.41
'0:09.039',-1
'0:09.043',-0.4
'0:09.047',0.05
'0:09.051',0.08
'0:09.055',0.03
'0:09.059',0.03
'0:09.063',0.19
'0:09.066',0.6
'0:09.070',1.06
'0:09.074',1.58
'0:09.078',1.81
'0:09.082',1.68
'0:09.086',1.35
'0:09.090',1.29
'0:09.094',1.48
'0:09.098',1.82
'0:09.102',1.99
'0:09.105',1.86
'0:09.109',1.9
'0:09.113',1.86
'0:09.117',1.56
'0:09.121',1.7
'0:09.125',2.28
'0:09.129',2.22
'0:09.133',1.67
'0:09.137',1.3
'0:09.141',1.27
'0:09.145',0.88
'0:09.148',0.83
'0:09.152',0.59
'0:09.156',0.7
'0:09.160',1.37
'0:09.164',1.9
'0:09.168',2
'0:09.172',2.07
'0:09.176',2.19
'0:09.180',1.94
'0:09.184',0.93
'0:09.188',-0.57
'0:09.191',-1.16
'0:09.195',0.27
'0:09.199',1.22
'0:09.203',1.31
'0:09.207',1.23
'0:09.211',0.28
'0:09.215',-0.04
'0:09.219',0.6
'0:09.223',0.66
'0:09.227',0.07
'0:09.230',-0.57
'0:09.234',-0.8
'0:09.238',-0.99
'0:09.242',-0.98
'0:09.246',-0.5
'0:09.250',0.17
'0:09.254',-0.49
'0:09.258',-0.71
'0:09.262',-0.95
'0:09.266',-1.57
'0:09.270',-1.98
'0:09.273',-1.73
'0:09.277',-0.7
'0:09.281',0.66
'0:09.285',2.99
'0:09.289',5.57
'0:09.293',6.81
'0:09.297',6.43
'0:09.301',4.44
'0:09.305',1.33
'0:09.309',-1.85
'0:09.313',-3.89
'0:09.316',-4.8
'0:09.320',-4.63
'0:09.324',-3.81
'0:09.328',-2.62
'0:09.332',-1.66
'0:09.336',-0.96
'0:09.340',-0.56
'0:09.344',-0.44
'0:09.348',-0.77
'0:09.352',-0.85
'0:09.355',-0.68
'0:09.359',-0.61
'0:09.363',-0.53
'0:09.367',-0.16
'0:09.371',-0.12
'0:09.375',-0.33
'0:09.379',-0.48
'0:09.383',-0.17
'0:09.387',0.19
'0:09.391',0.51
'0:09.395',0.67
'0:09.398',0.4
'0:09.402',0.05
'0:09.406',0.39
'0:09.410',1.11
'0:09.414',2.04
'0:09.418',2.66
'0:09.422',2.71
'0:09.426',2.3
'0:09.430',1.98
'0:09.434',2.24
'0:09.438',2.42
'0:09.441',2.29
'0:09.445',1.89
'0:09.449',1.54
'0:09.453',1.6
'0:09.457',1.44
'0:09.461',0.74
'0:09.465',-0.06
'0:09.469',-0.65
'0:09.473',-0.79
'0:09.477',-0.58
'0:09.480',-0.17
'0:09.484',0.05
'0:09.488',0.15
'0:09.492',-0.52
'0:09.496',-1.71
'0:09.500',-2.19
'0:09.504',-1.7
'0:09.508',-0.59
'0:09.512',0.53
'0:09.516',0.71
'0:09.520',-0.15
'0:09.523',-1.39
'0:09.527',-2.68
'0:09.531',-3.33
'0:09.535',-3.07
'0:09.539',-2.54
'0:09.543',-2.17
'0:09.547',-1.93
'0:09.551',-1.92
'0:09.555',-1.78
'0:09.559',-1.46
'0:09.563',-1.29
'0:09.566',-1.71
'0:09.570',-1.78
'0:09.574',-1.88
'0:09.578',-1.9
'0:09.582',-1.64
'0:09.586',-0.6
'0:09.590',0.92
'0:09.594',2.81
'0:09.598',5.03
'0:09.602',6.62
'0:09.605',7.28
'0:09.609',5.82
'0:09.613',2.28
'0:09.617',-1.39
'0:09.621',-3.63
'0:09.625',-4.96
'0:09.629',-4.95
'0:09.633',-4.87
'0:09.637',-4.12
'0:09.641',-3.39
'0:09.645',-3.6
'0:09.648',-4.25
'0:09.652',-4.06
'0:09.656',-2.57
'0:09.660',-0.91
'0:09.664',-0.73
'0:09.668',-1.07
'0:09.672',-0.92
'0:09.676',-0.63
'0:09.680',-0.5
'0:09.684',-0.43
'0:09.688',-0.38
'0:09.691',-0.38
'0:09.695',-0.41
'0:09.699',-0.4
'0:09.703',-0.09
'0:09.707',0.46
'0:09.711',0.85
'0:09.715',1.14
'0:09.719',1.42
'0:09.723',1.78
'0:09.727',2.27
'0:09.730',2.68
'0:09.734',3.1
'0:09.738',3.49
'0:09.742',3.59
'0:09.746',3.4
'0:09.750',3.2
'0:09.754',3.17
'0:09.758',3.06
'0:09.762',2.97
'0:09.766',2.95
'0:09.770',3.02
'0:09.773',2.92
'0:09.777',2.76
'0:09.781',2.62
'0:09.785',2.52
'0:09.789',2.63
'0:09.793',2.73
'0:09.797',2.86
'0:09.801',3.19
'0:09.805',3
'0:09.809',2.66
'0:09.813',2.37
'0:09.816',2.17
'0:09.820',2.01
'0:09.824',1.86
'0:09.828',1.61
'0:09.832',1.29
'0:09.836',1.14
'0:09.840',0.97
'0:09.844',0.47
'0:09.848',-0.14
'0:09.852',-0.39
'0:09.855',-0.6
'0:09.859',-1.04
'0:09.863',-1.61
'0:09.867',-1.99
'0:09.871',-2.19
'0:09.875',-2
'0:09.879',-1.51
'0:09.883',-1.53
'0:09.887',-2.48
'0:09.891',-3.33
'0:09.895',-3.5
'0:09.898',-2.75
'0:09.902',-1.25
'0:09.906',0.98
'0:09.910',3.4
'0:09.914',5.21
'0:09.918',5.53
'0:09.922',3.68
'0:09.926',0.32
'0:09.930',-2.83
'0:09.934',-5.17
'0:09.938',-6.88
'0:09.941',-7.77
'0:09.945',-7.74
'0:09.949',-7.35
'0:09.953',-6.92
'0:09.957',-6.7
'0:09.961',-6.22
'0:09.965',-5.67
'0:09.969',-5.33
'0:09.973',-5.09
'0:09.977',-4.51
'0:09.980',-3.22
'0:09.984',-2.34
'0:09.988',-2.12
'0:09.992',-2.02
'0:09.996',-1.14
'0:10.000',-1.14
'0:10.004',-1.48
'0:10.008',-1.36
'0:10.012',-1.01
'0:10.016',-0.47
'0:10.020',-0.52
'0:10.023',-0.06
'0:10.027',0.56
'0:10.031',1.19
'0:10.035',1.75
'0:10.039',1.68
'0:10.043',2.17
'0:10.047',2.22
'0:10.051',1.47
'0:10.055',1.51
'0:10.059',1.87
'0:10.063',1.56
'0:10.066',0.94
'0:10.070',0.98
'0:10.074',1.31
'0:10.078',1.59
'0:10.082',1.73
'0:10.086',1.49
'0:10.090',0.93
'0:10.094',0.08
'0:10.098',-0.45
'0:10.102',-0.61
'0:10.105',-0.55
'0:10.109',-0.46
'0:10.113',-0.19
'0:10.117',0.21
'0:10.121',0.03
'0:10.125',-0.67
'0:10.129',-1.08
'0:10.133',-0.61
'0:10.137',-0.1
'0:10.141',-0.36
'0:10.145',-0.97
'0:10.148',-1.44
'0:10.152',-1.77
'0:10.156',-1.85
'0:10.160',-1.56
'0:10.164',-1.48
'0:10.168',-1.8
'0:10.172',-1.99
'0:10.176',-1.87
'0:10.180',-1.82
'0:10.184',-1.65
'0:10.188',-1.6
'0:10.191',-1.74
'0:10.195',-1.88
'0:10.199',-2.26
'0:10.203',-2.33
'0:10.207',-1.94
'0:10.211',-1.09
'0:10.215',0.82
'0:10.219',3.56
'0:10.223',6.56
'0:10.227',9.41
'0:10.230',9.45
'0:10.234',5.95
'0:10.238',1.12
'0:10.242',-2.78
'0:10.246',-5.13
'0:10.250',-6.06
'0:10.254',-6.32
'0:10.258',-5.67
'0:10.262',-5.23
'0:10.266',-4.69
'0:10.270',-4.5
'0:10.273',-3.87
'0:10.277',-2.86
'0:10.281',-1.71
'0:10.285',-0.9
'0:10.289',-0.54
'0:10.293',-0.36
'0:10.297',-0.32
'0:10.301',-0.29
'0:10.305',-0.43
'0:10.309',-0.43
'0:10.313',-0.17
'0:10.316',0.3
'0:10.320',0.4
'0:10.324',0.32
'0:10.328',0.35
'0:10.332',0.29
'0:10.336',0.28
'0:10.340',0.56
'0:10.344',0.96
'0:10.348',1.13
'0:10.352',1.26
'0:10.355',1.59
'0:10.359',1.77
'0:10.363',1.64
'0:10.367',1.81
'0:10.371',1.76
'0:10.375',1.38
'0:10.379',1.32
'0:10.383',1.32
'0:10.387',1.32
'0:10.391',1.32
'0:10.395',1.55
'0:10.398',1.95
'0:10.402',2
'0:10.406',2.21
'0:10.410',2.22
'0:10.414',2.56
'0:10.418',2.51
'0:10.422',1.96
'0:10.426',0.91
'0:10.430',0.82
'0:10.434',1.26
'0:10.438',1.71
'0:10.441',2.13
'0:10.445',1.96
'0:10.449',1.49
'0:10.453',1.08
'0:10.457',1
'0:10.461',0.74
'0:10.465',0.47
'0:10.469',0.16
'0:10.473',-0.16
'0:10.477',-0.23
'0:10.480',-0.07
'0:10.484',-0.43
'0:10.488',-1.08
'0:10.492',-1.05
'0:10.496',-0.58
'0:10.500',-0.16
'0:10.504',0.14
'0:10.508',-0.08
'0:10.512',-0.58
'0:10.516',-0.61
'0:10.520',-0.21
'0:10.523',0.18
'0:10.527',1.69
'0:10.531',4.17
'0:10.535',7.08
'0:10.539',8.37
'0:10.543',6.9
'0:10.547',3.86
'0:10.551',0.43
'0:10.555',-2.21
'0:10.559',-3.6
'0:10.563',-3.67
'0:10.566',-3.2
'0:10.570',-3
'0:10.574',-3.13
'0:10.578',-2.48
'0:10.582',-1.29
'0:10.586',-0.53
'0:10.590',-0.41
'0:10.594',-0.46
'0:10.598',-0.12
'0:10.602',0.52
'0:10.605',0.95
'0:10.609',1.58
'0:10.613',2.17
'0:10.617',2.55
'0:10.621',2.37
'0:10.625',2.18
'0:10.629',2.71
'0:10.633',3.43
'0:10.637',3.83
'0:10.641',4.46
'0:10.645',4.9
'0:10.648',5.09
'0:10.652',4.95
'0:10.656',4.75
'0:10.660',4.86
'0:10.664',4.99
'0:10.668',4.79
'0:10.672',4.42
'0:10.676',3.98
'0:10.680',3.4
'0:10.684',3.67
'0:10.688',4.19
'0:10.691',3.97
'0:10.695',2.71
'0:10.699',0.95
'0:10.703',-1.13
'0:10.707',-1.13
'0:10.711',0.7
'0:10.715',2.38
'0:10.719',2.85
'0:10.723',2.44
'0:10.727',1.71
'0:10.730',0.56
'0:10.734',-0.82
'0:10.738',-1.24
'0:10.742',-1.04
'0:10.746',-0.82
'0:10.750',-0.48
'0:10.754',-0.36
'0:10.758',-0.54
'0:10.762',-0.66
'0:10.766',-0.78
'0:10.770',-0.92
'0:10.773',-1.07
'0:10.777',-1.41
'0:10.781',-1.85
'0:10.785',-2.48
'0:10.789',-3.07
'0:10.793',-3.5
'0:10.797',-3.58
'0:10.801',-3.35
'0:10.805',-2.85
'0:10.809',-2.22
'0:10.813',-2.04
'0:10.816',-2.63
'0:10.820',-3.5
'0:10.824',-3.23
'0:10.828',-2.33
'0:10.832',-1.26
'0:10.836',0.51
'0:10.840',3.22
'0:10.844',5.99
'0:10.848',8.01
'0:10.852',6.57
'0:10.855',3.2
'0:10.859',0.11
'0:10.863',-2.48
'0:10.867',-3.62
'0:10.871',-3.83
'0:10.875',-3.41
'0:10.879',-2.68
'0:10.883',-2.9
'0:10.887',-4.08
'0:10.891',-4.52
'0:10.895',-4.43
'0:10.898',-3.53
'0:10.902',-1.82
'0:10.906',-0.37
'0:10.910',0.15
'0:10.914',0.2
'0:10.918',0.47
'0:10.922',0.45
'0:10.926',0.08
'0:10.930',-0.45
'0:10.934',-0.8
'0:10.938',-0.38
'0:10.941',0.26
'0:10.945',0.08
'0:10.949',0.34
'0:10.953',0.26
'0:10.957',0.47
'0:10.961',0.9
'0:10.965',1.25
'0:10.969',1.8
'0:10.973',2.31
'0:10.977',2.51
'0:10.980',2.13
'0:10.984',1.66
'0:10.988',1.64
'0:10.992',1.9
'0:10.996',2.09
'0:11.000',1.84
'0:11.004',1.33
'0:11.008',0.74
'0:11.012',0.22
'0:11.016',-0.13
'0:11.020',0.04
'0:11.023',0.27
'0:11.027',0.2
'0:11.031',0.28
'0:11.035',0.59
'0:11.039',0.58
'0:11.043',0.27
'0:11.047',0.01
'0:11.051',-0.15
'0:11.055',-0.82
'0:11.059',-1.48
'0:11.063',-1.84
'0:11.066',-1.56
'0:11.070',-1.24
'0:11.074',-1.7
'0:11.078',-2.09
'0:11.082',-2.15
'0:11.086',-2.41
'0:11.090',-2.87
'0:11.094',-2.87
'0:11.098',-2.75
'0:11.102',-2.82
'0:11.105',-3.11
'0:11.109',-3.36
'0:11.113',-3.4
'0:11.117',-3.5
'0:11.121',-3.74
'0:11.125',-4.06
'0:11.129',-4.26
'0:11.133',-4.14
'0:11.137',-3.97
'0:11.141',-3.51
'0:11.145',-2.66
'0:11.148',-1.07
'0:11.152',1.75
'0:11.156',4.77
'0:11.160',6.62
'0:11.164',6.28
'0:11.168',3.83
'0:11.172',-0.02
'0:11.176',-3.7
'0:11.180',-5.94
'0:11.184',-6.98
'0:11.188',-6.96
'0:11.191',-6.33
'0:11.195',-5.67
'0:11.199',-5.16
'0:11.203',-4.68
'0:11.207',-4.28
'0:11.211',-3.83
'0:11.215',-3.23
'0:11.219',-2.87
'0:11.223',-2.94
'0:11.227',-3.02
'0:11.230',-2.82
'0:11.234',-2.59
'0:11.238',-2.7
'0:11.242',-2.33
'0:11.246',-1.79
'0:11.250',-1.29
'0:11.254',-0.82
'0:11.258',-0.44
'0:11.262',-0.02
'0:11.266',0.3
'0:11.270',0.61
'0:11.273',1.17
'0:11.277',1.25
'0:11.281',1.12
'0:11.285',1.2
'0:11.289',1.73
'0:11.293',1.93
'0:11.297',2.22
'0:11.301',2.17
'0:11.305',2.07
'0:11.309',1.83
'0:11.313',1.25
'0:11.316',1.05
'0:11.320',1.02
'0:11.324',0.89
'0:11.328',0.49
'0:11.332',0.34
'0:11.336',-0.02
'0:11.340',-0.39
'0:11.344',-0.85
'0:11.348',-1.25
'0:11.352',-0.99
'0:11.355',-0.71
'0:11.359',-0.61
'0:11.363',-1.19
'0:11.367',-1.45
'0:11.371',-1.39
'0:11.375',-1.44
'0:11.379',-1.65
'0:11.383',-1.73
'0:11.387',-1.9
'0:11.391',-1.59
'0:11.395',-1.44
'0:11.398',-2.07
'0:11.402',-2.41
'0:11.406',-2.15
'0:11.410',-2.66
'0:11.414',-3.45
'0:11.418',-3.48
'0:11.422',-2.85
'0:11.426',-2.34
'0:11.430',-2.26
'0:11.434',-2.43
'0:11.438',-2.31
'0:11.441',-2.12
'0:11.445',-2.17
'0:11.449',-2.09
'0:11.453',-1.45
'0:11.457',-0.18
'0:11.461',1.61
'0:11.465',4.44
'0:11.469',7.63
'0:11.473',10.37
'0:11.477',10.68
'0:11.480',7.24
'0:11.484',1.86
'0:11.488',-2.43
'0:11.492',-4.55
'0:11.496',-5.01
'0:11.500',-4.58
'0:11.504',-3.84
'0:11.508',-2.84
'0:11.512',-1.87
'0:11.516',-1.03
'0:11.520',-0.73
'0:11.523',-0.52
'0:11.527',-0.04
'0:11.531',0.27
'0:11.535',0.35
'0:11.539',0.3
'0:11.543',0.52
'0:11.547',0.83
'0:11.551',1.03
'0:11.555',1.17
'0:11.559',1.07
'0:11.563',0.98
'0:11.566',1.15
'0:11.570',1.65
'0:11.574',1.96
'0:11.578',1.95
'0:11.582',1.76
'0:11.586',1.61
'0:11.590',1.52
'0:11.594',1.44
'0:11.598',1.81
'0:11.602',2.17
'0:11.605',2.14
'0:11.609',1.74
'0:11.613',1.49
'0:11.617',1.42
'0:11.621',1.63
'0:11.625',1.56
'0:11.629',1.27
'0:11.633',0.95
'0:11.637',1
'0:11.641',1
'0:11.645',0.83
'0:11.648',1.19
'0:11.652',1.66
'0:11.656',1.63
'0:11.660',1.37
'0:11.664',1.39
'0:11.668',1.76
'0:11.672',1.58
'0:11.676',0.7
'0:11.680',-0.04
'0:11.684',-0.28
'0:11.688',-0.02
'0:11.691',-0.07
'0:11.695',-0.24
'0:11.699',-0.07
'0:11.703',-0.59
'0:11.707',-1.32
'0:11.711',-1.34
'0:11.715',-1.24
'0:11.719',-0.87
'0:11.723',-1.15
'0:11.727',-1.83
'0:11.730',-2.4
'0:11.734',-1.54
'0:11.738',-0.95
'0:11.742',-1.32
'0:11.746',-1.05
'0:11.750',0.22
'0:11.754',0.44
'0:11.758',0.65
'0:11.762',0.85
'0:11.766',0.76
'0:11.770',0.74
'0:11.773',1.63
'0:11.777',3.96
'0:11.781',7.08
'0:11.785',8.15
'0:11.789',6.19
'0:11.793',2.53
'0:11.797',0.07
'0:11.801',-1.96
'0:11.805',-3.87
'0:11.809',-4.58
'0:11.813',-4.74
'0:11.816',-3.79
'0:11.820',-2.7
'0:11.824',-2.34
'0:11.828',-2.16
'0:11.832',-1.48
'0:11.836',-0.8
'0:11.840',-0.6
'0:11.844',-0.07
'0:11.848',0.96
'0:11.852',2.01
'0:11.855',2.16
'0:11.859',1.38
'0:11.863',0.52
'0:11.867',0.16
'0:11.871',0.1
'0:11.875',0.33
'0:11.879',0.74
'0:11.883',1.35
'0:11.887',1.51
'0:11.891',1.37
'0:11.895',1.59
'0:11.898',2.47
'0:11.902',3.32
'0:11.906',3.61
'0:11.910',3.93
'0:11.914',3.97
'0:11.918',3.37
'0:11.922',2.95
'0:11.926',2.59
'0:11.930',2.2
'0:11.934',1.93
'0:11.938',1.61
'0:11.941',1.1
'0:11.945',0.64
'0:11.949',0.26
'0:11.953',-0.21
'0:11.957',-0.51
'0:11.961',-0.48
'0:11.965',-0.56
'0:11.969',-0.79
'0:11.973',-0.68
'0:11.977',-0.47
'0:11.980',-1.21
'0:11.984',-2.37
'0:11.988',-2.89
'0:11.992',-2.71
'0:11.996',-2.28
'0:12.000',-1.72
'0:12.004',-1.65
'0:12.008',-1.61
'0:12.012',-1.81
'0:12.016',-2.51
'0:12.020',-2.62
'0:12.023',-2.26
'0:12.027',-2.07
'0:12.031',-2.45
'0:12.035',-2.68
'0:12.039',-2.95
'0:12.043',-3.29
'0:12.047',-3.56
'0:12.051',-3.45
'0:12.055',-2.96
'0:12.059',-2.63
'0:12.063',-2.92
'0:12.066',-3.53
'0:12.070',-3.35
'0:12.074',-2.09
'0:12.078',-0.63
'0:12.082',1.66
'0:12.086',5.12
'0:12.090',8.05
'0:12.094',9.08
'0:12.098',7.51
'0:12.102',3.87
'0:12.105',-0.14
'0:12.109',-3.25
'0:12.113',-4.92
'0:12.117',-5.28
'0:12.121',-5.02
'0:12.125',-4.72
'0:12.129',-3.85
'0:12.133',-3.08
'0:12.137',-2.5
'0:12.141',-2.26
'0:12.145',-1.96
'0:12.148',-1.28
'0:12.152',-0.47
'0:12.156',0.1
'0:12.160',-0.37
'0:12.164',-0.65
'0:12.168',-0.31
'0:12.172',0.16
'0:12.176',-0.02
'0:12.180',0.33
'0:12.184',1.24
'0:12.188',1.49
'0:12.191',1.34
'0:12.195',0.71
'0:12.199',0.47
'0:12.203',0.77
'0:12.207',1.1
'0:12.211',1.39
'0:12.215',1.55
'0:12.219',1.86
'0:12.223',2.37
'0:12.227',2.39
'0:12.230',2.3
'0:12.234',2.46
'0:12.238',2.31
'0:12.242',1.95
'0:12.246',1.58
'0:12.250',1.57
'0:12.254',1.63
'0:12.258',1.2
'0:12.262',0.75
'0:12.266',0.41
'0:12.270',0.37
'0:12.273',0.22
'0:12.277',-0.02
'0:12.281',-0.31
'0:12.285',-0.65
'0:12.289',-0.97
'0:12.293',-1.01
'0:12.297',-0.92
'0:12.301',-1.01
'0:12.305',-1.1
'0:12.309',-1.14
'0:12.313',-1.14
'0:12.316',-1.47
'0:12.320',-1.92
'0:12.324',-2.2
'0:12.328',-2.51
'0:12.332',-2.9
'0:12.336',-3.13
'0:12.340',-2.9
'0:12.344',-2.6
'0:12.348',-2.58
'0:12.352',-2.87
'0:12.355',-3.26
'0:12.359',-3.6
'0:12.363',-3.74
'0:12.367',-3.55
'0:12.371',-3.11
'0:12.375',-2.88
'0:12.379',-3.09
'0:12.383',-2.86
'0:12.387',-1.83
'0:12.391',-0.19
'0:12.395',2.33
'0:12.398',5.29
'0:12.402',7.83
'0:12.406',7.95
'0:12.410',5.47
'0:12.414',1.48
'0:12.418',-2.43
'0:12.422',-5.01
'0:12.426',-6.61
'0:12.430',-7.2
'0:12.434',-6.68
'0:12.438',-5.61
'0:12.441',-4.33
'0:12.445',-3.69
'0:12.449',-3.08
'0:12.453',-2.5
'0:12.457',-1.95
'0:12.461',-1.55
'0:12.465',-1.36
'0:12.469',-1.18
'0:12.473',-0.94
'0:12.477',-0.83
'0:12.480',-0.88
'0:12.484',-0.86
'0:12.488',-0.21
'0:12.492',0.3
'0:12.496',0.45
'0:12.500',0.43
'0:12.504',0.47
'0:12.508',0.59
'0:12.512',1.1
'0:12.516',1.48
'0:12.520',2.23
'0:12.523',2.95
'0:12.527',3.29
'0:12.531',3.35
'0:12.535',3.44
'0:12.539',3
'0:12.543',2.12
'0:12.547',1.54
'0:12.551',1.71
'0:12.555',2.44
'0:12.559',2.75
'0:12.563',2.44
'0:12.566',1.94
'0:12.570',1.53
'0:12.574',1
'0:12.578',0.91
'0:12.582',1.57
'0:12.586',2.39
'0:12.590',2.14
'0:12.594',1.46
'0:12.598',1.62
'0:12.602',2.23
'0:12.605',2.24
'0:12.609',1.56
'0:12.613',1.07
'0:12.617',0.7
'0:12.621',0.34
'0:12.625',0.6
'0:12.629',0.9
'0:12.633',0.76
'0:12.637',0.47
'0:12.641',0.17
'0:12.645',0.2
'0:12.648',-0.2
'0:12.652',-1.3
'0:12.656',-1.82
'0:12.660',-1.26
'0:12.664',-0.53
'0:12.668',-0.13
'0:12.672',0.46
'0:12.676',0.09
'0:12.680',-0.41
'0:12.684',-0.38
'0:12.688',-0.38
'0:12.691',0.01
'0:12.695',0.05
'0:12.699',-0.38
'0:12.703',0.39
'0:12.707',2.97
'0:12.711',6.77
'0:12.715',9.23
'0:12.719',8.76
'0:12.723',5.55
'0:12.727',1.85
'0:12.730',-0.46
'0:12.734',-3.13
'0:12.738',-4.71
'0:12.742',-5.19
'0:12.746',-4.55
'0:12.750',-3.67
'0:12.754',-3.04
'0:12.758',-2.66
'0:12.762',-2.82
'0:12.766',-2.7
'0:12.770',-2.08
'0:12.773',-1.08
'0:12.777',-0.78
'0:12.781',-0.86
'0:12.785',-0.57
'0:12.789',-0.39
'0:12.793',-0.25
'0:12.797',-0.15
'0:12.801',0
'0:12.805',-0.22
'0:12.809',-0.24
'0:12.813',0.16
'0:12.816',0.78
'0:12.820',1.32
'0:12.824',1.66
'0:12.828',1.59
'0:12.832',1.34
'0:12.836',1.52
'0:12.840',2
'0:12.844',2.34
'0:12.848',2.29
'0:12.852',2.21
'0:12.855',1.97
'0:12.859',1.73
'0:12.863',1.54
'0:12.867',1.39
'0:12.871',1.51
'0:12.875',1.49
'0:12.879',1.46
'0:12.883',1.56
'0:12.887',1.26
'0:12.891',0.63
'0:12.895',0.34
'0:12.898',0.61
'0:12.902',0.66
'0:12.906',0.62
'0:12.910',0.39
'0:12.914',0.32
'0:12.918',0.22
'0:12.922',0.16
'0:12.926',0.01
'0:12.930',0.04
'0:12.934',0.22
'0:12.938',0.29
'0:12.941',0.24
'0:12.945',-0.34
'0:12.949',-1.13
'0:12.953',-1.81
'0:12.957',-2.31
'0:12.961',-2.43
'0:12.965',-2.29
'0:12.969',-2.24
'0:12.973',-1.83
'0:12.977',-1.7
'0:12.980',-1.62
'0:12.984',-1.17
'0:12.988',-0.22
'0:12.992',0.41
'0:12.996',-0.48
'0:13.000',-2.08
'0:13.004',-2.1
'0:13.008',-0.51
'0:13.012',1.42
'0:13.016',4.05
'0:13.020',6.8
'0:13.023',8.94
'0:13.027',10.07
'0:13.031',5.65
'0:13.035',0.7
'0:13.039',-3.34
'0:13.043',-5.98
'0:13.047',-6.54
'0:13.051',-5.16
'0:13.055',-3.1
'0:13.059',-1.87
'0:13.063',-1.98
'0:13.066',-3.24
'0:13.070',-3.1
'0:13.074',-1.49
'0:13.078',-0.01
'0:13.082',0.47
'0:13.086',0.1
'0:13.090',-0.3
'0:13.094',-0.95
'0:13.098',-1.21
'0:13.102',-0.92
'0:13.105',-0.13
'0:13.109',0.82
'0:13.113',1.23
'0:13.117',1.18
'0:13.121',0.82
'0:13.125',0.4
'0:13.129',0.49
'0:13.133',0.4
'0:13.137',0.51
'0:13.141',1.63
'0:13.145',3.11
'0:13.148',3.85
'0:13.152',3.07
'0:13.156',1.51
'0:13.160',0.55
'0:13.164',1.14
'0:13.168',2.29
'0:13.172',2.81
'0:13.176',2.61
'0:13.180',2.31
'0:13.184',2.06
'0:13.188',2.23
'0:13.191',2.36
'0:13.195',2.2
'0:13.199',2.41
'0:13.203',2.99
'0:13.207',3.17
'0:13.211',3.22
'0:13.215',3.32
'0:13.219',3.34
'0:13.223',3.2
'0:13.227',3.14
'0:13.230',3.15
'0:13.234',3.02
'0:13.238',2.79
'0:13.242',2.78
'0:13.246',2.64
'0:13.250',2.3
'0:13.254',2.12
'0:13.258',1.84
'0:13.262',1.57
'0:13.266',1.46
'0:13.270',1.3
'0:13.273',1.34
'0:13.277',1.14
'0:13.281',0.81
'0:13.285',0.69
'0:13.289',0.69
'0:13.293',0.39
'0:13.297',-0.19
'0:13.301',-0.35
'0:13.305',-0.53
'0:13.309',-0.59
'0:13.313',-0.43
'0:13.316',-0.1
'0:13.320',0.77
'0:13.324',2.69
'0:13.328',5.44
'0:13.332',7.79
'0:13.336',8.61
'0:13.340',6.84
'0:13.344',3.11
'0:13.348',-0.89
'0:13.352',-4.06
'0:13.355',-5.95
'0:13.359',-6.59
'0:13.363',-6.59
'0:13.367',-5.98
'0:13.371',-5.27
'0:13.375',-4.42
'0:13.379',-3.64
'0:13.383',-3.17
'0:13.387',-3.09
'0:13.391',-3.03
'0:13.395',-2.98
'0:13.398',-2.87
'0:13.402',-2.73
'0:13.406',-2.88
'0:13.410',-3.16
'0:13.414',-2.94
'0:13.418',-2.55
'0:13.422',-2.29
'0:13.426',-2.41
'0:13.430',-2.16
'0:13.434',-1.25
'0:13.438',-0.75
'0:13.441',-0.8
'0:13.445',-0.63
'0:13.449',-0.36
'0:13.453',0.38
'0:13.457',0.57
'0:13.461',0.33
'0:13.465',-0.44
'0:13.469',-1.09
'0:13.473',-0.74
'0:13.477',0.28
'0:13.480',0.63
'0:13.484',0.34
'0:13.488',-0.27
'0:13.492',-0.65
'0:13.496',-0.6
'0:13.500',-0.6
'0:13.504',-0.81
'0:13.508',-1.27
'0:13.512',-1.37
'0:13.516',-0.93
'0:13.520',-0.09
'0:13.523',-0.39
'0:13.527',-1.64
'0:13.531',-2.29
'0:13.535',-1.71
'0:13.539',-1.26
'0:13.543',-1.86
'0:13.547',-2.2
'0:13.551',-1.5
'0:13.555',-1.32
'0:13.559',-1.71
'0:13.563',-1.99
'0:13.566',-2.12
'0:13.570',-3.05
'0:13.574',-3.43
'0:13.578',-3.38
'0:13.582',-3.27
'0:13.586',-3.55
'0:13.590',-3.55
'0:13.594',-3.57
'0:13.598',-3.19
'0:13.602',-2.9
'0:13.605',-2.96
'0:13.609',-2.7
'0:13.613',-2.66
'0:13.617',-3.07
'0:13.621',-2.96
'0:13.625',-2.6
'0:13.629',-2.43
'0:13.633',-1.66
'0:13.637',0.75
'0:13.641',4.24
'0:13.645',7.41
'0:13.648',8.86
'0:13.652',7.46
'0:13.656',3.54
'0:13.660',-0.51
'0:13.664',-3.11
'0:13.668',-4.91
'0:13.672',-6.16
'0:13.676',-6.41
'0:13.680',-6.13
'0:13.684',-5.68
'0:13.688',-4.84
'0:13.691',-3.69
'0:13.695',-3.02
'0:13.699',-2.94
'0:13.703',-3.03
'0:13.707',-2.76
'0:13.711',-2.53
'0:13.715',-1.63
'0:13.719',-1.59
'0:13.723',-1.7
'0:13.727',-1.5
'0:13.730',-1.19
'0:13.734',-1.17
'0:13.738',-1.23
'0:13.742',-1.02
'0:13.746',-0.69
'0:13.750',-0.48
'0:13.754',-0.48
'0:13.758',0.76
'0:13.762',1.21
'0:13.766',1.6
'0:13.770',1.78
'0:13.773',1.58
'0:13.777',1.56
'0:13.781',1.94
'0:13.785',1.89
'0:13.789',1.64
'0:13.793',1.47
'0:13.797',1.26
'0:13.801',0.84
'0:13.805',0.87
'0:13.809',0.82
'0:13.813',0.55
'0:13.816',-0.09
'0:13.820',-0.48
'0:13.824',-0.18
'0:13.828',0.61
'0:13.832',1.35
'0:13.836',1.11
'0:13.840',0.11
'0:13.844',-0.27
'0:13.848',-0.21
'0:13.852',0.26
'0:13.855',0.76
'0:13.859',0.73
'0:13.863',0.47
'0:13.867',0.09
'0:13.871',-0.4
'0:13.875',-1.22
'0:13.879',-1.56
'0:13.883',-1.43
'0:13.887',-1.06
'0:13.891',-0.96
'0:13.895',-0.95
'0:13.898',-1.02
'0:13.902',-0.91
'0:13.906',0.12
'0:13.910',1.08
'0:13.914',0.96
'0:13.918',-0.19
'0:13.922',-0.6
'0:13.926',-0.87
'0:13.930',-0.56
'0:13.934',0.75
'0:13.938',1.87
'0:13.941',2.36
'0:13.945',2.56
'0:13.949',4.34
'0:13.953',7.19
'0:13.957',8.58
'0:13.961',7.85
'0:13.965',6.11
'0:13.969',2.98
'0:13.973',-0.69
'0:13.977',-2.83
'0:13.980',-3.35
'0:13.984',-3.25
'0:13.988',-3.46
'0:13.992',-3.53
'0:13.996',-2.96
'0:14.000',-2.25
'0:14.004',-0.98
'0:14.008',0.16
'0:14.012',0.22
'0:14.016',-0.48
'0:14.020',-0.5
'0:14.023',-0.24
'0:14.027',0.06
'0:14.031',0.72
'0:14.035',1.05
'0:14.039',1.13
'0:14.043',1.5
'0:14.047',1.69
'0:14.051',1.31
'0:14.055',1.2
'0:14.059',1.77
'0:14.063',2.84
'0:14.066',3.24
'0:14.070',3.25
'0:14.074',3.27
'0:14.078',3.74
'0:14.082',4.54
'0:14.086',5.11
'0:14.090',5.16
'0:14.094',4.93
'0:14.098',5.04
'0:14.102',4.83
'0:14.105',4.68
'0:14.109',4.38
'0:14.113',4.22
'0:14.117',4.27
'0:14.121',4.37
'0:14.125',4.3
'0:14.129',4.58
'0:14.133',4.3
'0:14.137',3.77
'0:14.141',3.29
'0:14.145',3.24
'0:14.148',3.12
'0:14.152',2.61
'0:14.156',2.4
'0:14.160',2.56
'0:14.164',2.58
'0:14.168',2.34
'0:14.172',1.99
'0:14.176',1.66
'0:14.180',1.28
'0:14.184',0.81
'0:14.188',0.49
'0:14.191',0.22
'0:14.195',-0.03
'0:14.199',-0.34
'0:14.203',-0.65
'0:14.207',-0.95
'0:14.211',-1.15
'0:14.215',-1.47
'0:14.219',-1.97
'0:14.223',-2.27
'0:14.227',-2.58
'0:14.230',-2.93
'0:14.234',-2.97
'0:14.238',-2.86
'0:14.242',-3.07
'0:14.246',-3.2
'0:14.250',-2.59
'0:14.254',-1.13
'0:14.258',1.47
'0:14.262',4.87
'0:14.266',7.77
'0:14.270',8.73
'0:14.273',6.9
'0:14.277',2.99
'0:14.281',-1.4
'0:14.285',-4.55
'0:14.289',-6.19
'0:14.293',-6.69
'0:14.297',-6.29
'0:14.301',-5.55
'0:14.305',-4.78
'0:14.309',-3.77
'0:14.313',-2.84
'0:14.316',-2.67
'0:14.320',-2.45
'0:14.324',-1.89
'0:14.328',-1.14
'0:14.332',-1.2
'0:14.336',-1.56
'0:14.340',-1.56
'0:14.344',-1.31
'0:14.348',-1.02
'0:14.352',-1.07
'0:14.355',-1.09
'0:14.359',-0.87
'0:14.363',-0.08
'0:14.367',0.7
'0:14.371',0.94
'0:14.375',1.94
'0:14.379',2.34
'0:14.383',2.45
'0:14.387',1.44
'0:14.391',0.77
'0:14.395',1
'0:14.398',1.34
'0:14.402',1.29
'0:14.406',1.5
'0:14.410',1.95
'0:14.414',1.41
'0:14.418',0.87
'0:14.422',1.22
'0:14.426',1.48
'0:14.430',1.22
'0:14.434',0.92
'0:14.438',0.14
'0:14.441',-0.46
'0:14.445',-0.79
'0:14.449',-1.15
'0:14.453',-0.52
'0:14.457',-0.03
'0:14.461',-0.61
'0:14.465',-0.83
'0:14.469',-1.02
'0:14.473',-0.72
'0:14.477',-0.59
'0:14.480',-1.43
'0:14.484',-2
'0:14.488',-2.46
'0:14.492',-2.65
'0:14.496',-2.6
'0:14.500',-2.49
'0:14.504',-2.66
'0:14.508',-3.04
'0:14.512',-3.28
'0:14.516',-3.49
'0:14.520',-3.76
'0:14.523',-4.02
'0:14.527',-4.26
'0:14.531',-4.5
'0:14.535',-4.45
'0:14.539',-4.21
'0:14.543',-3.9
'0:14.547',-3.73
'0:14.551',-3.8
'0:14.555',-3.71
'0:14.559',-3.25
'0:14.563',-2.8
'0:14.566',-2.22
'0:14.570',-0.22
'0:14.574',2.73
'0:14.578',5.3
'0:14.582',5.65
'0:14.586',3.38
'0:14.590',-0.52
'0:14.594',-3.63
'0:14.598',-6.95
'0:14.602',-8.9
'0:14.605',-9.42
'0:14.609',-9.19
'0:14.613',-8.35
'0:14.617',-7.27
'0:14.621',-6.34
'0:14.625',-5.4
'0:14.629',-4.63
'0:14.633',-4.08
'0:14.637',-3.82
'0:14.641',-3.38
'0:14.645',-3.18
'0:14.648',-3.23
'0:14.652',-3.01
'0:14.656',-2.51
'0:14.660',-2.27
'0:14.664',-2.63
'0:14.668',-2.39
'0:14.672',-1.7
'0:14.676',-1.14
'0:14.680',-1.12
'0:14.684',-1.17
'0:14.688',-1.16
'0:14.691',-1.16
'0:14.695',-0.15
'0:14.699',0.69
'0:14.703',1.27
'0:14.707',1.6
'0:14.711',1.82
'0:14.715',2.13
'0:14.719',2.07
'0:14.723',1.56
'0:14.727',1.08
'0:14.730',0.65
'0:14.734',0.11
'0:14.738',0.26
'0:14.742',1.28
'0:14.746',1.85
'0:14.750',1.43
'0:14.754',0.85
'0:14.758',1.03
'0:14.762',1.14
'0:14.766',1.19
'0:14.770',1.67
'0:14.773',1.97
'0:14.777',1.78
'0:14.781',1.38
'0:14.785',1.14
'0:14.789',1.11
'0:14.793',1.57
'0:14.797',1.81
'0:14.801',1.81
'0:14.805',1.44
'0:14.809',1.1
'0:14.813',1.16
'0:14.816',0.68
'0:14.820',0.14
'0:14.824',-0.43
'0:14.828',-0.25
'0:14.832',-0.05
'0:14.836',-0.54
'0:14.840',-1.16
'0:14.844',-1.23
'0:14.848',-0.87
'0:14.852',-0.4
'0:14.855',-0.33
'0:14.859',-0.11
'0:14.863',0.16
'0:14.867',0.44
'0:14.871',0.26
'0:14.875',-0.02
'0:14.879',0.56
'0:14.883',3.7
'0:14.887',7.72
'0:14.891',10.09
'0:14.895',9.51
'0:14.898',6.2
'0:14.902',1.5
'0:14.906',-2.35
'0:14.910',-4.92
'0:14.914',-6.07
'0:14.918',-6.38
'0:14.922',-5.95
'0:14.926',-4.78
'0:14.930',-3.61
'0:14.934',-2.79
'0:14.938',-2.19
'0:14.941',-1.84
'0:14.945',-1.4
'0:14.949',-0.84
'0:14.953',-0.65
'0:14.957',-0.5
'0:14.961',-0.2
'0:14.965',0.22
'0:14.969',0.77
'0:14.973',1.21
'0:14.977',1.55
'0:14.980',2
'0:14.984',1.93
'0:14.988',1.78
'0:14.992',1.91
'0:14.996',1.95
'0:15.000',2.25
'0:15.004',2.82
'0:15.008',3.82
'0:15.012',4.65
'0:15.016',5.22
'0:15.020',5.68
'0:15.023',5.71
'0:15.027',5.58
'0:15.031',5.54
'0:15.035',5.38
'0:15.039',4.88
'0:15.043',4.11
'0:15.047',3.62
'0:15.051',3.49
'0:15.055',3.29
'0:15.059',3.12
'0:15.063',2.86
'0:15.066',2.78
'0:15.070',2.7
'0:15.074',2.38
'0:15.078',2.06
'0:15.082',2.22
'0:15.086',2.38
'0:15.090',2.39
'0:15.094',2.14
'0:15.098',1.66
'0:15.102',1.22
'0:15.105',1.07
'0:15.109',0.96
'0:15.113',0.7
'0:15.117',0.2
'0:15.121',0.06
'0:15.125',0.05
'0:15.129',-0.17
'0:15.133',-0.61
'0:15.137',-0.8
'0:15.141',-0.58
'0:15.145',-0.42
'0:15.148',-0.23
'0:15.152',-0.11
'0:15.156',-0.04
'0:15.160',0.21
'0:15.164',0.21
'0:15.168',-0.53
'0:15.172',-0.88
'0:15.176',-1.32
'0:15.180',-1.63
'0:15.184',-1.59
'0:15.188',-1.13
'0:15.191',0.42
'0:15.195',3.58
'0:15.199',6.62
'0:15.203',8.41
'0:15.207',7.66
'0:15.211',4.49
'0:15.215',1.09
'0:15.219',-1.4
'0:15.223',-2.77
'0:15.227',-3.39
'0:15.230',-3.73
'0:15.234',-2.94
'0:15.238',-2.43
'0:15.242',-2.7
'0:15.246',-2.26
'0:15.250',-1.27
'0:15.254',-1.68
'0:15.258',-1.67
'0:15.262',-0.68
'0:15.266',-0.17
'0:15.270',-0.65
'0:15.273',-1.38
'0:15.277',-2.22
'0:15.281',-2.25
'0:15.285',-1.49
'0:15.289',0
'0:15.293',0.99
'0:15.297',1.42
'0:15.301',1.37
'0:15.305',1.12
'0:15.309',1.41
'0:15.313',1.87
'0:15.316',2.42
'0:15.320',3.16
'0:15.324',4.08
'0:15.328',4.73
'0:15.332',4.73
'0:15.336',4.21
'0:15.340',3.84
'0:15.344',3.94
'0:15.348',3.51
'0:15.352',2.92
'0:15.355',2.44
'0:15.359',2.22
'0:15.363',2.08
'0:15.367',2.11
'0:15.371',2.15
'0:15.375',2.22
'0:15.379',2.04
'0:15.383',1.12
'0:15.387',0.13
'0:15.391',0.06
'0:15.395',0.57
'0:15.398',0.81
'0:15.402',0.85
'0:15.406',0.27
'0:15.410',0.08
'0:15.414',0.19
'0:15.418',-0.37
'0:15.422',-0.75
'0:15.426',-0.79
'0:15.430',-0.51
'0:15.434',-0.68
'0:15.438',-1.19
'0:15.441',-1.78
'0:15.445',-1.85
'0:15.449',-2
'0:15.453',-2.39
'0:15.457',-2.31
'0:15.461',-2.24
'0:15.465',-2.44
'0:15.469',-2.83
'0:15.473',-3.23
'0:15.477',-3.56
'0:15.480',-3.66
'0:15.484',-3.77
'0:15.488',-3.56
'0:15.492',-3.16
'0:15.496',-2.28
'0:15.500',-0.59
'0:15.504',2.21
'0:15.508',5.43
'0:15.512',7.65
'0:15.516',7.45
'0:15.520',4.69
'0:15.523',0.72
'0:15.527',-2.92
'0:15.531',-5.77
'0:15.535',-7.17
'0:15.539',-7.14
'0:15.543',-6.3
'0:15.547',-5.44
'0:15.551',-4.49
'0:15.555',-3.77
'0:15.559',-3.35
'0:15.563',-3.16
'0:15.566',-3.06
'0:15.570',-3.01
'0:15.574',-3.02
'0:15.578',-2.94
'0:15.582',-2.62
'0:15.586',-2.13
'0:15.590',-1.62
'0:15.594',-1.48
'0:15.598',-1.48
'0:15.602',-1.64
'0:15.605',-1.84
'0:15.609',-1.67
'0:15.613',-1.32
'0:15.617',-0.97
'0:15.621',-0.65
'0:15.625',-0.22
'0:15.629',0.27
'0:15.633',0.81
'0:15.637',1.22
'0:15.641',1.29
'0:15.645',1.16
'0:15.648',1.21
'0:15.652',1.67
'0:15.656',2.08
'0:15.660',1.98
'0:15.664',1.64
'0:15.668',1.12
'0:15.672',1.07
'0:15.676',0.77
'0:15.680',0.19
'0:15.684',-0.22
'0:15.688',-0.51
'0:15.691',-0.7
'0:15.695',-0.69
'0:15.699',-0.68
'0:15.703',-0.77
'0:15.707',-0.63
'0:15.711',-0.29
'0:15.715',-0.14
'0:15.719',-0.31
'0:15.723',-0.63
'0:15.727',-1.26
'0:15.730',-1.68
'0:15.734',-2.07
'0:15.738',-2.12
'0:15.742',-2.11
'0:15.746',-2.13
'0:15.750',-2.4
'0:15.754',-2.53
'0:15.758',-2.78
'0:15.762',-3.21
'0:15.766',-3.66
'0:15.770',-3.94
'0:15.773',-4.04
'0:15.777',-3.95
'0:15.781',-4.31
'0:15.785',-4.5
'0:15.789',-4.34
'0:15.793',-4.44
'0:15.797',-4.85
'0:15.801',-4.95
'0:15.805',-4.59
'0:15.809',-3.88
'0:15.813',-2.29
'0:15.816',0.33
'0:15.820',3.37
'0:15.824',5.75
'0:15.828',6.02
'0:15.832',3.68
'0:15.836',-0.23
'0:15.840',-3.84
'0:15.844',-6.15
'0:15.848',-7.41
'0:15.852',-7.78
'0:15.855',-6.75
'0:15.859',-5.56
'0:15.863',-4.98
'0:15.867',-4.2
'0:15.871',-3.02
'0:15.875',-1.73
'0:15.879',-0.84
'0:15.883',-0.94
'0:15.887',-0.78
'0:15.891',-0.23
'0:15.895',0.48
'0:15.898',1.01
'0:15.902',1.17
'0:15.906',1.05
'0:15.910',1.06
'0:15.914',1.21
'0:15.918',1.99
'0:15.922',2.61
'0:15.926',2.65
'0:15.930',2.51
'0:15.934',2.76
'0:15.938',2.79
'0:15.941',2.36
'0:15.945',2.01
'0:15.949',2.71
'0:15.953',3.94
'0:15.957',4.44
'0:15.961',4.08
'0:15.965',3.6
'0:15.969',3.23
'0:15.973',2.43
'0:15.977',1.78
'0:15.980',2.17
'0:15.984',2.57
'0:15.988',2.6
'0:15.992',2.11
'0:15.996',1.79
'0:16.000',1.71
'0:16.004',1.63
'0:16.008',1.24
'0:16.012',0.93
'0:16.016',1.15
'0:16.020',1.37
'0:16.023',1.39
'0:16.027',1.08
'0:16.031',1.18
'0:16.035',1.44
'0:16.039',1.65
'0:16.043',1.63
'0:16.047',1.35
'0:16.051',1.99
'0:16.055',2.58
'0:16.059',1.64
'0:16.063',0.77
'0:16.066',0.12
'0:16.070',-0.71
'0:16.074',-1.54
'0:16.078',-1.45
'0:16.082',-0.27
'0:16.086',0.16
'0:16.090',-0.04
'0:16.094',-0.04
'0:16.098',0.09
'0:16.102',-0.13
'0:16.105',0.76
'0:16.109',1.29
'0:16.113',0.42
'0:16.117',-0.62
'0:16.121',0.45
'0:16.125',2.73
'0:16.129',5.76
'0:16.133',7.53
'0:16.137',10.46
'0:16.141',9.89
'0:16.145',6.71
'0:16.148',2.76
'0:16.152',0.31
'0:16.156',-1.79
'0:16.160',-3.74
'0:16.164',-4.16
'0:16.168',-3.67
'0:16.172',-2.94
'0:16.176',-1.48
'0:16.180',-0.63
'0:16.184',-1.21
'0:16.188',-2.67
'0:16.191',-3.63
'0:16.195',-3.46
'0:16.199',-2.32
'0:16.203',-1.12
'0:16.207',0.2
'0:16.211',1.25
'0:16.215',0.93
'0:16.219',-0.33
'0:16.223',-1.17
'0:16.227',-0.94
'0:16.230',-0.25
'0:16.234',0.48
'0:16.238',1.08
'0:16.242',1.39
'0:16.246',1.54
'0:16.250',1.68
'0:16.254',1.76
'0:16.258',2.08
'0:16.262',2.29
'0:16.266',2.2
'0:16.270',2.43
'0:16.273',2.86
'0:16.277',2.98
'0:16.281',2.69
'0:16.285',2.45
'0:16.289',2.17
'0:16.293',1.81
'0:16.297',1.55
'0:16.301',1.09
'0:16.305',0.46
'0:16.309',-0.05
'0:16.313',-0.82
'0:16.316',-1.12
'0:16.320',-0.65
'0:16.324',-0.12
'0:16.328',-0.32
'0:16.332',-0.81
'0:16.336',-1.02
'0:16.340',-1.09
'0:16.344',-1.23
'0:16.348',-1.34
'0:16.352',-1.46
'0:16.355',-1.68
'0:16.359',-1.78
'0:16.363',-1.97
'0:16.367',-1.99
'0:16.371',-2.02
'0:16.375',-1.71
'0:16.379',-1.28
'0:16.383',-1.39
'0:16.387',-1.95
'0:16.391',-2.74
'0:16.395',-3.27
'0:16.398',-3.35
'0:16.402',-3.06
'0:16.406',-2.92
'0:16.410',-2.82
'0:16.414',-2.73
'0:16.418',-3.07
'0:16.422',-3.17
'0:16.426',-2.96
'0:16.430',-2.49
'0:16.434',-1.86
'0:16.438',-0.36
'0:16.441',2.67
'0:16.445',5.77
'0:16.449',7.25
'0:16.453',5.92
'0:16.457',2.59
'0:16.461',-1.07
'0:16.465',-4.08
'0:16.469',-6.12
'0:16.473',-6.72
'0:16.477',-6.18
'0:16.480',-5.17
'0:16.484',-4.26
'0:16.488',-3.87
'0:16.492',-3.67
'0:16.496',-2.88
'0:16.500',-1.89
'0:16.504',-1.01
'0:16.508',0.02
'0:16.512',0.7
'0:16.516',0.69
'0:16.520',0.96
'0:16.523',1.44
'0:16.527',1.82
'0:16.531',2.4
'0:16.535',2.61
'0:16.539',2.51
'0:16.543',2.49
'0:16.547',2.6
'0:16.551',2.35
'0:16.555',2.01
'0:16.559',2.68
'0:16.563',3.56
'0:16.566',3.34
'0:16.570',2.94
'0:16.574',3.38
'0:16.578',4.04
'0:16.582',3.85
'0:16.586',3.53
'0:16.590',3.26
'0:16.594',3.17
'0:16.598',2.69
'0:16.602',2.27
'0:16.605',1.67
'0:16.609',1.19
'0:16.613',0.72
'0:16.617',0.32
'0:16.621',0.2
'0:16.625',-0.16
'0:16.629',-0.28
'0:16.633',-0.13
'0:16.637',-0.02
'0:16.641',-0.13
'0:16.645',-0.49
'0:16.648',-0.7
'0:16.652',-0.63
'0:16.656',-0.63
'0:16.660',-0.91
'0:16.664',-1.42
'0:16.668',-1.33
'0:16.672',-0.92
'0:16.676',-0.92
'0:16.680',-1.32
'0:16.684',-1.9
'0:16.688',-2.21
'0:16.691',-2.15
'0:16.695',-1.96
'0:16.699',-1.85
'0:16.703',-2.1
'0:16.707',-2.43
'0:16.711',-2.58
'0:16.715',-2.41
'0:16.719',-2.17
'0:16.723',-1.76
'0:16.727',-1.7
'0:16.730',-1.9
'0:16.734',-2.21
'0:16.738',-2.16
'0:16.742',-1.6
'0:16.746',-0.52
'0:16.750',2.05
'0:16.754',5.32
'0:16.758',7.72
'0:16.762',7.96
'0:16.766',5.84
'0:16.770',1.96
'0:16.773',-2.13
'0:16.777',-5.02
'0:16.781',-6.61
'0:16.785',-7.08
'0:16.789',-6.75
'0:16.793',-5.75
'0:16.797',-4.76
'0:16.801',-4.17
'0:16.805',-3.79
'0:16.809',-3.48
'0:16.813',-3.25
'0:16.816',-2.82
'0:16.820',-2.41
'0:16.824',-2.31
'0:16.828',-2.38
'0:16.832',-2.15
'0:16.836',-1.8
'0:16.840',-1.72
'0:16.844',-1.75
'0:16.848',-1.98
'0:16.852',-1.99
'0:16.855',-1.72
'0:16.859',-1.4
'0:16.863',-0.96
'0:16.867',-0.54
'0:16.871',0.04
'0:16.875',0.85
'0:16.879',1.36
'0:16.883',1.63
'0:16.887',1.71
'0:16.891',1.72
'0:16.895',1.9
'0:16.898',2.23
'0:16.902',2.19
'0:16.906',1.99
'0:16.910',2.06
'0:16.914',1.94
'0:16.918',1.38
'0:16.922',0.99
'0:16.926',1.06
'0:16.930',1.42
'0:16.934',1.3
'0:16.938',1.05
'0:16.941',1.07
'0:16.945',0.91
'0:16.949',1.54
'0:16.953',2.52
'0:16.957',2.36
'0:16.961',2.05
'0:16.965',2.03
'0:16.969',1.58
'0:16.973',1.28
'0:16.977',1.4
'0:16.980',0.94
'0:16.984',-0.16
'0:16.988',-0.98
'0:16.992',-0.68
'0:16.996',0.36
'0:17.000',0.23
'0:17.004',-0.09
'0:17.008',-0.11
'0:17.012',-0.16
'0:17.016',-0.15
'0:17.020',0.33
'0:17.023',0.43
'0:17.027',-0.15
'0:17.031',-0.56
'0:17.035',-0.94
'0:17.039',-0.98
'0:17.043',-1.31
'0:17.047',-1.12
'0:17.051',-0.7
'0:17.055',-0.34
'0:17.059',0.82
'0:17.063',2.91
'0:17.066',6.05
'0:17.070',8.87
'0:17.074',9.73
'0:17.078',7.29
'0:17.082',3.25
'0:17.086',0.11
'0:17.090',-2.03
'0:17.094',-3.4
'0:17.098',-3.96
'0:17.102',-4.01
'0:17.105',-3.29
'0:17.109',-2.71
'0:17.113',-2.85
'0:17.117',-2.74
'0:17.121',-2.3
'0:17.125',-2.13
'0:17.129',-1.64
'0:17.133',-0.85
'0:17.137',-0.92
'0:17.141',-1.04
'0:17.145',-0.39
'0:17.148',0.5
'0:17.152',0.94
'0:17.156',0.93
'0:17.160',1.06
'0:17.164',1.47
'0:17.168',1.96
'0:17.172',1.94
'0:17.176',1.71
'0:17.180',1.61
'0:17.184',1.46
'0:17.188',1.59
'0:17.191',1.86
'0:17.195',2.13
'0:17.199',2.4
'0:17.203',2.72
'0:17.207',2.81
'0:17.211',2.43
'0:17.215',1.84
'0:17.219',1.19
'0:17.223',1.02
'0:17.227',1.14
'0:17.230',1.36
'0:17.234',1.2
'0:17.238',0.81
'0:17.242',0.43
'0:17.246',0.34
'0:17.250',0.45
'0:17.254',0.39
'0:17.258',0
'0:17.262',-0.18
'0:17.266',-0.33
'0:17.270',-0.29
'0:17.273',-0.54
'0:17.277',-1.22
'0:17.281',-1.33
'0:17.285',-0.76
'0:17.289',-0.17
'0:17.293',-0.44
'0:17.297',-0.71
'0:17.301',-0.84
'0:17.305',-0.65
'0:17.309',-0.35
'0:17.313',0.15
'0:17.316',0.22
'0:17.320',-0.25
'0:17.324',-0.94
'0:17.328',-1.24
'0:17.332',-1.41
'0:17.336',-1.4
'0:17.340',-1.21
'0:17.344',-1.32
'0:17.348',-1.71
'0:17.352',-2.01
'0:17.355',-1.87
'0:17.359',-1.51
'0:17.363',-0.53
'0:17.367',0.73
'0:17.371',3.02
'0:17.375',5.89
'0:17.379',7.94
'0:17.383',8.23
'0:17.387',6.14
'0:17.391',2.16
'0:17.395',-2.36
'0:17.398',-5.72
'0:17.402',-7.18
'0:17.406',-6.59
'0:17.410',-5.23
'0:17.414',-3.79
'0:17.418',-2.23
'0:17.422',-1.03
'0:17.426',-0.55
'0:17.430',-0.44
'0:17.434',-0.48
'0:17.438',-0.77
'0:17.441',-1.28
'0:17.445',-2.03
'0:17.449',-3.3
'0:17.453',-3.06
'0:17.457',-1.32
'0:17.461',0.42
'0:17.465',1.36
'0:17.469',1.79
'0:17.473',0.68
'0:17.477',0
'0:17.480',0.31
'0:17.484',0.71
'0:17.488',1.09
'0:17.492',1.69
'0:17.496',2.24
'0:17.500',2.89
'0:17.504',3.21
'0:17.508',2.51
'0:17.512',1.65
'0:17.516',1.71
'0:17.520',2.36
'0:17.523',2.84
'0:17.527',2.82
'0:17.531',2.33
'0:17.535',1.53
'0:17.539',1.03
'0:17.543',1.13
'0:17.547',1.25
'0:17.551',1.38
'0:17.555',1.64
'0:17.559',1.99
'0:17.563',2.37
'0:17.566',2.55
'0:17.570',2.34
'0:17.574',2.11
'0:17.578',2.22
'0:17.582',2.37
'0:17.586',2.44
'0:17.590',2.54
'0:17.594',2.58
'0:17.598',2.46
'0:17.602',2.12
'0:17.605',1.62
'0:17.609',1.22
'0:17.613',1.04
'0:17.617',1
'0:17.621',0.93
'0:17.625',0.72
'0:17.629',0.36
'0:17.633',-0.08
'0:17.637',-0.52
'0:17.641',-0.8
'0:17.645',-0.8
'0:17.648',-0.65
'0:17.652',-0.8
'0:17.656',-1
'0:17.660',-1.08
'0:17.664',-1.43
'0:17.668',-1.93
'0:17.672',-1.7
'0:17.676',-0.39
'0:17.680',1.72
'0:17.684',4.48
'0:17.688',6.94
'0:17.691',7.85
'0:17.695',6.34
'0:17.699',2.83
'0:17.703',-1.09
'0:17.707',-4.13
'0:17.711',-6.07
'0:17.715',-7.21
'0:17.719',-7.77
'0:17.723',-7.32
'0:17.727',-5.85
'0:17.730',-4.54
'0:17.734',-4.27
'0:17.738',-4.38
'0:17.742',-4.11
'0:17.746',-3.9
'0:17.750',-3.59
'0:17.754',-3.01
'0:17.758',-2.63
'0:17.762',-2.58
'0:17.766',-2.52
'0:17.770',-2.53
'0:17.773',-2.58
'0:17.777',-2.42
'0:17.781',-1.86
'0:17.785',-1.14
'0:17.789',-0.43
'0:17.793',0.09
'0:17.797',0.37
'0:17.801',0.26
'0:17.805',0.14
'0:17.809',0.4
'0:17.813',0.87
'0:17.816',1.16
'0:17.820',0.67
'0:17.824',0.35
'0:17.828',0.67
'0:17.832',1.08
'0:17.836',1.27
'0:17.840',1.01
'0:17.844',0.55
'0:17.848',0.12
'0:17.852',-0.27
'0:17.855',-0.67
'0:17.859',-0.58
'0:17.863',-0.85
'0:17.867',-1.47
'0:17.871',-1.88
'0:17.875',-1.9
'0:17.879',-1.38
'0:17.883',-0.97
'0:17.887',-1.02
'0:17.891',-0.95
'0:17.895',-0.41
'0:17.898',-0.76
'0:17.902',-1.56
'0:17.906',-2.09
'0:17.910',-2.01
'0:17.914',-2.2
'0:17.918',-2.36
'0:17.922',-2.04
'0:17.926',-1.75
'0:17.930',-2.13
'0:17.934',-2.73
'0:17.938',-2.85
'0:17.941',-2.92
'0:17.945',-3.03
'0:17.949',-2.65
'0:17.953',-2.34
'0:17.957',-2.64
'0:17.961',-2.72
'0:17.965',-2.14
'0:17.969',-1.78
'0:17.973',-1.84
'0:17.977',-1.55
'0:17.980',-1.79
'0:17.984',-2.14
'0:17.988',-1.34
'0:17.992',0.84
'0:17.996',3.39
'0:18.000',6.08
'0:18.004',8.49
'0:18.008',8.45
'0:18.012',5.4
'0:18.016',1.06
'0:18.020',-2.55
'0:18.023',-4.96
'0:18.027',-5.74
'0:18.031',-5.41
'0:18.035',-4.86
'0:18.039',-4.19
'0:18.043',-3.38
'0:18.047',-2.64
'0:18.051',-1.86
'0:18.055',-0.84
'0:18.059',-0.29
'0:18.063',-0.36
'0:18.066',-0.43
'0:18.070',-0.38
'0:18.074',-0.26
'0:18.078',-0.28
'0:18.082',-0.08
'0:18.086',0.23
'0:18.090',0.19
'0:18.094',0.1
'0:18.098',0.18
'0:18.102',0.32
'0:18.105',0.37
'0:18.109',0.52
'0:18.113',0.91
'0:18.117',1.52
'0:18.121',2.2
'0:18.125',2.89
'0:18.129',3.24
'0:18.133',3.24
'0:18.137',3.24
'0:18.141',3.24
'0:18.145',3.24
'0:18.148',3.25
'0:18.152',1.65
'0:18.156',1.28
'0:18.160',0.95
'0:18.164',0.92
'0:18.168',0.88
'0:18.172',0.86
'0:18.176',0.9
'0:18.180',0.65
'0:18.184',0.25
'0:18.188',0.3
'0:18.191',0.5
'0:18.195',0.27
'0:18.199',-0.5
'0:18.203',-0.92
'0:18.207',-0.74
'0:18.211',-0.33
'0:18.215',0.07
'0:18.219',0.67
'0:18.223',1.2
'0:18.227',0.95
'0:18.230',-0.02
'0:18.234',-0.87
'0:18.238',-1.39
'0:18.242',-1.63
'0:18.246',-1.68
'0:18.250',-1.5
'0:18.254',-1.32
'0:18.258',-1.43
'0:18.262',-1.58
'0:18.266',-1.35
'0:18.270',-1.27
'0:18.273',-1.72
'0:18.277',-2.4
'0:18.281',-2.68
'0:18.285',-2.63
'0:18.289',-2.37
'0:18.293',-1.77
'0:18.297',-0.47
'0:18.301',1.91
'0:18.305',4.47
'0:18.309',6.85
'0:18.313',7.69
'0:18.316',5.9
'0:18.320',2.15
'0:18.324',-1.32
'0:18.328',-3.46
'0:18.332',-4.55
'0:18.336',-4.86
'0:18.340',-3.92
'0:18.344',-2.18
'0:18.348',-1.39
'0:18.352',-1.47
'0:18.355',-1.72
'0:18.359',-2.39
'0:18.363',-2.89
'0:18.367',-3.23
'0:18.371',-2.56
'0:18.375',-1.44
'0:18.379',-0.23
'0:18.383',0.16
'0:18.387',-0.57
'0:18.391',-0.75
'0:18.395',-0.25
'0:18.398',0.2
'0:18.402',0.27
'0:18.406',0.49
'0:18.410',0.5
'0:18.414',0.54
'0:18.418',1.12
'0:18.422',2.07
'0:18.426',2.74
'0:18.430',2.9
'0:18.434',2.91
'0:18.438',3.16
'0:18.441',3.52
'0:18.445',3.81
'0:18.449',3.64
'0:18.453',2.81
'0:18.457',2.44
'0:18.461',2.49
'0:18.465',2.38
'0:18.469',2.26
'0:18.473',2.28
'0:18.477',2.49
'0:18.480',2.78
'0:18.484',2.85
'0:18.488',2.78
'0:18.492',2.34
'0:18.496',1.55
'0:18.500',1.48
'0:18.504',1.97
'0:18.508',2.19
'0:18.512',2.25
'0:18.516',1.53
'0:18.520',0.34
'0:18.523',0.32
'0:18.527',1.38
'0:18.531',2.43
'0:18.535',2.67
'0:18.539',2.09
'0:18.543',1.33
'0:18.547',0.75
'0:18.551',0.57
'0:18.555',0.81
'0:18.559',0.68
'0:18.563',0.38
'0:18.566',0.33
'0:18.570',0.05
'0:18.574',-0.27
'0:18.578',-0.43
'0:18.582',-0.13
'0:18.586',0.28
'0:18.590',0.15
'0:18.594',-0.21
'0:18.598',-0.57
'0:18.602',-0.59
'0:18.605',0.3
'0:18.609',2.15
'0:18.613',4.88
'0:18.617',7.91
'0:18.621',10
'0:18.625',10.19
'0:18.629',7.47
'0:18.633',3.03
'0:18.637',-0.8
'0:18.641',-3.3
'0:18.645',-4.52
'0:18.648',-4.97
'0:18.652',-4.78
'0:18.656',-3.9
'0:18.660',-2.96
'0:18.664',-2.19
'0:18.668',-1.48
'0:18.672',-0.76
'0:18.676',-0.33
'0:18.680',-0.14
'0:18.684',0
'0:18.688',0
'0:18.691',0
'0:18.695',0
'0:18.699',0
'0:18.703',0
'0:18.707',0.43
'0:18.711',0.55
'0:18.715',0.48
'0:18.719',0.38
'0:18.723',0.25
'0:18.727',0.38
'0:18.730',0.64
'0:18.734',0.64
'0:18.738',0.89
'0:18.742',1.31
'0:18.746',1.76
'0:18.750',2.21
'0:18.754',2.37
'0:18.758',2.1
'0:18.762',1.78
'0:18.766',1.54
'0:18.770',1.14
'0:18.773',0.75
'0:18.777',0.45
'0:18.781',0.15
'0:18.785',-0.23
'0:18.789',-0.94
'0:18.793',-1.2
'0:18.797',-1.07
'0:18.801',-1.17
'0:18.805',-1.13
'0:18.809',-0.94
'0:18.813',-1.05
'0:18.816',-1.07
'0:18.820',-0.88
'0:18.824',-1.04
'0:18.828',-1.09
'0:18.832',-1.43
'0:18.836',-2.01
'0:18.840',-2.21
'0:18.844',-2.2
'0:18.848',-2.3
'0:18.852',-2.53
'0:18.855',-2.81
'0:18.859',-3.18
'0:18.863',-3.41
'0:18.867',-3.38
'0:18.871',-3.45
'0:18.875',-3.25
'0:18.879',-2.82
'0:18.883',-2.68
'0:18.887',-2.68
'0:18.891',-2.68
'0:18.895',-2.68
'0:18.898',-2.68
'0:18.902',-3.67
'0:18.906',-3.22
'0:18.910',-2.94
'0:18.914',-2.69
'0:18.918',-2.11
'0:18.922',-1.01
'0:18.926',1.43
'0:18.930',1.66
'0:18.934',1.66
'0:18.938',4.42
'0:18.941',3.17
'0:18.945',1.15
'0:18.949',-2.29
'0:18.953',-4.96
'0:18.957',-6.55
'0:18.961',-7.37
'0:18.965',-7.53
'0:18.969',-6.74
'0:18.973',-5.54
'0:18.977',-4.63
'0:18.980',-4.05
'0:18.984',-3.81
'0:18.988',-3.64
'0:18.992',-3.43
'0:18.996',-3.01
'0:19.000',-2.51
'0:19.004',-1.85
'0:19.008',-1.14
'0:19.012',-0.98
'0:19.016',-1.48
'0:19.020',-1.97
'0:19.023',-1.93
'0:19.027',-1.42
'0:19.031',-1.18
'0:19.035',-0.92
'0:19.039',-0.73
'0:19.043',-0.72
'0:19.047',-0.61
'0:19.051',-0.07
'0:19.055',0.83
'0:19.059',1.37
'0:19.063',1.62
'0:19.066',1.43
'0:19.070',0.91
'0:19.074',0.62
'0:19.078',0.75
'0:19.082',0.94
'0:19.086',1.07
'0:19.090',0.53
'0:19.094',-0.25
'0:19.098',-0.53
'0:19.102',-0.23
'0:19.105',-0.34
'0:19.109',-0.53
'0:19.113',-0.18
'0:19.117',0.29
'0:19.121',0.14
'0:19.125',-0.41
'0:19.129',-0.71
'0:19.133',-0.82
'0:19.137',-1.21
'0:19.141',-1.41
'0:19.145',-0.91
'0:19.148',-0.35
'0:19.152',-0.22
'0:19.156',-0.65
'0:19.160',-1.14
'0:19.164',-1.09
'0:19.168',-1.02
'0:19.172',-1.55
'0:19.176',-1.9
'0:19.180',-1.82
'0:19.184',-1.53
'0:19.188',-1.34
'0:19.191',-1.06
'0:19.195',-0.94
'0:19.199',-0.92
'0:19.203',-0.94
'0:19.207',-0.98
'0:19.211',-0.71
'0:19.215',-0.41
'0:19.219',-0.12
'0:19.223',0.15
'0:19.227',0.21
'0:19.230',0.63
'0:19.234',2.06
'0:19.238',4.88
'0:19.242',8.23
'0:19.246',10.33
'0:19.250',9.44
'0:19.254',5.82
'0:19.258',1.31
'0:19.262',-2.04
'0:19.266',-4.18
'0:19.270',-5.16
'0:19.273',-5.02
'0:19.277',-4.09
'0:19.281',-3.09
'0:19.285',-2.02
'0:19.289',-1.15
'0:19.293',-0.73
'0:19.297',-0.96
'0:19.301',-1.39
'0:19.305',-1.17
'0:19.309',-0.48
'0:19.313',0.3
'0:19.316',0.59
'0:19.320',0.41
'0:19.324',0.34
'0:19.328',0.86
'0:19.332',1.66
'0:19.336',2.33
'0:19.340',2.47
'0:19.344',2.02
'0:19.348',1.68
'0:19.352',2.13
'0:19.355',2.87
'0:19.359',3.41
'0:19.363',4.04
'0:19.367',4.46
'0:19.371',4.45
'0:19.375',4.2
'0:19.379',4.2
'0:19.383',4.06
'0:19.387',3.67
'0:19.391',3.38
'0:19.395',3.31
'0:19.398',3.12
'0:19.402',2.99
'0:19.406',2.78
'0:19.410',2.42
'0:19.414',2.08
'0:19.418',2.23
'0:19.422',2.31
'0:19.426',2.41
'0:19.430',2.4
'0:19.434',2.56
'0:19.438',2.42
'0:19.441',2.27
'0:19.445',2.31
'0:19.449',2.19
'0:19.453',1.87
'0:19.457',1.52
'0:19.461',1.33
'0:19.465',1.19
'0:19.469',1.01
'0:19.473',0.96
'0:19.477',1.06
'0:19.480',1.18
'0:19.484',1.18
'0:19.488',0.85
'0:19.492',0.3
'0:19.496',-0.31
'0:19.500',-0.65
'0:19.504',-0.95
'0:19.508',-1.03
'0:19.512',-0.83
'0:19.516',-0.7
'0:19.520',-0.69
'0:19.523',-0.38
'0:19.527',-0.58
