'0:00.000',2.27
'0:00.004',2.32
'0:00.008',2.9
'0:00.012',2.93
'0:00.016',3.08
'0:00.020',3.43
'0:00.023',3.63
'0:00.027',3.63
'0:00.031',3.54
'0:00.035',3.42
'0:00.039',3.2
'0:00.043',2.8
'0:00.047',2.79
'0:00.051',3.09
'0:00.055',3.51
'0:00.059',3.81
'0:00.063',4.1
'0:00.066',4.24
'0:00.070',4.26
'0:00.074',4.07
'0:00.078',3.63
'0:00.082',3.24
'0:00.086',3.28
'0:00.090',3.47
'0:00.094',3.59
'0:00.098',3.57
'0:00.102',3.72
'0:00.105',3.23
'0:00.109',2.57
'0:00.113',2.34
'0:00.117',1.87
'0:00.121',1.41
'0:00.125',1.1
'0:00.129',0.56
'0:00.133',0.13
'0:00.137',-0.1
'0:00.141',-0.3
'0:00.145',-0.41
'0:00.148',-0.41
'0:00.152',-0.41
'0:00.156',-1.46
'0:00.160',-1.92
'0:00.164',-2.44
'0:00.168',-2.56
'0:00.172',-3.05
'0:00.176',-3.47
'0:00.180',-3.83
'0:00.184',-3.73
'0:00.188',-3.56
'0:00.191',-3.81
'0:00.195',-3.87
'0:00.199',-3.87
'0:00.203',-3.8
'0:00.207',-3.78
'0:00.211',-3.7
'0:00.215',-3.79
'0:00.219',-3.85
'0:00.223',-3.51
'0:00.227',-2.35
'0:00.230',-0.39
'0:00.234',2.46
'0:00.238',5.63
'0:00.242',8.54
'0:00.246',10.38
'0:00.250',8.98
'0:00.254',3.64
'0:00.258',-2.31
'0:00.262',-6.81
'0:00.266',-9.32
'0:00.270',-10.68
'0:00.273',-11.21
'0:00.277',-11.44
'0:00.281',-10.88
'0:00.285',-9.45
'0:00.289',-7.48
'0:00.293',-5.58
'0:00.297',-3.95
'0:00.301',-2.72
'0:00.305',-1.93
'0:00.309',-1.17
'0:00.313',-0.52
'0:00.316',-0.27
'0:00.320',-0.1
'0:00.324',0.16
'0:00.328',0.57
'0:00.332',0.91
'0:00.336',1.08
'0:00.340',1.22
'0:00.344',1.34
'0:00.348',1.35
'0:00.352',1.34
'0:00.355',1.48
'0:00.359',1.81
'0:00.363',2.3
'0:00.367',2.59
'0:00.371',2.7
'0:00.375',2.86
'0:00.379',3.13
'0:00.383',3.24
'0:00.387',3.15
'0:00.391',3.21
'0:00.395',3.18
'0:00.398',3.13
'0:00.402',3.23
'0:00.406',3.25
'0:00.410',3.09
'0:00.414',2.89
'0:00.418',2.67
'0:00.422',2.42
'0:00.426',2.18
'0:00.430',1.95
'0:00.434',1.49
'0:00.438',1.27
'0:00.441',1.19
'0:00.445',1.12
'0:00.449',0.74
'0:00.453',0.37
'0:00.457',0.08
'0:00.461',0.09
'0:00.465',0.2
'0:00.469',-0.02
'0:00.473',-0.25
'0:00.477',-0.47
'0:00.480',-0.77
'0:00.484',-1.24
'0:00.488',-1.6
'0:00.492',-2.03
'0:00.496',-2.44
'0:00.500',-2.6
'0:00.504',-2.72
'0:00.508',-2.77
'0:00.512',-2.93
'0:00.516',-3.04
'0:00.520',-3.08
'0:00.523',-3.17
'0:00.527',-3.06
'0:00.531',-2.71
'0:00.535',-1.97
'0:00.539',-0.74
'0:00.543',1.06
'0:00.547',3.4
'0:00.551',6.17
'0:00.555',8.22
'0:00.559',7.94
'0:00.563',3.85
'0:00.566',-2.48
'0:00.570',-7.41
'0:00.574',-10.22
'0:00.578',-11.25
'0:00.582',-11.34
'0:00.586',-10.85
'0:00.590',-9.85
'0:00.594',-8.38
'0:00.598',-6.54
'0:00.602',-4.66
'0:00.605',-3.19
'0:00.609',-1.73
'0:00.613',-0.49
'0:00.617',0.51
'0:00.621',1.01
'0:00.625',1.21
'0:00.629',1.25
'0:00.633',1.28
'0:00.637',1.44
'0:00.641',1.51
'0:00.645',1.45
'0:00.648',1.35
'0:00.652',1.69
'0:00.656',2.14
'0:00.660',2.42
'0:00.664',2.34
'0:00.668',2.15
'0:00.672',2.23
'0:00.676',2.28
'0:00.680',2.45
'0:00.684',2.51
'0:00.688',2.55
'0:00.691',2.94
'0:00.695',4.03
'0:00.699',4.71
'0:00.703',4.67
'0:00.707',4.3
'0:00.711',3.63
'0:00.715',3.33
'0:00.719',4.08
'0:00.723',5.05
'0:00.727',5.14
'0:00.730',4.53
'0:00.734',3.38
'0:00.738',1.61
'0:00.742',1.18
'0:00.746',2.2
'0:00.750',2.86
'0:00.754',2.38
'0:00.758',1.82
'0:00.762',1.67
'0:00.766',1.32
'0:00.770',0.59
'0:00.773',-0.62
'0:00.777',-1.53
'0:00.781',-2.28
'0:00.785',-2.81
'0:00.789',-2.82
'0:00.793',-2.75
'0:00.797',-2.89
'0:00.801',-2.95
'0:00.805',-2.79
'0:00.809',-2.48
'0:00.813',-1.92
'0:00.816',-1.5
'0:00.820',-1.43
'0:00.824',-1.6
'0:00.828',-1.81
'0:00.832',-1.86
'0:00.836',-1.51
'0:00.840',-1.07
'0:00.844',-0.14
'0:00.848',1.81
'0:00.852',3.93
'0:00.855',5.76
'0:00.859',6.3
'0:00.863',3.79
'0:00.867',-1.81
'0:00.871',-7
'0:00.875',-10.02
'0:00.879',-11.26
'0:00.883',-11.3
'0:00.887',-10.87
'0:00.891',-9.96
'0:00.895',-8.02
'0:00.898',-5.8
'0:00.902',-3.78
'0:00.906',-2.08
'0:00.910',-0.69
'0:00.914',0.25
'0:00.918',0.74
'0:00.922',1.32
'0:00.926',2.11
'0:00.930',2.64
'0:00.934',2.85
'0:00.938',3.1
'0:00.941',3.13
'0:00.945',2.71
'0:00.949',2.62
'0:00.953',2.84
'0:00.957',2.9
'0:00.961',2.77
'0:00.965',2.84
'0:00.969',3.08
'0:00.973',3.3
'0:00.977',3.33
'0:00.980',3.27
'0:00.984',3.35
'0:00.988',3.52
'0:00.992',3.76
'0:00.996',4.08
'0:01.000',4.17
'0:01.004',4.12
'0:01.008',4.24
'0:01.012',4.66
'0:01.016',5.12
'0:01.020',5.33
'0:01.023',5.14
'0:01.027',4.86
'0:01.031',4.53
'0:01.035',3.99
'0:01.039',3.51
'0:01.043',3.07
'0:01.047',2.78
'0:01.051',2.43
'0:01.055',2.2
'0:01.059',1.88
'0:01.063',1.49
'0:01.066',1.16
'0:01.070',0.88
'0:01.074',0.46
'0:01.078',0.26
'0:01.082',0.13
'0:01.086',-0.12
'0:01.090',-0.56
'0:01.094',-1.19
'0:01.098',-1.87
'0:01.102',-2.66
'0:01.105',-3.07
'0:01.109',-3.26
'0:01.113',-3.31
'0:01.117',-2.92
'0:01.121',-2.52
'0:01.125',-2.48
'0:01.129',-2.49
'0:01.133',-2.64
'0:01.137',-2.89
'0:01.141',-2.83
'0:01.145',-2.69
'0:01.148',-2.29
'0:01.152',-1.21
'0:01.156',0.33
'0:01.160',2.73
'0:01.164',5.67
'0:01.168',8.27
'0:01.172',9.86
'0:01.176',8.84
'0:01.180',3.39
'0:01.184',-2.94
'0:01.188',-7.31
'0:01.191',-9.81
'0:01.195',-10.87
'0:01.199',-11.11
'0:01.203',-10.72
'0:01.207',-9.67
'0:01.211',-7.97
'0:01.215',-6.44
'0:01.219',-5.41
'0:01.223',-4.51
'0:01.227',-3.37
'0:01.230',-2.46
'0:01.234',-1.1
'0:01.238',0.19
'0:01.242',0.28
'0:01.246',-0.17
'0:01.250',-0.31
'0:01.254',-0.32
'0:01.258',-0.12
'0:01.262',-0.11
'0:01.266',0.27
'0:01.270',0.35
'0:01.273',-0.09
'0:01.277',-0.11
'0:01.281',0.35
'0:01.285',0.78
'0:01.289',1.17
'0:01.293',1.49
'0:01.297',1.7
'0:01.301',2.15
'0:01.305',1.98
'0:01.309',1.6
'0:01.313',1.49
'0:01.316',1.7
'0:01.320',2.25
'0:01.324',2.6
'0:01.328',2.41
'0:01.332',2.34
'0:01.336',2.5
'0:01.340',2.42
'0:01.344',2.27
'0:01.348',2.29
'0:01.352',2.16
'0:01.355',1.83
'0:01.359',1.52
'0:01.363',1.44
'0:01.367',1.27
'0:01.371',0.61
'0:01.375',-0.19
'0:01.379',-0.75
'0:01.383',-0.95
'0:01.387',-1.05
'0:01.391',-1.36
'0:01.395',-1.73
'0:01.398',-1.96
'0:01.402',-2.14
'0:01.406',-2.36
'0:01.410',-2.62
'0:01.414',-2.72
'0:01.418',-2.88
'0:01.422',-3.1
'0:01.426',-3.34
'0:01.430',-3.23
'0:01.434',-3.11
'0:01.438',-3.23
'0:01.441',-3.5
'0:01.445',-3.66
'0:01.449',-3.85
'0:01.453',-3.43
'0:01.457',-2.72
'0:01.461',-1.49
'0:01.465',0.4
'0:01.469',2.88
'0:01.473',5.5
'0:01.477',7.95
'0:01.480',9.9
'0:01.484',9.69
'0:01.488',5.58
'0:01.492',-1.18
'0:01.496',-6.72
'0:01.500',-9.99
'0:01.504',-11.32
'0:01.508',-11.2
'0:01.512',-10.8
'0:01.516',-10.13
'0:01.520',-8.62
'0:01.523',-6.88
'0:01.527',-5.25
'0:01.531',-3.75
'0:01.535',-2.43
'0:01.539',-1.43
'0:01.543',-0.53
'0:01.547',0.34
'0:01.551',0.66
'0:01.555',0.57
'0:01.559',0.74
'0:01.563',1.37
'0:01.566',2.01
'0:01.570',2.3
'0:01.574',2.24
'0:01.578',1.9
'0:01.582',1.33
'0:01.586',1.45
'0:01.590',1.72
'0:01.594',1.9
'0:01.598',2.33
'0:01.602',2.76
'0:01.605',3.3
'0:01.609',3.62
'0:01.613',3.26
'0:01.617',2.84
'0:01.621',2.8
'0:01.625',3.37
'0:01.629',4.33
'0:01.633',4.6
'0:01.637',4.33
'0:01.641',4.35
'0:01.645',4.66
'0:01.648',4.52
'0:01.652',3.72
'0:01.656',2.81
'0:01.660',2.03
'0:01.664',1.32
'0:01.668',1.36
'0:01.672',1.68
'0:01.676',1.26
'0:01.680',0.85
'0:01.684',0.98
'0:01.688',1.32
'0:01.691',1.39
'0:01.695',0.98
'0:01.699',0.28
'0:01.703',-0.73
'0:01.707',-1.5
'0:01.711',-2.06
'0:01.715',-2.65
'0:01.719',-3.07
'0:01.723',-3.02
'0:01.727',-2.96
'0:01.730',-3.15
'0:01.734',-3.38
'0:01.738',-3.82
'0:01.742',-3.26
'0:01.746',-1.7
'0:01.750',-0.8
'0:01.754',-0.73
'0:01.758',-1.03
'0:01.762',-1.11
'0:01.766',-0.3
'0:01.770',1.16
'0:01.773',2.83
'0:01.777',4.99
'0:01.781',7.63
'0:01.785',9.85
'0:01.789',9.77
'0:01.793',5.99
'0:01.797',-0.52
'0:01.801',-5.84
'0:01.805',-8.33
'0:01.809',-9.3
'0:01.813',-9.75
'0:01.816',-9.91
'0:01.820',-9.21
'0:01.824',-7.22
'0:01.828',-4.93
'0:01.832',-2.95
'0:01.836',-1.3
'0:01.840',0.07
'0:01.844',1.07
'0:01.848',1.79
'0:01.852',2.59
'0:01.855',3.11
'0:01.859',3.39
'0:01.863',3.24
'0:01.867',3.21
'0:01.871',3.2
'0:01.875',3.14
'0:01.879',3.34
'0:01.883',3.49
'0:01.887',3.63
'0:01.891',3.56
'0:01.895',3.77
'0:01.898',3.83
'0:01.902',3.96
'0:01.906',4.15
'0:01.910',4.28
'0:01.914',4.62
'0:01.918',4.74
'0:01.922',4.73
'0:01.926',4.7
'0:01.930',4.68
'0:01.934',4.79
'0:01.938',4.86
'0:01.941',5.01
'0:01.945',4.97
'0:01.949',4.82
'0:01.953',4.9
'0:01.957',4.72
'0:01.961',4.39
'0:01.965',3.58
'0:01.969',3.03
'0:01.973',2.6
'0:01.977',2.04
'0:01.980',1.63
'0:01.984',1.37
'0:01.988',0.89
'0:01.992',0.33
'0:01.996',0.04
'0:02.000',-0.22
'0:02.004',-0.49
'0:02.008',-0.73
'0:02.012',-1.26
'0:02.016',-1.95
'0:02.020',-2.71
'0:02.023',-3.28
'0:02.027',-3.64
'0:02.031',-3.78
'0:02.035',-3.62
'0:02.039',-3.66
'0:02.043',-3.88
'0:02.047',-3.99
'0:02.051',-4.04
'0:02.055',-4.02
'0:02.059',-3.92
'0:02.063',-3.99
'0:02.066',-3.72
'0:02.070',-3.25
'0:02.074',-2.48
'0:02.078',-1.33
'0:02.082',0.33
'0:02.086',2.69
'0:02.090',5.3
'0:02.094',7.43
'0:02.098',8.2
'0:02.102',5.6
'0:02.105',-0.26
'0:02.109',-6.1
'0:02.113',-9.92
'0:02.117',-11.67
'0:02.121',-12.24
'0:02.125',-12.2
'0:02.129',-11.59
'0:02.133',-10.37
'0:02.137',-8.99
'0:02.141',-7.58
'0:02.145',-6.06
'0:02.148',-4.72
'0:02.152',-3.42
'0:02.156',-2.37
'0:02.160',-1.56
'0:02.164',-0.96
'0:02.168',-0.26
'0:02.172',0.09
'0:02.176',0.3
'0:02.180',0.62
'0:02.184',0.82
'0:02.188',1.21
'0:02.191',1.13
'0:02.195',0.98
'0:02.199',1.35
'0:02.203',1.48
'0:02.207',1.8
'0:02.211',1.73
'0:02.215',1.69
'0:02.219',2.06
'0:02.223',2.7
'0:02.227',3.23
'0:02.230',3
'0:02.234',3.02
'0:02.238',3.24
'0:02.242',3.17
'0:02.246',2.86
'0:02.250',2.54
'0:02.254',2.52
'0:02.258',2.52
'0:02.262',2.78
'0:02.266',3.05
'0:02.270',2.85
'0:02.273',2.39
'0:02.277',1.93
'0:02.281',1.61
'0:02.285',1.39
'0:02.289',1.05
'0:02.293',0.58
'0:02.297',-0.06
'0:02.301',-0.1
'0:02.305',0.3
'0:02.309',0.3
'0:02.313',0.19
'0:02.316',0
'0:02.320',-0.26
'0:02.324',-0.36
'0:02.328',-0.5
'0:02.332',-0.96
'0:02.336',-1.71
'0:02.340',-2.47
'0:02.344',-2.9
'0:02.348',-3.13
'0:02.352',-3.13
'0:02.355',-3
'0:02.359',-2.98
'0:02.363',-2.93
'0:02.367',-2.95
'0:02.371',-2.97
'0:02.375',-3.14
'0:02.379',-3.12
'0:02.383',-2.48
'0:02.387',-1.66
'0:02.391',-0.26
'0:02.395',2.11
'0:02.398',5.42
'0:02.402',8.45
'0:02.406',10.68
'0:02.410',10.82
'0:02.414',6.94
'0:02.418',0
'0:02.422',-6.1
'0:02.426',-9.89
'0:02.430',-11.95
'0:02.434',-12.94
'0:02.438',-13.06
'0:02.441',-12.9
'0:02.445',-12.17
'0:02.449',-10.3
'0:02.453',-8.24
'0:02.457',-6.49
'0:02.461',-5.15
'0:02.465',-4.08
'0:02.469',-3.24
'0:02.473',-2.55
'0:02.477',-1.92
'0:02.480',-1.32
'0:02.484',-1.03
'0:02.488',-0.97
'0:02.492',-0.87
'0:02.496',-0.6
'0:02.500',-0.22
'0:02.504',0.19
'0:02.508',0.59
'0:02.512',0.86
'0:02.516',0.99
'0:02.520',1.14
'0:02.523',1.18
'0:02.527',1.2
'0:02.531',1.24
'0:02.535',1.81
'0:02.539',2.73
'0:02.543',3.29
'0:02.547',3.51
'0:02.551',3.94
'0:02.555',4.38
'0:02.559',4.84
'0:02.563',5.11
'0:02.566',4.92
'0:02.570',4.82
'0:02.574',5.04
'0:02.578',4.83
'0:02.582',4.2
'0:02.586',3.63
'0:02.590',3.31
'0:02.594',3.12
'0:02.598',3.3
'0:02.602',3.41
'0:02.605',3.13
'0:02.609',3.07
'0:02.613',3.07
'0:02.617',2.94
'0:02.621',2.68
'0:02.625',2.22
'0:02.629',1.94
'0:02.633',1.73
'0:02.637',1.24
'0:02.641',0.71
'0:02.645',0.23
'0:02.648',0.02
'0:02.652',-0.11
'0:02.656',-0.24
'0:02.660',-0.53
'0:02.664',-0.81
'0:02.668',-0.95
'0:02.672',-0.79
'0:02.676',-0.96
'0:02.680',-1.5
'0:02.684',-1.77
'0:02.688',-1.71
'0:02.691',-1.4
'0:02.695',-0.6
'0:02.699',0.65
'0:02.703',2.57
'0:02.707',5.02
'0:02.711',7.15
'0:02.715',7.56
'0:02.719',4.53
'0:02.723',-1.05
'0:02.727',-6.61
'0:02.730',-10.03
'0:02.734',-11.43
'0:02.738',-11.52
'0:02.742',-10.84
'0:02.746',-9.6
'0:02.750',-7.98
'0:02.754',-6.26
'0:02.758',-4.44
'0:02.762',-2.56
'0:02.766',-0.88
'0:02.770',0.34
'0:02.773',1.45
'0:02.777',2.36
'0:02.781',3.19
'0:02.785',3.73
'0:02.789',3.91
'0:02.793',3.91
'0:02.797',3.73
'0:02.801',3.63
'0:02.805',3.31
'0:02.809',2.85
'0:02.813',2.19
'0:02.816',1.84
'0:02.820',1.95
'0:02.824',2.44
'0:02.828',3.09
'0:02.832',3.45
'0:02.836',3.52
'0:02.840',3.65
'0:02.844',3.9
'0:02.848',4.37
'0:02.852',4.93
'0:02.855',5.37
'0:02.859',5.35
'0:02.863',5.14
'0:02.867',5.3
'0:02.871',5.66
'0:02.875',5.45
'0:02.879',4.71
'0:02.883',3.92
'0:02.887',3.68
'0:02.891',3.51
'0:02.895',2.89
'0:02.898',2.33
'0:02.902',2.08
'0:02.906',2.12
'0:02.910',1.8
'0:02.914',1.2
'0:02.918',0.83
'0:02.922',0.31
'0:02.926',-0.06
'0:02.930',-0.27
'0:02.934',-0.52
'0:02.938',-0.9
'0:02.941',-1.42
'0:02.945',-1.96
'0:02.949',-2.3
'0:02.953',-2.41
'0:02.957',-2.52
'0:02.961',-2.93
'0:02.965',-3.25
'0:02.969',-3.21
'0:02.973',-3.42
'0:02.977',-3.48
'0:02.980',-3.24
'0:02.984',-3.04
'0:02.988',-3.12
'0:02.992',-2.96
'0:02.996',-2.63
'0:03.000',-2.06
'0:03.004',-1.28
'0:03.008',-0.13
'0:03.012',1.85
'0:03.016',4.19
'0:03.020',7.01
'0:03.023',9.27
'0:03.027',8.49
'0:03.031',3.4
'0:03.035',-2.66
'0:03.039',-7.5
'0:03.043',-10.26
'0:03.047',-11.32
'0:03.051',-11.36
'0:03.055',-10.82
'0:03.059',-10.01
'0:03.063',-8.47
'0:03.066',-6.76
'0:03.070',-4.98
'0:03.074',-3.31
'0:03.078',-2.34
'0:03.082',-1.83
'0:03.086',-1.38
'0:03.090',-0.79
'0:03.094',-0.09
'0:03.098',0.16
'0:03.102',0.15
'0:03.105',0.54
'0:03.109',0.57
'0:03.113',0.27
'0:03.117',-0.14
'0:03.121',-0.55
'0:03.125',-0.66
'0:03.129',-0.64
'0:03.133',-1
'0:03.137',-1.06
'0:03.141',-0.59
'0:03.145',0.07
'0:03.148',0.4
'0:03.152',0.82
'0:03.156',1.34
'0:03.160',1.41
'0:03.164',1.48
'0:03.168',1.59
'0:03.172',1.95
'0:03.176',2.39
'0:03.180',2.49
'0:03.184',2.37
'0:03.188',2
'0:03.191',1.76
'0:03.195',1.57
'0:03.199',1.19
'0:03.203',1.06
'0:03.207',0.73
'0:03.211',0.51
'0:03.215',0.73
'0:03.219',0.85
'0:03.223',0.69
'0:03.227',0.24
'0:03.230',-0.27
'0:03.234',-0.41
'0:03.238',-0.48
'0:03.242',-0.65
'0:03.246',-0.94
'0:03.250',-1.34
'0:03.254',-1.66
'0:03.258',-1.98
'0:03.262',-2.31
'0:03.266',-2.7
'0:03.270',-3.12
'0:03.273',-3.09
'0:03.277',-2.85
'0:03.281',-2.45
'0:03.285',-2.04
'0:03.289',-1.87
'0:03.293',-1.91
'0:03.297',-2.08
'0:03.301',-2.4
'0:03.305',-2.27
'0:03.309',-1.52
'0:03.313',-0.53
'0:03.316',0.87
'0:03.320',3.08
'0:03.324',5.9
'0:03.328',8.92
'0:03.332',11.51
'0:03.336',12.3
'0:03.340',9.18
'0:03.344',2.46
'0:03.348',-3.74
'0:03.352',-7.59
'0:03.355',-9.39
'0:03.359',-10.01
'0:03.363',-10
'0:03.367',-9.61
'0:03.371',-8.64
'0:03.375',-6.96
'0:03.379',-5.36
'0:03.383',-3.76
'0:03.387',-2.31
'0:03.391',-1.22
'0:03.395',-0.42
'0:03.398',0.25
'0:03.402',0.16
'0:03.406',0.31
'0:03.410',0.79
'0:03.414',1.53
'0:03.418',2.11
'0:03.422',2
'0:03.426',1.51
'0:03.430',1.31
'0:03.434',1.25
'0:03.438',1.2
'0:03.441',1.35
'0:03.445',1.6
'0:03.449',1.85
'0:03.453',2.02
'0:03.457',2.18
'0:03.461',2.44
'0:03.465',2.65
'0:03.469',2.84
'0:03.473',3.08
'0:03.477',3.19
'0:03.480',3.17
'0:03.484',3.36
'0:03.488',3.73
'0:03.492',4.08
'0:03.496',4.11
'0:03.500',3.87
'0:03.504',3.73
'0:03.508',3.38
'0:03.512',2.85
'0:03.516',2.6
'0:03.520',2.48
'0:03.523',2.17
'0:03.527',1.66
'0:03.531',1.25
'0:03.535',0.92
'0:03.539',0.87
'0:03.543',0.88
'0:03.547',0.61
'0:03.551',0.34
'0:03.555',-0.33
'0:03.559',-1.16
'0:03.563',-2.14
'0:03.566',-2.64
'0:03.570',-2.26
'0:03.574',-1.81
'0:03.578',-1.37
'0:03.582',-1.52
'0:03.586',-1.87
'0:03.590',-1.57
'0:03.594',-1.87
'0:03.598',-2.41
'0:03.602',-2.78
'0:03.605',-2.88
'0:03.609',-2.31
'0:03.613',-1.45
'0:03.617',-1.07
'0:03.621',-0.44
'0:03.625',1.1
'0:03.629',3.41
'0:03.633',6.1
'0:03.637',8.27
'0:03.641',8.25
'0:03.645',4.9
'0:03.648',-1.23
'0:03.652',-6.71
'0:03.656',-9.7
'0:03.660',-10.93
'0:03.664',-11.76
'0:03.668',-10.69
'0:03.672',-8.63
'0:03.676',-6.71
'0:03.680',-5.22
'0:03.684',-4.06
'0:03.688',-3.08
'0:03.691',-1.86
'0:03.695',-0.34
'0:03.699',0.69
'0:03.703',1.06
'0:03.707',1.3
'0:03.711',1.55
'0:03.715',1.98
'0:03.719',2.15
'0:03.723',2.01
'0:03.727',1.9
'0:03.730',1.81
'0:03.734',1.95
'0:03.738',2.53
'0:03.742',3.06
'0:03.746',3.49
'0:03.750',3.72
'0:03.754',4.09
'0:03.758',4.4
'0:03.762',4.81
'0:03.766',5.27
'0:03.770',5.45
'0:03.773',5.9
'0:03.777',6.52
'0:03.781',6.75
'0:03.785',6.48
'0:03.789',5.87
'0:03.793',5.58
'0:03.797',5.52
'0:03.801',5.3
'0:03.805',4.87
'0:03.809',4.48
'0:03.813',3.34
'0:03.816',2.54
'0:03.820',2.45
'0:03.824',2.79
'0:03.828',2.9
'0:03.832',2.72
'0:03.836',2.32
'0:03.840',1.46
'0:03.844',0.4
'0:03.848',-0.35
'0:03.852',-0.78
'0:03.855',-1.22
'0:03.859',-1.27
'0:03.863',-1.35
'0:03.867',-1.62
'0:03.871',-1.7
'0:03.875',-1.95
'0:03.879',-2.58
'0:03.883',-3.34
'0:03.887',-4.07
'0:03.891',-4.53
'0:03.895',-4.71
'0:03.898',-4.74
'0:03.902',-4.57
'0:03.906',-4.28
'0:03.910',-4.35
'0:03.914',-4.46
'0:03.918',-4.48
'0:03.922',-4.53
'0:03.926',-4.2
'0:03.930',-3.74
'0:03.934',-2.74
'0:03.938',-0.81
'0:03.941',2.01
'0:03.945',5.13
'0:03.949',7.67
'0:03.953',7.88
'0:03.957',4.41
'0:03.961',-1.3
'0:03.965',-6.36
'0:03.969',-9.81
'0:03.973',-11.46
'0:03.977',-12.05
'0:03.980',-12.09
'0:03.984',-11.77
'0:03.988',-10.35
'0:03.992',-7.95
'0:03.996',-5.54
'0:04.000',-3.6
'0:04.004',-2.5
'0:04.008',-1.65
'0:04.012',-0.56
'0:04.016',0.65
'0:04.020',1.61
'0:04.023',2.28
'0:04.027',2.49
'0:04.031',2.49
'0:04.035',2.55
'0:04.039',2.7
'0:04.043',2.64
'0:04.047',2.72
'0:04.051',2.97
'0:04.055',3.22
'0:04.059',3.5
'0:04.063',3.74
'0:04.066',3.94
'0:04.070',3.95
'0:04.074',4.12
'0:04.078',4.29
'0:04.082',4.46
'0:04.086',4.65
'0:04.090',4.77
'0:04.094',4.89
'0:04.098',5.01
'0:04.102',4.82
'0:04.105',4.46
'0:04.109',4.05
'0:04.113',3.82
'0:04.117',3.28
'0:04.121',2.83
'0:04.125',2.48
'0:04.129',2.06
'0:04.133',1.64
'0:04.137',1.28
'0:04.141',0.6
'0:04.145',0.12
'0:04.148',-0.14
'0:04.152',-0.24
'0:04.156',-0.11
'0:04.160',0.05
'0:04.164',-0.32
'0:04.168',-0.92
'0:04.172',-1.13
'0:04.176',-1.16
'0:04.180',-1.3
'0:04.184',-1.42
'0:04.188',-1.84
'0:04.191',-2.06
'0:04.195',-1.88
'0:04.199',-2.16
'0:04.203',-2.94
'0:04.207',-3.73
'0:04.211',-3.43
'0:04.215',-2.33
'0:04.219',-1.81
'0:04.223',-2.6
'0:04.227',-3.67
'0:04.230',-3.83
'0:04.234',-3.07
'0:04.238',-2.06
'0:04.242',-0.53
'0:04.246',1.66
'0:04.250',4.89
'0:04.254',8.21
'0:04.258',10.74
'0:04.262',11.04
'0:04.266',7.16
'0:04.270',0.1
'0:04.273',-5.91
'0:04.277',-9.57
'0:04.281',-11.36
'0:04.285',-12.23
'0:04.289',-12.92
'0:04.293',-12.9
'0:04.297',-11.33
'0:04.301',-8.74
'0:04.305',-6.34
'0:04.309',-4.82
'0:04.313',-3.62
'0:04.316',-2.66
'0:04.320',-1.93
'0:04.324',-1.21
'0:04.328',-0.19
'0:04.332',0.87
'0:04.336',1.06
'0:04.340',1.55
'0:04.344',1.73
'0:04.348',0.88
'0:04.352',0.21
'0:04.355',0.4
'0:04.359',1.1
'0:04.363',2.09
'0:04.367',2.86
'0:04.371',2.38
'0:04.375',2.15
'0:04.379',2.87
'0:04.383',2.89
'0:04.387',2.67
'0:04.391',2.35
'0:04.395',1.97
'0:04.398',1.67
'0:04.402',1.91
'0:04.406',2.13
'0:04.410',2.22
'0:04.414',3.13
'0:04.418',3.48
'0:04.422',2.89
'0:04.426',2.23
'0:04.430',2.08
'0:04.434',2.32
'0:04.438',2.1
'0:04.441',1.75
'0:04.445',1.32
'0:04.449',0.98
'0:04.453',0.72
'0:04.457',0.58
'0:04.461',0.72
'0:04.465',0.62
'0:04.469',0.25
'0:04.473',-0.33
'0:04.477',-0.04
'0:04.480',0.24
'0:04.484',0.27
'0:04.488',-0.11
'0:04.492',-1
'0:04.496',-1.65
'0:04.500',-2.27
'0:04.504',-2.66
'0:04.508',-2.95
'0:04.512',-3.05
'0:04.516',-2.68
'0:04.520',-2.38
'0:04.523',-2.64
'0:04.527',-2.8
'0:04.531',-2.78
'0:04.535',-2.84
'0:04.539',-2.62
'0:04.543',-2.06
'0:04.547',-1.22
'0:04.551',0.11
'0:04.555',2.1
'0:04.559',4.69
'0:04.563',7.23
'0:04.566',8.17
'0:04.570',6.04
'0:04.574',0.81
'0:04.578',-4.77
'0:04.582',-8.49
'0:04.586',-10.06
'0:04.590',-10.29
'0:04.594',-9.82
'0:04.598',-8.9
'0:04.602',-7.4
'0:04.605',-5.45
'0:04.609',-3.53
'0:04.613',-1.74
'0:04.617',-0.09
'0:04.621',1.01
'0:04.625',1.7
'0:04.629',2.16
'0:04.633',2.66
'0:04.637',3.1
'0:04.641',3.58
'0:04.645',4.03
'0:04.648',4.33
'0:04.652',4.48
'0:04.656',4.58
'0:04.660',4.56
'0:04.664',4.49
'0:04.668',4.34
'0:04.672',4.41
'0:04.676',4.5
'0:04.680',4.6
'0:04.684',4.79
'0:04.688',5.17
'0:04.691',5.55
'0:04.695',5.8
'0:04.699',5.68
'0:04.703',5.65
'0:04.707',5.72
'0:04.711',5.85
'0:04.715',5.89
'0:04.719',5.95
'0:04.723',5.9
'0:04.727',5.68
'0:04.730',5.13
'0:04.734',4.73
'0:04.738',4.19
'0:04.742',3.77
'0:04.746',3.7
'0:04.750',3.5
'0:04.754',3.18
'0:04.758',2.94
'0:04.762',2.79
'0:04.766',2.48
'0:04.770',1.77
'0:04.773',1.08
'0:04.777',0.56
'0:04.781',0.21
'0:04.785',0.01
'0:04.789',0.07
'0:04.793',-0.15
'0:04.797',-0.75
'0:04.801',-1.89
'0:04.805',-2.61
'0:04.809',-2.87
'0:04.813',-3.11
'0:04.816',-3.25
'0:04.820',-3.32
'0:04.824',-3.1
'0:04.828',-2.95
'0:04.832',-2.95
'0:04.836',-3.04
'0:04.840',-2.97
'0:04.844',-3.06
'0:04.848',-2.96
'0:04.852',-2.44
'0:04.855',-1.52
'0:04.859',-0.08
'0:04.863',1.96
'0:04.867',4.53
'0:04.871',7.26
'0:04.875',9.05
'0:04.879',7.35
'0:04.883',1.42
'0:04.887',-4.95
'0:04.891',-9.28
'0:04.895',-11.41
'0:04.898',-12.13
'0:04.902',-12.28
'0:04.906',-11.99
'0:04.910',-11.01
'0:04.914',-9.48
'0:04.918',-7.87
'0:04.922',-6.02
'0:04.926',-4.47
'0:04.930',-3.16
'0:04.934',-2.23
'0:04.938',-1.56
'0:04.941',-0.93
'0:04.945',-0.48
'0:04.949',-0.07
'0:04.953',0.26
'0:04.957',0.48
'0:04.961',0.6
'0:04.965',0.8
'0:04.969',0.94
'0:04.973',1.27
'0:04.977',1.35
'0:04.980',0.99
'0:04.984',1.19
'0:04.988',1.59
'0:04.992',2.38
'0:04.996',2.87
'0:05.000',2.81
'0:05.004',2.52
'0:05.008',2.62
'0:05.012',3.1
'0:05.016',3.29
'0:05.020',3.39
'0:05.023',3.42
'0:05.027',3.31
'0:05.031',3.48
'0:05.035',3.7
'0:05.039',3.57
'0:05.043',3.2
'0:05.047',2.86
'0:05.051',2.62
'0:05.055',2.41
'0:05.059',2.1
'0:05.063',1.56
'0:05.066',1.06
'0:05.070',0.75
'0:05.074',0.14
'0:05.078',-0.44
'0:05.082',-0.77
'0:05.086',-0.99
'0:05.090',-0.96
'0:05.094',-0.87
'0:05.098',-1.05
'0:05.102',-1.51
'0:05.105',-2.03
'0:05.109',-2.29
'0:05.113',-2.77
'0:05.117',-3.25
'0:05.121',-3.34
'0:05.125',-3.14
'0:05.129',-3.43
'0:05.133',-3.85
'0:05.137',-3
'0:05.141',-1.79
'0:05.145',-1.85
'0:05.148',-2.6
'0:05.152',-2.87
'0:05.156',-2.71
'0:05.160',-2.51
'0:05.164',-2.18
'0:05.168',-0.99
'0:05.172',1.18
'0:05.176',3.86
'0:05.180',6.58
'0:05.184',8.85
'0:05.188',8.96
'0:05.191',5.02
'0:05.195',-1.71
'0:05.199',-7.17
'0:05.203',-10.55
'0:05.207',-12.1
'0:05.211',-12.35
'0:05.215',-12.15
'0:05.219',-11.52
'0:05.223',-10.46
'0:05.227',-8.81
'0:05.230',-7.01
'0:05.234',-5.38
'0:05.238',-3.72
'0:05.242',-2.51
'0:05.246',-1.46
'0:05.250',-0.66
'0:05.254',0
'0:05.258',0.33
'0:05.262',0.37
'0:05.266',0.28
'0:05.270',0.36
'0:05.273',0.64
'0:05.277',0.77
'0:05.281',0.88
'0:05.285',0.9
'0:05.289',1.18
'0:05.293',1.66
'0:05.297',2.04
'0:05.301',1.95
'0:05.305',2.05
'0:05.309',2.31
'0:05.313',2.31
'0:05.316',2.38
'0:05.320',2.53
'0:05.324',2.67
'0:05.328',2.79
'0:05.332',3.19
'0:05.336',3.67
'0:05.340',4.08
'0:05.344',4.51
'0:05.348',4.36
'0:05.352',3.6
'0:05.355',2.56
'0:05.359',1.83
'0:05.363',1.45
'0:05.367',1.2
'0:05.371',0.96
'0:05.375',0.81
'0:05.379',0.37
'0:05.383',-0.24
'0:05.387',-0.52
'0:05.391',-0.58
'0:05.395',-0.7
'0:05.398',-1.01
'0:05.402',-1.16
'0:05.406',-1.44
'0:05.410',-1.69
'0:05.414',-2.03
'0:05.418',-2.4
'0:05.422',-2.56
'0:05.426',-2.71
'0:05.430',-2.8
'0:05.434',-2.73
'0:05.438',-2.42
'0:05.441',-2.3
'0:05.445',-1.83
'0:05.449',-1.51
'0:05.453',-1.51
'0:05.457',-1.48
'0:05.461',-1.02
'0:05.465',-0.36
'0:05.469',0.03
'0:05.473',0.78
'0:05.477',2.46
'0:05.480',4.83
'0:05.484',7.3
'0:05.488',8.5
'0:05.492',6.73
'0:05.496',1.83
'0:05.500',-4.11
'0:05.504',-8.38
'0:05.508',-10.32
'0:05.512',-10.87
'0:05.516',-10.46
'0:05.520',-9.48
'0:05.523',-8.07
'0:05.527',-6.19
'0:05.531',-4.33
'0:05.535',-2.36
'0:05.539',-0.75
'0:05.543',0.65
'0:05.547',1.72
'0:05.551',2.34
'0:05.555',2.95
'0:05.559',3.54
'0:05.563',4.09
'0:05.566',4.1
'0:05.570',3.89
'0:05.574',3.81
'0:05.578',3.8
'0:05.582',3.85
'0:05.586',3.49
'0:05.590',2.67
'0:05.594',2.38
'0:05.598',2.69
'0:05.602',2.93
'0:05.605',3.36
'0:05.609',3.86
'0:05.613',4.05
'0:05.617',4.27
'0:05.621',4.56
'0:05.625',4.52
'0:05.629',4.11
'0:05.633',3.61
'0:05.637',3.14
'0:05.641',2.89
'0:05.645',2.56
'0:05.648',2.17
'0:05.652',1.67
'0:05.656',1.32
'0:05.660',0.84
'0:05.664',0.1
'0:05.668',-0.35
'0:05.672',-1
'0:05.676',-1.78
'0:05.680',-1.77
'0:05.684',-1.75
'0:05.688',-1.51
'0:05.691',-1.76
'0:05.695',-2.26
'0:05.699',-2.71
'0:05.703',-3.22
'0:05.707',-3.73
'0:05.711',-3.88
'0:05.715',-3.61
'0:05.719',-3.49
'0:05.723',-3.97
'0:05.727',-4.67
'0:05.730',-5.43
'0:05.734',-5.88
'0:05.738',-6.43
'0:05.742',-6.88
'0:05.746',-6.8
'0:05.750',-6.84
'0:05.754',-6.5
'0:05.758',-5.91
'0:05.762',-6.02
'0:05.766',-6.19
'0:05.770',-6.11
'0:05.773',-6.14
'0:05.777',-6.05
'0:05.781',-5.68
'0:05.785',-4.6
'0:05.789',-2.51
'0:05.793',0.61
'0:05.797',3.81
'0:05.801',7.38
'0:05.805',9.29
'0:05.809',7.02
'0:05.813',1.42
'0:05.816',-3.68
'0:05.820',-6.92
'0:05.824',-8.67
'0:05.828',-9.33
'0:05.832',-9.15
'0:05.836',-8.52
'0:05.840',-7.39
'0:05.844',-5.23
'0:05.848',-3.14
'0:05.852',-1.75
'0:05.855',-0.16
'0:05.859',1.04
'0:05.863',2.29
'0:05.867',3.71
'0:05.871',4.84
'0:05.875',5.06
'0:05.879',5
'0:05.883',4.75
'0:05.887',4.89
'0:05.891',5.46
'0:05.895',5.99
'0:05.898',5.67
'0:05.902',5.51
'0:05.906',5.59
'0:05.910',5.89
'0:05.914',6.12
'0:05.918',6.47
'0:05.922',6.47
'0:05.926',6.47
'0:05.930',6.84
'0:05.934',7.25
'0:05.938',7.33
'0:05.941',7.3
'0:05.945',7.31
'0:05.949',7.22
'0:05.953',7.29
'0:05.957',7.63
'0:05.961',7.91
'0:05.965',7.98
'0:05.969',7.65
'0:05.973',7.33
'0:05.977',6.97
'0:05.980',6.25
'0:05.984',5.47
'0:05.988',4.8
'0:05.992',4.24
'0:05.996',3.79
'0:06.000',3.37
'0:06.004',2.61
'0:06.008',1.84
'0:06.012',1.42
'0:06.016',1.46
'0:06.020',1.69
'0:06.023',2.14
'0:06.027',1.81
'0:06.031',1.03
'0:06.035',0.38
'0:06.039',0.06
'0:06.043',-0.18
'0:06.047',-0.54
'0:06.051',-0.68
'0:06.055',-0.44
'0:06.059',-0.26
'0:06.063',-0.36
'0:06.066',-0.5
'0:06.070',-0.51
'0:06.074',-0.7
'0:06.078',-1.01
'0:06.082',-1.02
'0:06.086',-0.75
'0:06.090',-0.28
'0:06.094',0.31
'0:06.098',1.61
'0:06.102',3.68
'0:06.105',6.39
'0:06.109',9.47
'0:06.113',12.01
'0:06.117',12.52
'0:06.121',8.82
'0:06.125',2.03
'0:06.129',-4.03
'0:06.133',-7.73
'0:06.137',-9.57
'0:06.141',-10.28
'0:06.145',-10.47
'0:06.148',-10.02
'0:06.152',-8.88
'0:06.156',-7.21
'0:06.160',-5.49
'0:06.164',-3.69
'0:06.168',-2.28
'0:06.172',-1.59
'0:06.176',-1.13
'0:06.180',-0.73
'0:06.184',0
'0:06.188',0.27
'0:06.191',0.41
'0:06.195',0.47
'0:06.199',0.55
'0:06.203',0.66
'0:06.207',0.7
'0:06.211',0.7
'0:06.215',0.68
'0:06.219',0.89
'0:06.223',1.11
'0:06.227',1.36
'0:06.230',1.4
'0:06.234',1.36
'0:06.238',1.57
'0:06.242',1.96
'0:06.246',2.37
'0:06.250',2.59
'0:06.254',2.49
'0:06.258',2.38
'0:06.262',2.59
'0:06.266',3.01
'0:06.270',3.31
'0:06.273',3.4
'0:06.277',3.16
'0:06.281',2.72
'0:06.285',2.39
'0:06.289',2.16
'0:06.293',1.98
'0:06.297',1.71
'0:06.301',1.52
'0:06.305',1.16
'0:06.309',0.7
'0:06.313',0.23
'0:06.316',-0.24
'0:06.320',-0.59
'0:06.324',-1.12
'0:06.328',-1.68
'0:06.332',-1.94
'0:06.336',-2.17
'0:06.340',-2.69
'0:06.344',-3.25
'0:06.348',-3.73
'0:06.352',-4.24
'0:06.355',-4.18
'0:06.359',-3.52
'0:06.363',-2.68
'0:06.367',-2.53
'0:06.371',-2.96
'0:06.375',-3.62
'0:06.379',-4.2
'0:06.383',-4.52
'0:06.387',-4.71
'0:06.391',-4.16
'0:06.395',-3.44
'0:06.398',-2.64
'0:06.402',-1.89
'0:06.406',0.14
'0:06.410',2.65
'0:06.414',4.5
'0:06.418',4.75
'0:06.422',2.38
'0:06.426',-2.93
'0:06.430',-8.6
'0:06.434',-13.05
'0:06.438',-15.28
'0:06.441',-15.52
'0:06.445',-15.12
'0:06.449',-14.24
'0:06.453',-13.04
'0:06.457',-11.4
'0:06.461',-9.73
'0:06.465',-8.22
'0:06.469',-6.96
'0:06.473',-6.07
'0:06.477',-5.32
'0:06.480',-4.61
'0:06.484',-4.18
'0:06.488',-3.93
'0:06.492',-3.83
'0:06.496',-3.6
'0:06.500',-3.26
'0:06.504',-2.49
'0:06.508',-2.04
'0:06.512',-1.7
'0:06.516',-1.35
'0:06.520',-0.96
'0:06.523',-0.48
'0:06.527',-0.04
'0:06.531',0.55
'0:06.535',1.4
'0:06.539',2.38
'0:06.543',3
'0:06.547',3.45
'0:06.551',3.72
'0:06.555',4.54
'0:06.559',5.29
'0:06.563',5.31
'0:06.566',5.49
'0:06.570',5.8
'0:06.574',5.8
'0:06.578',5.98
'0:06.582',6.6
'0:06.586',6.8
'0:06.590',6.8
'0:06.594',6.8
'0:06.598',6.8
'0:06.602',7.25
'0:06.605',7.52
'0:06.609',7.74
'0:06.613',7.63
'0:06.617',7.21
'0:06.621',6.51
'0:06.625',5.95
'0:06.629',5.7
'0:06.633',5.57
'0:06.637',5.42
'0:06.641',5.41
'0:06.645',5.36
'0:06.648',4.94
'0:06.652',4.5
'0:06.656',4.05
'0:06.660',3.16
'0:06.664',2.44
'0:06.668',2.19
'0:06.672',2.06
'0:06.676',1.69
'0:06.680',1.45
'0:06.684',1.25
'0:06.688',1.27
'0:06.691',1.29
'0:06.695',1.13
'0:06.699',1.35
'0:06.703',1.62
'0:06.707',1.92
'0:06.711',2.39
'0:06.715',3.49
'0:06.719',5.56
'0:06.723',8.3
'0:06.727',10.83
'0:06.730',11.5
'0:06.734',8.46
'0:06.738',2.58
'0:06.742',-3.01
'0:06.746',-7.08
'0:06.750',-9.03
'0:06.754',-9.52
'0:06.758',-9.65
'0:06.762',-8.98
'0:06.766',-7.57
'0:06.770',-5.86
'0:06.773',-4.3
'0:06.777',-2.84
'0:06.781',-1.41
'0:06.785',-0.59
'0:06.789',0.12
'0:06.793',0.93
'0:06.797',1.68
'0:06.801',1.97
'0:06.805',1.97
'0:06.809',1.81
'0:06.813',1.76
'0:06.816',2.04
'0:06.820',2.31
'0:06.824',2.09
'0:06.828',1.97
'0:06.832',2.25
'0:06.836',2.41
'0:06.840',2.13
'0:06.844',1.99
'0:06.848',2.35
'0:06.852',2.63
'0:06.855',2.68
'0:06.859',2.76
'0:06.863',3.18
'0:06.867',3.43
'0:06.871',3.43
'0:06.875',2.91
'0:06.879',2.57
'0:06.883',2.88
'0:06.887',3.3
'0:06.891',3.43
'0:06.895',3.11
'0:06.898',2.4
'0:06.902',1.7
'0:06.906',1.6
'0:06.910',1.95
'0:06.914',1.49
'0:06.918',0.58
'0:06.922',0.23
'0:06.926',0.13
'0:06.930',-0.29
'0:06.934',-1.1
'0:06.938',-1.53
'0:06.941',-1.39
'0:06.945',-1.35
'0:06.949',-1.69
'0:06.953',-1.82
'0:06.957',-1.84
'0:06.961',-2.2
'0:06.965',-2.73
'0:06.969',-3.06
'0:06.973',-3.25
'0:06.977',-3.45
'0:06.980',-3.55
'0:06.984',-3.6
'0:06.988',-3.59
'0:06.992',-3.46
'0:06.996',-3.33
'0:07.000',-3.29
'0:07.004',-3.35
'0:07.008',-3.43
'0:07.012',-3.25
'0:07.016',-2.73
'0:07.020',-1.78
'0:07.023',0.08
'0:07.027',3
'0:07.031',6.51
'0:07.035',9.64
'0:07.039',11.33
'0:07.043',9.96
'0:07.047',4.33
'0:07.051',-2.87
'0:07.055',-8.28
'0:07.059',-11.36
'0:07.063',-12.68
'0:07.066',-12.87
'0:07.070',-12.49
'0:07.074',-11.7
'0:07.078',-10.44
'0:07.082',-8.63
'0:07.086',-6.63
'0:07.090',-4.95
'0:07.094',-3.65
'0:07.098',-2.71
'0:07.102',-1.84
'0:07.105',-1.28
'0:07.109',-0.98
'0:07.113',-0.72
'0:07.117',-0.42
'0:07.121',-0.35
'0:07.125',-0.72
'0:07.129',-0.97
'0:07.133',-1.11
'0:07.137',-1.03
'0:07.141',-0.81
'0:07.145',-0.67
'0:07.148',-0.68
'0:07.152',-0.79
'0:07.156',-0.84
'0:07.160',-0.52
'0:07.164',-0.32
'0:07.168',-0.24
'0:07.172',-0.45
'0:07.176',-0.61
'0:07.180',-0.4
'0:07.184',-0.13
'0:07.188',0.09
'0:07.191',0.43
'0:07.195',0.68
'0:07.199',0.48
'0:07.203',0.18
'0:07.207',0.31
'0:07.211',0.24
'0:07.215',-0.38
'0:07.219',-1
'0:07.223',-1.28
'0:07.227',-1.49
'0:07.230',-1.62
'0:07.234',-1.9
'0:07.238',-2.51
'0:07.242',-3
'0:07.246',-3.23
'0:07.250',-3.22
'0:07.254',-2.74
'0:07.258',-1.94
'0:07.262',-2
'0:07.266',-2.5
'0:07.270',-2.66
'0:07.273',-3.16
'0:07.277',-3.62
'0:07.281',-3.49
'0:07.285',-3.47
'0:07.289',-3.92
'0:07.293',-4.22
'0:07.297',-3.73
'0:07.301',-3.22
'0:07.305',-3.1
'0:07.309',-2.77
'0:07.313',-2.49
'0:07.316',-2.32
'0:07.320',-1.97
'0:07.324',-1.2
'0:07.328',0
'0:07.332',1.56
'0:07.336',3.76
'0:07.340',6.24
'0:07.344',8.42
'0:07.348',8.55
'0:07.352',5.23
'0:07.355',-0.74
'0:07.359',-5.85
'0:07.363',-8.48
'0:07.367',-9.11
'0:07.371',-8.9
'0:07.375',-8.24
'0:07.379',-7.14
'0:07.383',-5.74
'0:07.387',-4.16
'0:07.391',-2.29
'0:07.395',-0.38
'0:07.398',1.28
'0:07.402',2.56
'0:07.406',3.45
'0:07.410',4.07
'0:07.414',4.38
'0:07.418',4.5
'0:07.422',4.55
'0:07.426',4.72
'0:07.430',4.87
'0:07.434',5.04
'0:07.438',5.21
'0:07.441',5.23
'0:07.445',5.29
'0:07.449',5.46
'0:07.453',5.67
'0:07.457',5.83
'0:07.461',5.72
'0:07.465',5.64
'0:07.469',5.8
'0:07.473',5.94
'0:07.477',6.08
'0:07.480',6.24
'0:07.484',6.22
'0:07.488',6
'0:07.492',6.01
'0:07.496',6.36
'0:07.500',6.67
'0:07.504',6.67
'0:07.508',6.56
'0:07.512',6.32
'0:07.516',5.94
'0:07.520',5.52
'0:07.523',5.11
'0:07.527',4.86
'0:07.531',4.55
'0:07.535',4.13
'0:07.539',3.93
'0:07.543',3.53
'0:07.547',3.04
'0:07.551',2.74
'0:07.555',2.26
'0:07.559',1.72
'0:07.563',1.39
'0:07.566',1.29
'0:07.570',1.13
'0:07.574',0.72
'0:07.578',0.17
'0:07.582',-0.29
'0:07.586',-0.72
'0:07.590',-1.01
'0:07.594',-1.02
'0:07.598',-1.01
'0:07.602',-1.32
'0:07.605',-1.65
'0:07.609',-1.83
'0:07.613',-1.89
'0:07.617',-2.11
'0:07.621',-2.33
'0:07.625',-2.35
'0:07.629',-1.99
'0:07.633',-1.2
'0:07.637',-0.23
'0:07.641',1.32
'0:07.645',3.68
'0:07.648',6.18
'0:07.652',8.18
'0:07.656',7.89
'0:07.660',3.65
'0:07.664',-2.24
'0:07.668',-7.26
'0:07.672',-10.16
'0:07.676',-11.23
'0:07.680',-11.29
'0:07.684',-11.04
'0:07.688',-10.48
'0:07.691',-9.15
'0:07.695',-7.25
'0:07.699',-5.27
'0:07.703',-3.7
'0:07.707',-2.29
'0:07.711',-1.11
'0:07.715',0.04
'0:07.719',0.67
'0:07.723',0.9
'0:07.727',0.69
'0:07.730',0.63
'0:07.734',0.78
'0:07.738',1.04
'0:07.742',1.12
'0:07.746',0.93
'0:07.750',1.18
'0:07.754',1.46
'0:07.758',1.52
'0:07.762',1.37
'0:07.766',1.04
'0:07.770',1.03
'0:07.773',1.48
'0:07.777',1.84
'0:07.781',1.99
'0:07.785',2.21
'0:07.789',2.46
'0:07.793',2.34
'0:07.797',2.34
'0:07.801',2.06
'0:07.805',2.05
'0:07.809',2.43
'0:07.813',2.52
'0:07.816',2.38
'0:07.820',2.09
'0:07.824',1.26
'0:07.828',0.64
'0:07.832',0.44
'0:07.836',0.3
'0:07.840',-0.09
'0:07.844',-0.74
'0:07.848',-0.8
'0:07.852',-0.89
'0:07.855',-1.34
'0:07.859',-2
'0:07.863',-2.24
'0:07.867',-2.38
'0:07.871',-2.6
'0:07.875',-2.66
'0:07.879',-2.61
'0:07.883',-2.7
'0:07.887',-3.03
'0:07.891',-3.33
'0:07.895',-3.5
'0:07.898',-3.6
'0:07.902',-3.51
'0:07.906',-3.2
'0:07.910',-2.86
'0:07.914',-2.61
'0:07.918',-2.55
'0:07.922',-2.68
'0:07.926',-2.61
'0:07.930',-2.51
'0:07.934',-2.58
'0:07.938',-2.49
'0:07.941',-2.13
'0:07.945',-1.09
'0:07.949',0.79
'0:07.953',3.46
'0:07.957',6.76
'0:07.961',10
'0:07.965',12
'0:07.969',10.66
'0:07.973',4.81
'0:07.977',-2.01
'0:07.980',-6.85
'0:07.984',-9.77
'0:07.988',-11.32
'0:07.992',-11.78
'0:07.996',-11.35
'0:08.000',-10.52
'0:08.004',-9.21
'0:08.008',-7.13
'0:08.012',-5.05
'0:08.016',-3.57
'0:08.020',-2.4
'0:08.023',-1.63
'0:08.027',-0.44
'0:08.031',0.43
'0:08.035',1.14
'0:08.039',1.88
'0:08.043',1.62
'0:08.047',1.06
'0:08.051',0.97
'0:08.055',1.53
'0:08.059',1.21
'0:08.063',0.63
'0:08.066',0.25
'0:08.070',0.73
'0:08.074',1.54
'0:08.078',1.96
'0:08.082',2.73
'0:08.086',3.7
'0:08.090',5.05
'0:08.094',6.35
'0:08.098',7.38
'0:08.102',8.1
'0:08.105',7.81
'0:08.109',7.44
'0:08.113',6.95
'0:08.117',6.81
'0:08.121',6.67
'0:08.125',7.19
'0:08.129',7.11
'0:08.133',5.7
'0:08.137',4.89
'0:08.141',4.36
'0:08.145',3.66
'0:08.148',2.4
'0:08.152',2.01
'0:08.156',1.83
'0:08.160',2.01
'0:08.164',2.48
'0:08.168',2.58
'0:08.172',1.93
'0:08.176',0.71
'0:08.180',-0.11
'0:08.184',-0.52
'0:08.188',-1.19
'0:08.191',-1.93
'0:08.195',-2.81
'0:08.199',-3.81
'0:08.203',-4.7
'0:08.207',-5.21
'0:08.211',-4.7
'0:08.215',-3.84
'0:08.219',-3.47
'0:08.223',-3.36
'0:08.227',-3.15
'0:08.230',-2.87
'0:08.234',-3.06
'0:08.238',-3.11
'0:08.242',-2.97
'0:08.246',-2.81
'0:08.250',-2.33
'0:08.254',-1.42
'0:08.258',0.74
'0:08.262',3.94
'0:08.266',6.88
'0:08.270',8.37
'0:08.273',7.03
'0:08.277',2.15
'0:08.281',-3.6
'0:08.285',-7.52
'0:08.289',-9.46
'0:08.293',-9.99
'0:08.297',-9.68
'0:08.301',-9.17
'0:08.305',-8.42
'0:08.309',-7.69
'0:08.313',-6.44
'0:08.316',-5.08
'0:08.320',-3.92
'0:08.324',-3.08
'0:08.328',-2.18
'0:08.332',-1.55
'0:08.336',-1.08
'0:08.340',-0.9
'0:08.344',-0.73
'0:08.348',-0.58
'0:08.352',-0.58
'0:08.355',-0.37
'0:08.359',-0.26
'0:08.363',-0.16
'0:08.367',-0.26
'0:08.371',-0.65
'0:08.375',-1.35
'0:08.379',-1.94
'0:08.383',-2.34
'0:08.387',-1.98
'0:08.391',-1.14
'0:08.395',-0.65
'0:08.398',-0.53
'0:08.402',-0.63
'0:08.406',-0.92
'0:08.410',-1.24
'0:08.414',-1.36
'0:08.418',-1.43
'0:08.422',-1.46
'0:08.426',-1.49
'0:08.430',-0.97
'0:08.434',-0.55
'0:08.438',-0.31
'0:08.441',-0.14
'0:08.445',-0.41
'0:08.449',-0.46
'0:08.453',-0.3
'0:08.457',0.47
'0:08.461',1.16
'0:08.465',1.63
'0:08.469',1.78
'0:08.473',1.83
'0:08.477',2.1
'0:08.480',2.19
'0:08.484',2.21
'0:08.488',2.22
'0:08.492',2.02
'0:08.496',1.76
'0:08.500',1.54
'0:08.504',1.1
'0:08.508',0.63
'0:08.512',-0.11
'0:08.516',-0.64
'0:08.520',-0.61
'0:08.523',-0.46
'0:08.527',-0.62
'0:08.531',-0.89
'0:08.535',-0.88
'0:08.539',-0.8
'0:08.543',-1.07
'0:08.547',-1.24
'0:08.551',-1.83
'0:08.555',-2.35
'0:08.559',-2.3
'0:08.563',-1.48
'0:08.566',0.71
'0:08.570',3.93
'0:08.574',7.16
'0:08.578',9.7
'0:08.582',10.45
'0:08.586',7.78
'0:08.590',1.69
'0:08.594',-3.76
'0:08.598',-6.9
'0:08.602',-8.12
'0:08.605',-8.57
'0:08.609',-8.89
'0:08.613',-8.63
'0:08.617',-8.63
'0:08.621',-8.89
'0:08.625',-7.97
'0:08.629',-5.22
'0:08.633',-1.81
'0:08.637',0.37
'0:08.641',0.97
'0:08.645',0.81
'0:08.648',0.88
'0:08.652',1.88
'0:08.656',2.26
'0:08.660',2.1
'0:08.664',2.52
'0:08.668',2.85
'0:08.672',2.93
'0:08.676',3.22
'0:08.680',3.34
'0:08.684',3.03
'0:08.688',2.83
'0:08.691',2.74
'0:08.695',2.57
'0:08.699',2.06
'0:08.703',2.17
'0:08.707',2.63
'0:08.711',3.15
'0:08.715',3.34
'0:08.719',3
'0:08.723',2.17
'0:08.727',1.21
'0:08.730',0.92
'0:08.734',1.78
'0:08.738',2.93
'0:08.742',3.3
'0:08.746',2.4
'0:08.750',0.97
'0:08.754',0.04
'0:08.758',-0.84
'0:08.762',-1.69
'0:08.766',-1.59
'0:08.770',-1.74
'0:08.773',-2.26
'0:08.777',-2.29
'0:08.781',-1.97
'0:08.785',-1.18
'0:08.789',-0.5
'0:08.793',-0.65
'0:08.797',-2.24
'0:08.801',-4.26
'0:08.805',-5.04
'0:08.809',-4.55
'0:08.813',-3.9
'0:08.816',-3.7
'0:08.820',-3.67
'0:08.824',-3.61
'0:08.828',-3.51
'0:08.832',-3.82
'0:08.836',-4.08
'0:08.840',-4.1
'0:08.844',-2.99
'0:08.848',-2.14
'0:08.852',-2.86
'0:08.855',-3.86
'0:08.859',-3.72
'0:08.863',-3.87
'0:08.867',-4.56
'0:08.871',-3.65
'0:08.875',-0.28
'0:08.879',4.82
'0:08.883',9.41
'0:08.887',13.04
'0:08.891',15.34
'0:08.895',14.38
'0:08.898',8.91
'0:08.902',2.62
'0:08.906',-1.69
'0:08.910',-4.62
'0:08.914',-6.91
'0:08.918',-7.78
'0:08.922',-7.84
'0:08.926',-6.89
'0:08.930',-4.79
'0:08.934',-2.44
'0:08.938',-0.2
'0:08.941',1.43
'0:08.945',1.76
'0:08.949',1.71
'0:08.953',2.45
'0:08.957',3.88
'0:08.961',5.08
'0:08.965',5.64
'0:08.969',6.18
'0:08.973',6.34
'0:08.977',5.88
'0:08.980',5.24
'0:08.984',4.88
'0:08.988',4.95
'0:08.992',4.88
'0:08.996',4.66
'0:09.000',4.51
'0:09.004',4.46
'0:09.008',4.21
'0:09.012',4.22
'0:09.016',4.53
'0:09.020',4.79
'0:09.023',4.97
'0:09.027',5.14
'0:09.031',4.95
'0:09.035',4.62
'0:09.039',4.82
'0:09.043',5.4
'0:09.047',5.82
'0:09.051',5.68
'0:09.055',5.2
'0:09.059',4.62
'0:09.063',4.26
'0:09.066',3.85
'0:09.070',3.61
'0:09.074',3.66
'0:09.078',3.24
'0:09.082',2.9
'0:09.086',2.79
'0:09.090',2.66
'0:09.094',2.39
'0:09.098',1.86
'0:09.102',1.1
'0:09.105',0.67
'0:09.109',0.61
'0:09.113',0.55
'0:09.117',0.04
'0:09.121',-0.7
'0:09.125',-1.45
'0:09.129',-2.17
'0:09.133',-2.84
'0:09.137',-3.52
'0:09.141',-3.65
'0:09.145',-3.51
'0:09.148',-3.39
'0:09.152',-3.33
'0:09.156',-3.34
'0:09.160',-3.57
'0:09.164',-4.06
'0:09.168',-4.62
'0:09.172',-4.57
'0:09.176',-3.9
'0:09.180',-2.72
'0:09.184',-0.77
'0:09.188',1.56
'0:09.191',3.93
'0:09.195',6.18
'0:09.199',6.76
'0:09.203',3.79
'0:09.207',-2.18
'0:09.211',-7.73
'0:09.215',-11.2
'0:09.219',-12.92
'0:09.223',-13.54
'0:09.227',-13.61
'0:09.230',-12.84
'0:09.234',-11.56
'0:09.238',-9.33
'0:09.242',-6.77
'0:09.246',-4.86
'0:09.250',-3.18
'0:09.254',-1.99
'0:09.258',-1.63
'0:09.262',-0.89
'0:09.266',0.64
'0:09.270',2.04
'0:09.273',2.53
'0:09.277',2.29
'0:09.281',1.35
'0:09.285',0.68
'0:09.289',1.26
'0:09.293',2.16
'0:09.297',2.73
'0:09.301',3.04
'0:09.305',2.92
'0:09.309',3.02
'0:09.313',3.63
'0:09.316',4.6
'0:09.320',5.36
'0:09.324',5.96
'0:09.328',6.53
'0:09.332',7.02
'0:09.336',7.5
'0:09.340',7.53
'0:09.344',7.07
'0:09.348',6.97
'0:09.352',7.02
'0:09.355',7.02
'0:09.359',6.84
'0:09.363',6.1
'0:09.367',5.12
'0:09.371',4.01
'0:09.375',3.1
'0:09.379',2.76
'0:09.383',2.49
'0:09.387',2.03
'0:09.391',1.54
'0:09.395',0.76
'0:09.398',0.12
'0:09.402',-0.28
'0:09.406',-0.44
'0:09.410',-0.51
'0:09.414',-0.68
'0:09.418',-1.29
'0:09.422',-2.21
'0:09.426',-2.77
'0:09.430',-3.01
'0:09.434',-3.07
'0:09.438',-3.19
'0:09.441',-3.51
'0:09.445',-4.12
'0:09.449',-4.7
'0:09.453',-4.84
'0:09.457',-4.97
'0:09.461',-5.16
'0:09.465',-5.09
'0:09.469',-4.39
'0:09.473',-3.66
'0:09.477',-3.09
'0:09.480',-2.36
'0:09.484',-1.32
'0:09.488',0.14
'0:09.492',2.19
'0:09.496',4.96
'0:09.500',7.9
'0:09.504',9.17
'0:09.508',7.83
'0:09.512',3.27
'0:09.516',-2.68
'0:09.520',-7.69
'0:09.523',-10.58
'0:09.527',-11.53
'0:09.531',-11.42
'0:09.535',-10.87
'0:09.539',-9.89
'0:09.543',-8.48
'0:09.547',-6.92
'0:09.551',-5.26
'0:09.555',-3.39
'0:09.559',-1.54
'0:09.563',-0.34
'0:09.566',-0.36
'0:09.570',-0.44
'0:09.574',-0.73
'0:09.578',-0.94
'0:09.582',-0.27
'0:09.586',0.56
'0:09.590',1.44
'0:09.594',1.97
'0:09.598',2.15
'0:09.602',2.44
'0:09.605',3.07
'0:09.609',3.78
'0:09.613',3.83
'0:09.617',4.23
'0:09.621',4.05
'0:09.625',4.14
'0:09.629',4.29
'0:09.633',4.65
'0:09.637',5.39
'0:09.641',6.14
'0:09.645',6.26
'0:09.648',5.99
'0:09.652',5.23
'0:09.656',4.88
'0:09.660',5
'0:09.664',4.78
'0:09.668',4.21
'0:09.672',3.79
'0:09.676',3.66
'0:09.680',3.52
'0:09.684',3.43
'0:09.688',2.96
'0:09.691',2.24
'0:09.695',1.51
'0:09.699',0.93
'0:09.703',0.49
'0:09.707',-0.14
'0:09.711',-0.97
'0:09.715',-1.49
'0:09.719',-1.9
'0:09.723',-2.56
'0:09.727',-3.16
'0:09.730',-3.5
'0:09.734',-3.48
'0:09.738',-3.43
'0:09.742',-3.65
'0:09.746',-3.92
'0:09.750',-3.99
'0:09.754',-4.36
'0:09.758',-4.58
'0:09.762',-4.54
'0:09.766',-4.41
'0:09.770',-4.34
'0:09.773',-4.52
'0:09.777',-4.65
'0:09.781',-4.68
'0:09.785',-4.6
'0:09.789',-3.99
'0:09.793',-2.85
'0:09.797',-0.95
'0:09.801',2
'0:09.805',5.34
'0:09.809',8.65
'0:09.813',11.54
'0:09.816',12.07
'0:09.820',8.58
'0:09.824',1.67
'0:09.828',-4.65
'0:09.832',-8.53
'0:09.836',-10.93
'0:09.840',-12.01
'0:09.844',-12.13
'0:09.848',-11.76
'0:09.852',-10.91
'0:09.855',-9.49
'0:09.859',-7.62
'0:09.863',-5.78
'0:09.867',-4.04
'0:09.871',-2.58
'0:09.875',-1.39
'0:09.879',-0.37
'0:09.883',0.27
'0:09.887',0.85
'0:09.891',1.16
'0:09.895',1.52
'0:09.898',1.85
'0:09.902',2.07
'0:09.906',2.17
'0:09.910',2.22
'0:09.914',2.34
'0:09.918',2.53
'0:09.922',2.43
'0:09.926',2.31
'0:09.930',2.41
'0:09.934',2.63
'0:09.938',2.75
'0:09.941',2.86
'0:09.945',2.95
'0:09.949',2.9
'0:09.953',2.82
'0:09.957',2.73
'0:09.961',2.8
'0:09.965',2.78
'0:09.969',2.64
'0:09.973',2.63
'0:09.977',2.43
'0:09.980',1.95
'0:09.984',1.59
'0:09.988',1.57
'0:09.992',1.51
'0:09.996',1.28
'0:10.000',1.03
'0:10.004',0.89
'0:10.008',1.18
'0:10.012',1.41
'0:10.016',1.11
'0:10.020',0.6
'0:10.023',0.44
'0:10.027',0.76
'0:10.031',0.83
'0:10.035',0.63
'0:10.039',0.29
'0:10.043',-0.49
'0:10.047',-0.84
'0:10.051',-1.27
'0:10.055',-1.7
'0:10.059',-2.1
'0:10.063',-2.44
'0:10.066',-2.78
'0:10.070',-3.22
'0:10.074',-2.92
'0:10.078',-2.13
'0:10.082',-1.85
'0:10.086',-2.06
'0:10.090',-2
'0:10.094',-1.82
'0:10.098',-1.63
'0:10.102',-0.49
'0:10.105',1.43
'0:10.109',4.02
'0:10.113',6.78
'0:10.117',8.6
'0:10.121',8.9
'0:10.125',5.93
'0:10.129',-0.36
'0:10.133',-6.65
'0:10.137',-10.82
'0:10.141',-12.64
'0:10.145',-13.35
'0:10.148',-13.74
'0:10.152',-13.53
'0:10.156',-12.46
'0:10.160',-10.61
'0:10.164',-8.65
'0:10.168',-6.64
'0:10.172',-5.15
'0:10.176',-4.77
'0:10.180',-3.88
'0:10.184',-2.81
'0:10.188',-2.5
'0:10.191',-2.71
'0:10.195',-3.18
'0:10.199',-2.88
'0:10.203',-2.61
'0:10.207',-2.75
'0:10.211',-2.5
'0:10.215',-2.21
'0:10.219',-2.75
'0:10.223',-3.13
'0:10.227',-3.04
'0:10.230',-2.96
'0:10.234',-2.99
'0:10.238',-2.89
'0:10.242',-2.65
'0:10.246',-2.38
'0:10.250',-2.2
'0:10.254',-2.5
'0:10.258',-2.11
'0:10.262',-1.45
'0:10.266',-0.71
'0:10.270',-0.15
'0:10.273',0.49
'0:10.277',0.77
'0:10.281',-0.16
'0:10.285',0.38
'0:10.289',1.46
'0:10.293',1.68
'0:10.297',1.27
'0:10.301',0.92
'0:10.305',0.48
'0:10.309',0.37
'0:10.313',0.23
'0:10.316',0.17
'0:10.320',0.07
'0:10.324',-0.12
'0:10.328',-0.13
'0:10.332',-0.11
'0:10.336',0.27
'0:10.340',-0.06
'0:10.344',-0.78
'0:10.348',-1.61
'0:10.352',-2.4
'0:10.355',-2.3
'0:10.359',-1.92
'0:10.363',-1.66
'0:10.367',-1.65
'0:10.371',-1.71
'0:10.375',-1.36
'0:10.379',-0.46
'0:10.383',0.43
'0:10.387',1.37
'0:10.391',1.46
'0:10.395',1.46
'0:10.398',1.94
'0:10.402',2.97
'0:10.406',4.2
'0:10.410',5.82
'0:10.414',8
'0:10.418',10.73
'0:10.422',13.41
'0:10.426',15
'0:10.430',13.48
'0:10.434',8.37
'0:10.438',2.59
'0:10.441',-1.05
'0:10.445',-2.43
'0:10.449',-2.53
'0:10.453',-2.19
'0:10.457',-1.69
'0:10.461',-0.75
'0:10.465',0.64
'0:10.469',2.16
'0:10.473',3.63
'0:10.477',4.9
'0:10.480',6.06
'0:10.484',6.8
'0:10.488',7.04
'0:10.492',7.01
'0:10.496',6.68
'0:10.500',6.36
'0:10.504',6.27
'0:10.508',6.61
'0:10.512',6.99
'0:10.516',6.99
'0:10.520',6.7
'0:10.523',6.46
'0:10.527',6.29
'0:10.531',6.21
'0:10.535',6.26
'0:10.539',6.18
'0:10.543',6.18
'0:10.547',6.21
'0:10.551',6.14
'0:10.555',5.99
'0:10.559',6.17
'0:10.563',6.32
'0:10.566',6.43
'0:10.570',6.31
'0:10.574',6.16
'0:10.578',5.87
'0:10.582',5.63
'0:10.586',5.5
'0:10.590',4.79
'0:10.594',3.56
'0:10.598',2.08
'0:10.602',0.85
'0:10.605',0.17
'0:10.609',0.19
'0:10.613',0.29
'0:10.617',0.17
'0:10.621',-0.07
'0:10.625',-0.26
'0:10.629',-0.25
'0:10.633',-0.51
'0:10.637',-0.68
'0:10.641',-0.52
'0:10.645',-0.24
'0:10.648',-0.07
'0:10.652',-0.47
'0:10.656',-0.97
'0:10.660',-1.19
'0:10.664',-1.55
'0:10.668',-2.51
'0:10.672',-3.09
'0:10.676',-3.29
'0:10.680',-3.22
'0:10.684',-3.28
'0:10.688',-3.41
'0:10.691',-3.36
'0:10.695',-3.66
'0:10.699',-3.99
'0:10.703',-3.87
'0:10.707',-3.58
'0:10.711',-3.28
'0:10.715',-2.96
'0:10.719',-1.52
'0:10.723',1.17
'0:10.727',4.43
'0:10.730',7.96
'0:10.734',10.84
'0:10.738',11.18
'0:10.742',7.29
'0:10.746',-0.03
'0:10.750',-6.7
'0:10.754',-10.5
'0:10.758',-12.28
'0:10.762',-12.81
'0:10.766',-13.16
'0:10.770',-13.14
'0:10.773',-12.22
'0:10.777',-10.76
'0:10.781',-8.97
'0:10.785',-7.18
'0:10.789',-5.8
'0:10.793',-4.5
'0:10.797',-3.52
'0:10.801',-2.65
'0:10.805',-2.24
'0:10.809',-1.95
'0:10.813',-1.65
'0:10.816',-1.24
'0:10.820',-1.09
'0:10.824',-1.42
'0:10.828',-1.97
'0:10.832',-2.33
'0:10.836',-2.42
'0:10.840',-2.56
'0:10.844',-2.48
'0:10.848',-1.99
'0:10.852',-1.61
'0:10.855',-1.33
'0:10.859',-1.03
'0:10.863',-1.05
'0:10.867',-0.92
'0:10.871',-0.35
'0:10.875',0.18
'0:10.879',0.69
'0:10.883',1.66
'0:10.887',2.5
'0:10.891',2.76
'0:10.895',2.29
'0:10.898',1.54
'0:10.902',1.2
'0:10.906',1.44
'0:10.910',1.39
'0:10.914',0.97
'0:10.918',0.74
'0:10.922',0.63
'0:10.926',0.08
'0:10.930',-0.05
'0:10.934',0.22
'0:10.938',0.25
'0:10.941',0
'0:10.945',-0.47
'0:10.949',-1.18
'0:10.953',-2.22
'0:10.957',-3.37
'0:10.961',-4.23
'0:10.965',-4.29
'0:10.969',-4
'0:10.973',-4.34
'0:10.977',-5.27
'0:10.980',-5.75
'0:10.984',-5.57
'0:10.988',-5.12
'0:10.992',-4.71
'0:10.996',-4.63
'0:11.000',-4.77
'0:11.004',-5.39
'0:11.008',-6.38
'0:11.012',-6.87
'0:11.016',-6.74
'0:11.020',-5.98
'0:11.023',-5.13
'0:11.027',-4.19
'0:11.031',-2.74
'0:11.035',-0.35
'0:11.039',2.09
'0:11.043',4.74
'0:11.047',5.98
'0:11.051',3.93
'0:11.055',-1.28
'0:11.059',-6.94
'0:11.063',-10.52
'0:11.066',-11.9
'0:11.070',-11.99
'0:11.074',-11.54
'0:11.078',-11.47
'0:11.082',-11.09
'0:11.086',-8.91
'0:11.090',-5.76
'0:11.094',-3.13
'0:11.098',-1.29
'0:11.102',-0.39
'0:11.105',0.3
'0:11.109',1.01
'0:11.113',2.19
'0:11.117',3.37
'0:11.121',3.83
'0:11.125',3.87
'0:11.129',3.8
'0:11.133',4.15
'0:11.137',4.42
'0:11.141',5.11
'0:11.145',5.73
'0:11.148',6.48
'0:11.152',6.84
'0:11.156',6.68
'0:11.160',6.7
'0:11.164',7.23
'0:11.168',7.41
'0:11.172',7.63
'0:11.176',7.87
'0:11.180',7.68
'0:11.184',7.71
'0:11.188',8.44
'0:11.191',9.43
'0:11.195',10.14
'0:11.199',10.33
'0:11.203',10.23
'0:11.207',9.72
'0:11.211',8.84
'0:11.215',8.3
'0:11.219',7.96
'0:11.223',7.43
'0:11.227',6.71
'0:11.230',5.7
'0:11.234',5.2
'0:11.238',5.46
'0:11.242',5.44
'0:11.246',5.29
'0:11.250',4.72
'0:11.254',4.19
'0:11.258',4.16
'0:11.262',3.7
'0:11.266',2.78
'0:11.270',2.42
'0:11.273',2.26
'0:11.277',1.67
'0:11.281',1.1
'0:11.285',1
'0:11.289',0.91
'0:11.293',0.49
'0:11.297',0.01
'0:11.301',-0.29
'0:11.305',-0.39
'0:11.309',-0.54
'0:11.313',-0.99
'0:11.316',-1.7
'0:11.320',-2.39
'0:11.324',-3.16
'0:11.328',-3.5
'0:11.332',-2.83
'0:11.336',-1.3
'0:11.340',0.97
'0:11.344',3.71
'0:11.348',5.59
'0:11.352',4.3
'0:11.355',-0.39
'0:11.359',-6.68
'0:11.363',-11.83
'0:11.367',-14.25
'0:11.371',-14.34
'0:11.375',-13.76
'0:11.379',-13.22
'0:11.383',-11.92
'0:11.387',-9.77
'0:11.391',-7.49
'0:11.395',-5.42
'0:11.398',-3.64
'0:11.402',-1.94
'0:11.406',-0.52
'0:11.410',0.45
'0:11.414',1.08
'0:11.418',1.41
'0:11.422',1.66
'0:11.426',1.73
'0:11.430',1.88
'0:11.434',2.04
'0:11.438',1.87
'0:11.441',1.78
'0:11.445',1.83
'0:11.449',1.9
'0:11.453',1.76
'0:11.457',1.93
'0:11.461',2.17
'0:11.465',2.24
'0:11.469',2.42
'0:11.473',2.75
'0:11.477',2.89
'0:11.480',3.19
'0:11.484',3.29
'0:11.488',3.54
'0:11.492',3.85
'0:11.496',3.65
'0:11.500',3.59
'0:11.504',3.73
'0:11.508',3.82
'0:11.512',3.72
'0:11.516',3.7
'0:11.520',3.39
'0:11.523',3.17
'0:11.527',2.68
'0:11.531',2.07
'0:11.535',1.88
'0:11.539',1.85
'0:11.543',1.47
'0:11.547',0.7
'0:11.551',0.14
'0:11.555',-0.37
'0:11.559',-0.65
'0:11.563',-1.09
'0:11.566',-1.67
'0:11.570',-2.14
'0:11.574',-2.27
'0:11.578',-2.42
'0:11.582',-2.52
'0:11.586',-3.12
'0:11.590',-3.47
'0:11.594',-3.55
'0:11.598',-3.81
'0:11.602',-4.05
'0:11.605',-3.97
'0:11.609',-3.73
'0:11.613',-3.68
'0:11.617',-3.82
'0:11.621',-3.75
'0:11.625',-3.6
'0:11.629',-4
'0:11.633',-4.18
'0:11.637',-3.23
'0:11.641',-2.11
'0:11.645',-0.43
'0:11.648',2.25
'0:11.652',5.46
'0:11.656',8.3
'0:11.660',9.63
'0:11.664',8.01
'0:11.668',2.46
'0:11.672',-3.88
'0:11.676',-8.74
'0:11.680',-11.65
'0:11.684',-12.81
'0:11.688',-12.83
'0:11.691',-12.5
'0:11.695',-12
'0:11.699',-10.99
'0:11.703',-9.08
'0:11.707',-6.92
'0:11.711',-5.08
'0:11.715',-3.82
'0:11.719',-2.95
'0:11.723',-2.53
'0:11.727',-2.27
'0:11.730',-1.84
'0:11.734',-0.97
'0:11.738',-0.54
'0:11.742',-0.7
'0:11.746',-0.71
'0:11.750',-0.9
'0:11.754',-0.65
'0:11.758',0.11
'0:11.762',0.26
'0:11.766',0.18
'0:11.770',0.37
'0:11.773',0.92
'0:11.777',0.9
'0:11.781',0.81
'0:11.785',1.2
'0:11.789',2
'0:11.793',2.72
'0:11.797',2.23
'0:11.801',1.49
'0:11.805',1.76
'0:11.809',2.57
'0:11.813',3.37
'0:11.816',3.8
'0:11.820',3.79
'0:11.824',3.83
'0:11.828',4.13
'0:11.832',4.25
'0:11.836',4
'0:11.840',3.92
'0:11.844',3.82
'0:11.848',3.49
'0:11.852',3.18
'0:11.855',3.04
'0:11.859',2.63
'0:11.863',2.15
'0:11.867',2.26
'0:11.871',2.38
'0:11.875',2.33
'0:11.879',1.97
'0:11.883',1.2
'0:11.887',1.34
'0:11.891',1.77
'0:11.895',1.6
'0:11.898',1.24
'0:11.902',0.63
'0:11.906',0.04
'0:11.910',-0.19
'0:11.914',-0.38
'0:11.918',-0.68
'0:11.922',-0.76
'0:11.926',-0.87
'0:11.930',-1.01
'0:11.934',-1.31
'0:11.938',-1.58
'0:11.941',-1.57
'0:11.945',-0.99
'0:11.949',-0.09
'0:11.953',1.19
'0:11.957',3.42
'0:11.961',6.51
'0:11.965',9.71
'0:11.969',12.36
'0:11.973',13.26
'0:11.977',10.25
'0:11.980',3.49
'0:11.984',-2.9
'0:11.988',-7.1
'0:11.992',-9.56
'0:11.996',-10.77
'0:12.000',-11.04
'0:12.004',-10.71
'0:12.008',-9.87
'0:12.012',-8.39
'0:12.016',-6.84
'0:12.020',-5.45
'0:12.023',-4.15
'0:12.027',-2.81
'0:12.031',-1.63
'0:12.035',-0.6
'0:12.039',0.15
'0:12.043',0.82
'0:12.047',1.44
'0:12.051',1.6
'0:12.055',1.6
'0:12.059',2.03
'0:12.063',2.27
'0:12.066',2.25
'0:12.070',2.41
'0:12.074',2.58
'0:12.078',2.48
'0:12.082',2.52
'0:12.086',2.76
'0:12.090',3.09
'0:12.094',3.35
'0:12.098',4.08
'0:12.102',4.85
'0:12.105',5.26
'0:12.109',5.5
'0:12.113',5.31
'0:12.117',5.23
'0:12.121',5.53
'0:12.125',5.82
'0:12.129',5.77
'0:12.133',5.53
'0:12.137',5.09
'0:12.141',4.55
'0:12.145',4.1
'0:12.148',3.9
'0:12.152',3.67
'0:12.156',3.33
'0:12.160',3.01
'0:12.164',2.58
'0:12.168',1.9
'0:12.172',1.07
'0:12.176',0.8
'0:12.180',0.54
'0:12.184',0.35
'0:12.188',0.3
'0:12.191',0.03
'0:12.195',-0.47
'0:12.199',-1.25
'0:12.203',-1.82
'0:12.207',-2.12
'0:12.211',-2.36
'0:12.215',-2.53
'0:12.219',-2.48
'0:12.223',-2.83
'0:12.227',-3.19
'0:12.230',-3.16
'0:12.234',-2.65
'0:12.238',-2.26
'0:12.242',-2.37
'0:12.246',-2.6
'0:12.250',-2.46
'0:12.254',-2.02
'0:12.258',-1.14
'0:12.262',0.14
'0:12.266',1.96
'0:12.270',3.84
'0:12.273',5.78
'0:12.277',6.69
'0:12.281',4.64
'0:12.285',-0.66
'0:12.289',-6.32
'0:12.293',-10.37
'0:12.297',-12.27
'0:12.301',-12.97
'0:12.305',-13.24
'0:12.309',-12.76
'0:12.313',-11.65
'0:12.316',-9.39
'0:12.320',-6.85
'0:12.324',-4.75
'0:12.328',-3.15
'0:12.332',-1.79
'0:12.336',-0.75
'0:12.340',0.01
'0:12.344',0.2
'0:12.348',0.47
'0:12.352',1.14
'0:12.355',1.73
'0:12.359',2.02
'0:12.363',2.1
'0:12.367',2
'0:12.371',1.95
'0:12.375',2.02
'0:12.379',2.19
'0:12.383',2.3
'0:12.387',2.41
'0:12.391',2.34
'0:12.395',2.16
'0:12.398',1.96
'0:12.402',2.16
'0:12.406',2.33
'0:12.410',2.37
'0:12.414',2.46
'0:12.418',2.67
'0:12.422',2.82
'0:12.426',2.73
'0:12.430',2.56
'0:12.434',2.31
'0:12.438',2.25
'0:12.441',2.44
'0:12.445',2.36
'0:12.449',2.19
'0:12.453',2.07
'0:12.457',2.1
'0:12.461',1.92
'0:12.465',1.41
'0:12.469',0.75
'0:12.473',0.27
'0:12.477',-0.17
'0:12.480',-0.84
'0:12.484',-1.42
'0:12.488',-1.92
'0:12.492',-2.32
'0:12.496',-2.52
'0:12.500',-2.61
'0:12.504',-3.05
'0:12.508',-3.54
'0:12.512',-4.05
'0:12.516',-4.31
'0:12.520',-4.31
'0:12.523',-4.73
'0:12.527',-4.85
'0:12.531',-5.14
'0:12.535',-5.41
'0:12.539',-5.31
'0:12.543',-4.74
'0:12.547',-4.26
'0:12.551',-3.79
'0:12.555',-3.43
'0:12.559',-3.13
'0:12.563',-2.16
'0:12.566',-0.98
'0:12.570',0.34
'0:12.574',2.17
'0:12.578',4.79
'0:12.582',7.49
'0:12.586',9.19
'0:12.590',7.33
'0:12.594',1.85
'0:12.598',-4.06
'0:12.602',-8.42
'0:12.605',-10.45
'0:12.609',-10.66
'0:12.613',-10.37
'0:12.617',-9.46
'0:12.621',-8.1
'0:12.625',-6.69
'0:12.629',-4.59
'0:12.633',-2.69
'0:12.637',-0.86
'0:12.641',0.92
'0:12.645',2.37
'0:12.648',3.39
'0:12.652',3.63
'0:12.656',3.64
'0:12.660',3.87
'0:12.664',3.98
'0:12.668',4.17
'0:12.672',4.25
'0:12.676',3.78
'0:12.680',3.14
'0:12.684',2.73
'0:12.688',2.39
'0:12.691',2.2
'0:12.695',2.18
'0:12.699',2.22
'0:12.703',2.46
'0:12.707',2.63
'0:12.711',2.48
'0:12.715',2.24
'0:12.719',2.22
'0:12.723',2.23
'0:12.727',2.39
'0:12.730',2.63
'0:12.734',2.8
'0:12.738',2.87
'0:12.742',2.56
'0:12.746',2.17
'0:12.750',1.94
'0:12.754',1.52
'0:12.758',1.05
'0:12.762',0.83
'0:12.766',0.43
'0:12.770',0.3
'0:12.773',0.43
'0:12.777',0.12
'0:12.781',-0.39
'0:12.785',-0.68
'0:12.789',-0.87
'0:12.793',-1.08
'0:12.797',-1.43
'0:12.801',-1.41
'0:12.805',-1.31
'0:12.809',-1.46
'0:12.813',-1.76
'0:12.816',-2.13
'0:12.820',-2.14
'0:12.824',-2.08
'0:12.828',-2.34
'0:12.832',-2.48
'0:12.836',-2.36
'0:12.840',-2
'0:12.844',-1.56
'0:12.848',-1.26
'0:12.852',-1.17
'0:12.855',-1.17
'0:12.859',-1.19
'0:12.863',-1.26
'0:12.867',-1.16
'0:12.871',-0.6
'0:12.875',0.38
'0:12.879',2.17
'0:12.883',4.71
'0:12.887',7.8
'0:12.891',10.96
'0:12.895',13.45
'0:12.898',13.78
'0:12.902',9.65
'0:12.906',2.61
'0:12.910',-3.5
'0:12.914',-7.29
'0:12.918',-9.27
'0:12.922',-10.25
'0:12.926',-10.49
'0:12.930',-10.18
'0:12.934',-8.97
'0:12.938',-7.23
'0:12.941',-5.35
'0:12.945',-3.49
'0:12.949',-1.96
'0:12.953',-0.89
'0:12.957',-0.12
'0:12.961',0.52
'0:12.965',0.98
'0:12.969',1.2
'0:12.973',1.24
'0:12.977',1.15
'0:12.980',1.25
'0:12.984',1.42
'0:12.988',1.64
'0:12.992',1.76
'0:12.996',1.8
'0:13.000',1.68
'0:13.004',1.89
'0:13.008',2.17
'0:13.012',2.32
'0:13.016',2.28
'0:13.020',2.41
'0:13.023',2.64
'0:13.027',2.88
'0:13.031',3.12
'0:13.035',3.35
'0:13.039',3.65
'0:13.043',3.85
'0:13.047',3.83
'0:13.051',3.53
'0:13.055',3.36
'0:13.059',3.45
'0:13.063',3.46
'0:13.066',3.25
'0:13.070',3.02
'0:13.074',2.68
'0:13.078',2.11
'0:13.082',1.37
'0:13.086',0.95
'0:13.090',0.88
'0:13.094',0.9
'0:13.098',0.68
'0:13.102',0
'0:13.105',-0.63
'0:13.109',-1.04
'0:13.113',-1.4
'0:13.117',-1.91
'0:13.121',-2.96
'0:13.125',-4.01
'0:13.129',-4.86
'0:13.133',-5.73
'0:13.137',-5.32
'0:13.141',-3.74
'0:13.145',-2.85
'0:13.148',-3.08
'0:13.152',-3.62
'0:13.156',-3.41
'0:13.160',-3.38
'0:13.164',-3.48
'0:13.168',-4.01
'0:13.172',-4.34
'0:13.176',-3.96
'0:13.180',-3.05
'0:13.184',-1.89
'0:13.188',-0.5
'0:13.191',1.04
'0:13.195',2.91
'0:13.199',5.33
'0:13.203',6.17
'0:13.207',3.58
'0:13.211',-2.02
'0:13.215',-7.83
'0:13.219',-11.89
'0:13.223',-14.24
'0:13.227',-14.18
'0:13.230',-12.79
'0:13.234',-11.69
'0:13.238',-10.81
'0:13.242',-9.41
'0:13.246',-7.75
'0:13.250',-5.88
'0:13.254',-4.15
'0:13.258',-2.5
'0:13.262',-1.26
'0:13.266',-0.65
'0:13.270',-0.61
'0:13.273',-0.85
'0:13.277',-0.57
'0:13.281',-0.19
'0:13.285',-0.14
'0:13.289',-0.14
'0:13.293',0.1
'0:13.297',0.46
'0:13.301',0.72
'0:13.305',0.88
'0:13.309',0.83
'0:13.313',0.89
'0:13.316',1.35
'0:13.320',1.88
'0:13.324',2.3
'0:13.328',2.91
'0:13.332',3.17
'0:13.336',3.56
'0:13.340',3.7
'0:13.344',3.64
'0:13.348',3.78
'0:13.352',3.9
'0:13.355',4.37
'0:13.359',5.15
'0:13.363',5.65
'0:13.367',5.85
'0:13.371',5.56
'0:13.375',5.36
'0:13.379',5.43
'0:13.383',5.12
'0:13.387',4.7
'0:13.391',4.63
'0:13.395',4.64
'0:13.398',4.85
'0:13.402',4.99
'0:13.406',5.06
'0:13.410',5.09
'0:13.414',5.27
'0:13.418',5.17
'0:13.422',4.95
'0:13.426',4.58
'0:13.430',4.21
'0:13.434',3.65
'0:13.438',2.63
'0:13.441',1.87
'0:13.445',1.43
'0:13.449',0.92
'0:13.453',0.44
'0:13.457',0.4
'0:13.461',0.83
'0:13.465',1.14
'0:13.469',1.04
'0:13.473',0.68
'0:13.477',0.29
'0:13.480',-0.2
'0:13.484',-0.63
'0:13.488',-0.65
'0:13.492',-0.33
'0:13.496',0.38
'0:13.500',1.93
'0:13.504',4.41
'0:13.508',7.22
'0:13.512',9.7
'0:13.516',10
'0:13.520',6.44
'0:13.523',0.28
'0:13.527',-5.09
'0:13.531',-8.47
'0:13.535',-10.28
'0:13.539',-10.77
'0:13.543',-10.97
'0:13.547',-10.64
'0:13.551',-9.7
'0:13.555',-7.98
'0:13.559',-5.98
'0:13.563',-4.23
'0:13.566',-2.47
'0:13.570',-1.08
'0:13.574',-0.14
'0:13.578',0.84
'0:13.582',1.62
'0:13.586',2.52
'0:13.590',3
'0:13.594',3.1
'0:13.598',3.02
'0:13.602',2.85
'0:13.605',2.73
'0:13.609',2.86
'0:13.613',2.98
'0:13.617',3.17
'0:13.621',3.46
'0:13.625',3.64
'0:13.629',3.94
'0:13.633',3.93
'0:13.637',4.28
'0:13.641',4.88
'0:13.645',4.95
'0:13.648',4.61
'0:13.652',4.61
'0:13.656',4.63
'0:13.660',4.82
'0:13.664',4.71
'0:13.668',4.46
'0:13.672',3.82
'0:13.676',3.19
'0:13.680',2.86
'0:13.684',2.75
'0:13.688',2.39
'0:13.691',2.14
'0:13.695',1.77
'0:13.699',1.47
'0:13.703',1.22
'0:13.707',0.99
'0:13.711',0.61
'0:13.715',0.13
'0:13.719',-0.42
'0:13.723',-0.95
'0:13.727',-1.19
'0:13.730',-1.27
'0:13.734',-1.41
'0:13.738',-1.65
'0:13.742',-1.98
'0:13.746',-2.24
'0:13.750',-2.49
'0:13.754',-2.9
'0:13.758',-3.17
'0:13.762',-3.41
'0:13.766',-3.53
'0:13.770',-3.6
'0:13.773',-3.63
'0:13.777',-3.58
'0:13.781',-3.55
'0:13.785',-3.53
'0:13.789',-3.71
'0:13.793',-3.89
'0:13.797',-3.62
'0:13.801',-2.84
'0:13.805',-1.42
'0:13.809',0.81
'0:13.813',3.76
'0:13.816',7.07
'0:13.820',10.1
'0:13.824',11.34
'0:13.828',8.53
'0:13.832',1.31
'0:13.836',-6.14
'0:13.840',-11.08
'0:13.844',-13.92
'0:13.848',-15.32
'0:13.852',-15.52
'0:13.855',-14.89
'0:13.859',-14
'0:13.863',-12.86
'0:13.867',-11.03
'0:13.871',-8.99
'0:13.875',-7.55
'0:13.879',-6.07
'0:13.883',-4.32
'0:13.887',-2.69
'0:13.891',-1.7
'0:13.895',-1.24
'0:13.898',-0.74
'0:13.902',-0.38
'0:13.906',-0.64
'0:13.910',-1.29
'0:13.914',-1.35
'0:13.918',-1.14
'0:13.922',-0.25
'0:13.926',0.88
'0:13.930',1.41
'0:13.934',0.95
'0:13.938',0.86
'0:13.941',1.51
'0:13.945',2.08
'0:13.949',2.79
'0:13.953',3.42
'0:13.957',3.66
'0:13.961',3.26
'0:13.965',2.28
'0:13.969',1.76
'0:13.973',1.86
'0:13.977',2.22
'0:13.980',2.46
'0:13.984',2.46
'0:13.988',2
'0:13.992',1.42
'0:13.996',1.47
'0:14.000',1.82
'0:14.004',1.87
'0:14.008',1.26
'0:14.012',0.78
'0:14.016',0.05
'0:14.020',-0.75
'0:14.023',-1.24
'0:14.027',-1.62
'0:14.031',-1.49
'0:14.035',-1.53
'0:14.039',-1.75
'0:14.043',-2.32
'0:14.047',-2.93
'0:14.051',-3.39
'0:14.055',-3.82
'0:14.059',-4.92
'0:14.063',-4.4
'0:14.066',-3.36
'0:14.070',-2.87
'0:14.074',-3.09
'0:14.078',-3.52
'0:14.082',-3.09
'0:14.086',-2.5
'0:14.090',-2.27
'0:14.094',-2.85
'0:14.098',-2.65
'0:14.102',-2.15
'0:14.105',-1.8
'0:14.109',-1.21
'0:14.113',-0.23
'0:14.117',1.39
'0:14.121',3.75
'0:14.125',5.99
'0:14.129',7.69
'0:14.133',7.25
'0:14.137',3.13
'0:14.141',-2.76
'0:14.145',-7.01
'0:14.148',-9.29
'0:14.152',-10.27
'0:14.156',-9.81
'0:14.160',-8.55
'0:14.164',-6.8
'0:14.168',-4.53
'0:14.172',-2.29
'0:14.176',-0.28
'0:14.180',1.46
'0:14.184',2.87
'0:14.188',4.15
'0:14.191',5.01
'0:14.195',5.75
'0:14.199',6.09
'0:14.203',6.46
'0:14.207',7.04
'0:14.211',7.48
'0:14.215',7.38
'0:14.219',7.01
'0:14.223',7.03
'0:14.227',7.69
'0:14.230',8.48
'0:14.234',8.92
'0:14.238',9.19
'0:14.242',9.36
'0:14.246',9.5
'0:14.250',9.59
'0:14.254',9.7
'0:14.258',9.71
'0:14.262',9.55
'0:14.266',9.5
'0:14.270',9.53
'0:14.273',9.4
'0:14.277',9.12
'0:14.281',8.89
'0:14.285',8.71
'0:14.289',8.5
'0:14.293',7.98
'0:14.297',7.35
'0:14.301',6.77
'0:14.305',6.05
'0:14.309',5.18
'0:14.313',4.51
'0:14.316',3.85
'0:14.320',3.39
'0:14.324',2.94
'0:14.328',2.45
'0:14.332',2.02
'0:14.336',1.62
'0:14.340',1.32
'0:14.344',1.05
'0:14.348',0.86
'0:14.352',0.59
'0:14.355',0.02
'0:14.359',-0.7
'0:14.363',-1.3
'0:14.367',-1.68
'0:14.371',-2.05
'0:14.375',-2.56
'0:14.379',-3.22
'0:14.383',-3.52
'0:14.387',-3.28
'0:14.391',-2.92
'0:14.395',-2.87
'0:14.398',-2.82
'0:14.402',-2.75
'0:14.406',-2.92
'0:14.410',-3.24
'0:14.414',-3.01
'0:14.418',-2.16
'0:14.422',-1.17
'0:14.426',0.42
'0:14.430',2.89
'0:14.434',5.78
'0:14.438',8.33
'0:14.441',8.74
'0:14.445',5.07
'0:14.449',-1.15
'0:14.453',-6.78
'0:14.457',-10.22
'0:14.461',-12.02
'0:14.465',-12.94
'0:14.469',-13.37
'0:14.473',-13.13
'0:14.477',-11.89
'0:14.480',-9.72
'0:14.484',-6.96
'0:14.488',-4.81
'0:14.492',-3.37
'0:14.496',-2.06
'0:14.500',-1.34
'0:14.504',-0.64
'0:14.508',0.03
'0:14.512',0.54
'0:14.516',0.59
'0:14.520',0.58
'0:14.523',0.66
'0:14.527',0.86
'0:14.531',0.83
'0:14.535',0.83
'0:14.539',0.79
'0:14.543',0.92
'0:14.547',1
'0:14.551',0.95
'0:14.555',1.25
'0:14.559',1.64
'0:14.563',2
'0:14.566',2.24
'0:14.570',2.19
'0:14.574',1.99
'0:14.578',1.45
'0:14.582',1.14
'0:14.586',1.17
'0:14.590',1.42
'0:14.594',1.68
'0:14.598',2.12
'0:14.602',1.95
'0:14.605',1.6
'0:14.609',1.24
'0:14.613',0.95
'0:14.617',0.7
'0:14.621',0.46
'0:14.625',0.36
'0:14.629',0.12
'0:14.633',-0.32
'0:14.637',-0.73
'0:14.641',-0.9
'0:14.645',-1.04
'0:14.648',-1.05
'0:14.652',-1.34
'0:14.656',-1.63
'0:14.660',-1.92
'0:14.664',-2.14
'0:14.668',-2.49
'0:14.672',-3.01
'0:14.676',-3.71
'0:14.680',-4.44
'0:14.684',-4.52
'0:14.688',-4.08
'0:14.691',-3.75
'0:14.695',-3.72
'0:14.699',-3.78
'0:14.703',-4.34
'0:14.707',-5.07
'0:14.711',-5.16
'0:14.715',-4.94
'0:14.719',-4.9
'0:14.723',-4.64
'0:14.727',-3.68
'0:14.730',-2.29
'0:14.734',-0.33
'0:14.738',2.08
'0:14.742',5
'0:14.746',7.92
'0:14.750',9.75
'0:14.754',8.15
'0:14.758',2.19
'0:14.762',-4.55
'0:14.766',-9.16
'0:14.770',-11.45
'0:14.773',-12.15
'0:14.777',-12.09
'0:14.781',-11.65
'0:14.785',-10.92
'0:14.789',-9.72
'0:14.793',-8.04
'0:14.797',-5.98
'0:14.801',-4.42
'0:14.805',-3.19
'0:14.809',-2.36
'0:14.813',-1.96
'0:14.816',-1.55
'0:14.820',-0.91
'0:14.824',-0.15
'0:14.828',0.61
'0:14.832',0.93
'0:14.836',1.12
'0:14.840',1.1
'0:14.844',0.9
'0:14.848',0.86
'0:14.852',0.85
'0:14.855',1.3
'0:14.859',2.05
'0:14.863',2.44
'0:14.867',2.56
'0:14.871',3.12
'0:14.875',4.08
'0:14.879',4.7
'0:14.883',4.92
'0:14.887',4.87
'0:14.891',4.87
'0:14.895',4.89
'0:14.898',5.34
'0:14.902',5.88
'0:14.906',6.07
'0:14.910',5.8
'0:14.914',5.43
'0:14.918',4.72
'0:14.922',4.14
'0:14.926',4.25
'0:14.930',4.29
'0:14.934',4.04
'0:14.938',3.38
'0:14.941',2.45
'0:14.945',1.73
'0:14.949',1.46
'0:14.953',1.55
'0:14.957',1.41
'0:14.961',0.84
'0:14.965',0.02
'0:14.969',-0.8
'0:14.973',-1.02
'0:14.977',-1
'0:14.980',-1.32
'0:14.984',-1.94
'0:14.988',-2
'0:14.992',-1.95
'0:14.996',-2.22
'0:15.000',-2.31
'0:15.004',-2.17
'0:15.008',-2.07
'0:15.012',-1.9
'0:15.016',-2.45
'0:15.020',-3.46
'0:15.023',-3.02
'0:15.027',-2.24
'0:15.031',-2.04
'0:15.035',-1.86
'0:15.039',-0.81
'0:15.043',1.27
'0:15.047',3.66
'0:15.051',6.27
'0:15.055',8.7
'0:15.059',8.32
'0:15.063',3.92
'0:15.066',-2.35
'0:15.070',-7.54
'0:15.074',-10.63
'0:15.078',-11.67
'0:15.082',-11.56
'0:15.086',-10.71
'0:15.090',-9.73
'0:15.094',-8.51
'0:15.098',-6.63
'0:15.102',-4.27
'0:15.105',-1.9
'0:15.109',-0.23
'0:15.113',1
'0:15.117',1.54
'0:15.121',2.08
'0:15.125',2.88
'0:15.129',3.46
'0:15.133',4.07
'0:15.137',4.22
'0:15.141',4.23
'0:15.145',4.26
'0:15.148',4.29
'0:15.152',4.36
'0:15.156',4.34
'0:15.160',4.35
'0:15.164',4.57
'0:15.168',4.82
'0:15.172',5.12
'0:15.176',5.21
'0:15.180',5.22
'0:15.184',5.46
'0:15.188',5.78
'0:15.191',5.58
'0:15.195',4.64
'0:15.199',3.94
'0:15.203',5.46
'0:15.207',6.81
'0:15.211',6.43
'0:15.215',5.3
'0:15.219',3.99
'0:15.223',3.41
'0:15.227',3
'0:15.230',2.67
'0:15.234',2.23
'0:15.238',1.5
'0:15.242',0.62
'0:15.246',-0.11
'0:15.250',-0.54
'0:15.254',-0.98
'0:15.258',-1.62
'0:15.262',-2.2
'0:15.266',-2.49
'0:15.270',-2.6
'0:15.273',-2.6
'0:15.277',-2.38
'0:15.281',-1.82
'0:15.285',-1.84
'0:15.289',-2.44
'0:15.293',-2.86
'0:15.297',-3.1
'0:15.301',-3.29
'0:15.305',-3.53
'0:15.309',-3.18
'0:15.313',-2.85
'0:15.316',-2.94
'0:15.320',-3.25
'0:15.324',-3.82
'0:15.328',-4.12
'0:15.332',-4.2
'0:15.336',-4.09
'0:15.340',-3.57
'0:15.344',-2.63
'0:15.348',-1.29
'0:15.352',0.7
'0:15.355',3.67
'0:15.359',6.89
'0:15.363',8.97
'0:15.367',8.21
'0:15.371',3.54
'0:15.375',-2.64
'0:15.379',-7.63
'0:15.383',-10.31
'0:15.387',-11.52
'0:15.391',-12.12
'0:15.395',-11.82
'0:15.398',-10.92
'0:15.402',-9.6
'0:15.406',-7.97
'0:15.410',-6.18
'0:15.414',-4.51
'0:15.418',-3.1
'0:15.422',-1.82
'0:15.426',-0.93
'0:15.430',-0.54
'0:15.434',0.29
'0:15.438',1.15
'0:15.441',1.12
'0:15.445',0.5
'0:15.449',0.23
'0:15.453',0.9
'0:15.457',1.56
'0:15.461',1.95
'0:15.465',2.38
'0:15.469',1.71
'0:15.473',1.1
'0:15.477',0.85
'0:15.480',0.96
'0:15.484',1.26
'0:15.488',1.44
'0:15.492',1.45
'0:15.496',1.69
'0:15.500',2.13
'0:15.504',2.61
'0:15.508',2.9
'0:15.512',2.7
'0:15.516',2.61
'0:15.520',2.47
'0:15.523',2.5
'0:15.527',2.16
'0:15.531',2.08
'0:15.535',2.84
'0:15.539',2.89
'0:15.543',2.19
'0:15.547',1.35
'0:15.551',0.58
'0:15.555',0.15
'0:15.559',-0.09
'0:15.563',-0.64
'0:15.566',-0.84
'0:15.570',-0.78
'0:15.574',-0.7
'0:15.578',-0.54
'0:15.582',-0.56
'0:15.586',-0.7
'0:15.590',-0.98
'0:15.594',-1.39
'0:15.598',-1.61
'0:15.602',-1.72
'0:15.605',-2.03
'0:15.609',-2.31
'0:15.613',-2.24
'0:15.617',-2.41
'0:15.621',-2.7
'0:15.625',-2.8
'0:15.629',-3.05
'0:15.633',-3.09
'0:15.637',-2.92
'0:15.641',-2.85
'0:15.645',-2.9
'0:15.648',-2.96
'0:15.652',-2.45
'0:15.656',-1.16
'0:15.660',1.29
'0:15.664',4.51
'0:15.668',7.89
'0:15.672',10.77
'0:15.676',12.99
'0:15.680',12.51
'0:15.684',7.55
'0:15.688',0.66
'0:15.691',-4.88
'0:15.695',-8.12
'0:15.699',-9.58
'0:15.703',-10.11
'0:15.707',-9.97
'0:15.711',-8.96
'0:15.715',-7.38
'0:15.719',-5.37
'0:15.723',-3.39
'0:15.727',-1.93
'0:15.730',-0.62
'0:15.734',0.5
'0:15.738',1.43
'0:15.742',1.99
'0:15.746',2.25
'0:15.750',2.33
'0:15.754',2.22
'0:15.758',2.23
'0:15.762',2.52
'0:15.766',2.68
'0:15.770',2.75
'0:15.773',2.62
'0:15.777',2.32
'0:15.781',2.28
'0:15.785',2.47
'0:15.789',2.58
'0:15.793',2.58
'0:15.797',2.36
'0:15.801',1.98
'0:15.805',1.93
'0:15.809',2.18
'0:15.813',2.54
'0:15.816',2.81
'0:15.820',2.99
'0:15.824',3.1
'0:15.828',3.17
'0:15.832',3.17
'0:15.836',3.33
'0:15.840',3.61
'0:15.844',3.63
'0:15.848',3.68
'0:15.852',3.56
'0:15.855',3.18
'0:15.859',2.57
'0:15.863',1.88
'0:15.867',2.03
'0:15.871',2.49
'0:15.875',2.59
'0:15.879',2.49
'0:15.883',2.24
'0:15.887',2.04
'0:15.891',1.68
'0:15.895',1.07
'0:15.898',0.51
'0:15.902',-0.01
'0:15.906',-1.07
'0:15.910',-2.26
'0:15.914',-3.17
'0:15.918',-3.66
'0:15.922',-3.99
'0:15.926',-4.26
'0:15.930',-4.38
'0:15.934',-4.23
'0:15.938',-4.29
'0:15.941',-4.36
'0:15.945',-4.62
'0:15.949',-5.19
'0:15.953',-5.72
'0:15.957',-5.53
'0:15.961',-4.66
'0:15.965',-3.63
'0:15.969',-2.18
'0:15.973',0.19
'0:15.977',2.88
'0:15.980',5.32
'0:15.984',5.72
'0:15.988',2.66
'0:15.992',-3.19
'0:15.996',-8.63
'0:16.000',-11.68
'0:16.004',-12.86
'0:16.008',-13.17
'0:16.012',-12.79
'0:16.016',-11.81
'0:16.020',-10.17
'0:16.023',-8.25
'0:16.027',-6.37
'0:16.031',-4.83
'0:16.035',-3.31
'0:16.039',-2.22
'0:16.043',-1.08
'0:16.047',-0.35
'0:16.051',0.34
'0:16.055',1.13
'0:16.059',1.29
'0:16.063',1.38
'0:16.066',1.75
'0:16.070',2.25
'0:16.074',2.38
'0:16.078',2.17
'0:16.082',1.95
'0:16.086',2.06
'0:16.090',2.36
'0:16.094',2.72
'0:16.098',3.14
'0:16.102',3.37
'0:16.105',3.67
'0:16.109',4.02
'0:16.113',4.09
'0:16.117',4.23
'0:16.121',4.49
'0:16.125',4.56
'0:16.129',4.51
'0:16.133',4.46
'0:16.137',4.41
'0:16.141',4.44
'0:16.145',4.43
'0:16.148',4.12
'0:16.152',3.56
'0:16.156',3.1
'0:16.160',2.6
'0:16.164',2.06
'0:16.168',1.6
'0:16.172',1.41
'0:16.176',1.26
'0:16.180',0.99
'0:16.184',0.67
'0:16.188',0.29
'0:16.191',-0.03
'0:16.195',-0.41
'0:16.199',-0.66
'0:16.203',-0.87
'0:16.207',-1.27
'0:16.211',-1.75
'0:16.215',-2.23
'0:16.219',-2.86
'0:16.223',-3.37
'0:16.227',-3.74
'0:16.230',-4.04
'0:16.234',-4.16
'0:16.238',-4.2
'0:16.242',-4.21
'0:16.246',-3.95
'0:16.250',-3.72
'0:16.254',-3.53
'0:16.258',-3.28
'0:16.262',-2.81
'0:16.266',-2.3
'0:16.270',-1.47
'0:16.273',-0.05
'0:16.277',1.86
'0:16.281',4.32
'0:16.285',7.16
'0:16.289',9.15
'0:16.293',8.17
'0:16.297',3.43
'0:16.301',-2.71
'0:16.305',-7.89
'0:16.309',-11
'0:16.313',-11.96
'0:16.316',-11.81
'0:16.320',-10.92
'0:16.324',-9.61
'0:16.328',-8.18
'0:16.332',-6.41
'0:16.336',-4.8
'0:16.340',-3.42
'0:16.344',-2.26
'0:16.348',-1.28
'0:16.352',-0.54
'0:16.355',0.01
'0:16.359',0.22
'0:16.363',0.3
'0:16.367',0.57
'0:16.371',0.84
'0:16.375',0.77
'0:16.379',0.71
'0:16.383',0.72
'0:16.387',0.63
'0:16.391',0.84
'0:16.395',1.48
'0:16.398',2.24
'0:16.402',2.97
'0:16.406',3.17
'0:16.410',3.37
'0:16.414',3.72
'0:16.418',3.57
'0:16.422',3.08
'0:16.426',2.97
'0:16.430',3.19
'0:16.434',3.17
'0:16.438',3.52
'0:16.441',3.99
'0:16.445',4.52
'0:16.449',4.82
'0:16.453',4.8
'0:16.457',4.52
'0:16.461',4.41
'0:16.465',4.68
'0:16.469',5.24
'0:16.473',5.83
'0:16.477',5.34
'0:16.480',4.45
'0:16.484',4.73
'0:16.488',5.23
'0:16.492',5.64
'0:16.496',6.09
'0:16.500',6.64
'0:16.504',7
'0:16.508',7.08
'0:16.512',6.28
'0:16.516',5.28
'0:16.520',4.58
'0:16.523',3.94
'0:16.527',2.86
'0:16.531',1.82
'0:16.535',0.7
'0:16.539',0.09
'0:16.543',-0.25
'0:16.547',-0.33
'0:16.551',-0.16
'0:16.555',-0.1
'0:16.559',-0.8
'0:16.563',-1.87
'0:16.566',-2.51
'0:16.570',-2.67
'0:16.574',-2.79
'0:16.578',-1.97
'0:16.582',-0.27
'0:16.586',2.17
'0:16.590',5.06
'0:16.594',8.02
'0:16.598',10.53
'0:16.602',11.22
'0:16.605',7.88
'0:16.609',1.05
'0:16.613',-4.91
'0:16.617',-8.74
'0:16.621',-10.47
'0:16.625',-10.98
'0:16.629',-11.11
'0:16.633',-11
'0:16.637',-10.61
'0:16.641',-9.9
'0:16.645',-8.73
'0:16.648',-7.34
'0:16.652',-6.15
'0:16.656',-5.02
'0:16.660',-4.42
'0:16.664',-3.92
'0:16.668',-3
'0:16.672',-2.55
'0:16.676',-2.29
'0:16.680',-2.35
'0:16.684',-2.38
'0:16.688',-2.26
'0:16.691',-1.96
'0:16.695',-1.65
'0:16.699',-1.52
'0:16.703',-1.21
'0:16.707',-0.81
'0:16.711',-0.45
'0:16.715',-0.19
'0:16.719',-0.33
'0:16.723',-0.73
'0:16.727',-0.77
'0:16.730',-0.51
'0:16.734',-0.32
'0:16.738',-0.72
'0:16.742',-0.84
'0:16.746',-0.65
'0:16.750',-0.47
'0:16.754',-0.37
'0:16.758',0.03
'0:16.762',0.42
'0:16.766',0.53
'0:16.770',0.39
'0:16.773',0.16
'0:16.777',0.07
'0:16.781',-0.08
'0:16.785',0.02
'0:16.789',0.35
'0:16.793',0.35
'0:16.797',0.31
'0:16.801',0.1
'0:16.805',-0.04
'0:16.809',0.19
'0:16.813',0.46
'0:16.816',0.39
'0:16.820',0.09
'0:16.824',-0.36
'0:16.828',-0.78
'0:16.832',-1.07
'0:16.836',-1.2
'0:16.840',-1.6
'0:16.844',-1.98
'0:16.848',-1.97
'0:16.852',-1.77
'0:16.855',-1.53
'0:16.859',-1.2
'0:16.863',-0.77
'0:16.867',-0.33
'0:16.871',-0.5
'0:16.875',-0.63
'0:16.879',-0.43
'0:16.883',-0.4
'0:16.887',-0.2
'0:16.891',0.53
'0:16.895',1.92
'0:16.898',3.91
'0:16.902',6.63
'0:16.906',9.66
'0:16.910',11.78
'0:16.914',11.45
'0:16.918',7.08
'0:16.922',0.76
'0:16.926',-4.3
'0:16.930',-7.31
'0:16.934',-8.58
'0:16.938',-8.65
'0:16.941',-8.12
'0:16.945',-7.42
'0:16.949',-6
'0:16.953',-4.05
'0:16.957',-2.24
'0:16.961',-0.7
'0:16.965',0.94
'0:16.969',2.47
'0:16.973',3.38
'0:16.977',3.56
'0:16.980',3.35
'0:16.984',3.45
'0:16.988',3.72
'0:16.992',4.15
'0:16.996',5.16
'0:17.000',6.05
'0:17.004',6.43
'0:17.008',6.19
'0:17.012',5.87
'0:17.016',5.55
'0:17.020',5.25
'0:17.023',4.87
'0:17.027',4.91
'0:17.031',5.21
'0:17.035',5.39
'0:17.039',5.13
'0:17.043',5.15
'0:17.047',5.62
'0:17.051',6.16
'0:17.055',6.82
'0:17.059',7.32
'0:17.063',7.48
'0:17.066',7.24
'0:17.070',6.35
'0:17.074',5.44
'0:17.078',5.12
'0:17.082',5.17
'0:17.086',5.36
'0:17.090',5.21
'0:17.094',4.72
'0:17.098',3.71
'0:17.102',2.87
'0:17.105',2.42
'0:17.109',2.4
'0:17.113',2.52
'0:17.117',2.67
'0:17.121',2.86
'0:17.125',2.47
'0:17.129',1.18
'0:17.133',-0.16
'0:17.137',-1.12
'0:17.141',-1.79
'0:17.145',-1.53
'0:17.148',-0.87
'0:17.152',-0.38
'0:17.156',-0.23
'0:17.160',-0.8
'0:17.164',-1.32
'0:17.168',-1.63
'0:17.172',-2.04
'0:17.176',-2.55
'0:17.180',-3.04
'0:17.184',-3.15
'0:17.188',-2.75
'0:17.191',-1.7
'0:17.195',-0.12
'0:17.199',2.19
'0:17.203',4.73
'0:17.207',7.01
'0:17.211',8
'0:17.215',6.27
'0:17.219',1.36
'0:17.223',-4.23
'0:17.227',-8.79
'0:17.230',-11.15
'0:17.234',-11.64
'0:17.238',-11.3
'0:17.242',-10.53
'0:17.246',-9.46
'0:17.250',-7.92
'0:17.254',-6.05
'0:17.258',-4.09
'0:17.262',-2.41
'0:17.266',-1.3
'0:17.270',-0.39
'0:17.273',0.43
'0:17.277',1.3
'0:17.281',1.87
'0:17.285',1.95
'0:17.289',2.55
'0:17.293',2.73
'0:17.297',2.94
'0:17.301',3.28
'0:17.305',3.81
'0:17.309',4.53
'0:17.313',4.56
'0:17.316',3.41
'0:17.320',1.82
'0:17.324',1.4
'0:17.328',1.99
'0:17.332',2.96
'0:17.336',3.33
'0:17.340',3.13
'0:17.344',2.73
'0:17.348',2.18
'0:17.352',2.47
'0:17.355',3.05
'0:17.359',3.05
'0:17.363',3.15
'0:17.367',2.98
'0:17.371',2.49
'0:17.375',2.11
'0:17.379',1.73
'0:17.383',1.23
'0:17.387',1.07
'0:17.391',1.2
'0:17.395',1.26
'0:17.398',0.97
'0:17.402',0.61
'0:17.406',0.41
'0:17.410',0.42
'0:17.414',0.2
'0:17.418',-0.2
'0:17.422',-0.39
'0:17.426',-0.57
'0:17.430',-0.87
'0:17.434',-1.44
'0:17.438',-1.84
'0:17.441',-2.08
'0:17.445',-2.61
'0:17.449',-2.99
'0:17.453',-2.78
'0:17.457',-3
'0:17.461',-3.5
'0:17.465',-3.76
'0:17.469',-4.02
'0:17.473',-4
'0:17.477',-3.81
'0:17.480',-3.29
'0:17.484',-2.77
'0:17.488',-2.37
'0:17.492',-2.52
'0:17.496',-2.61
'0:17.500',-2.38
'0:17.504',-1.75
'0:17.508',-0.23
'0:17.512',2.74
'0:17.516',6.49
'0:17.520',9.81
'0:17.523',11.35
'0:17.527',9.81
'0:17.531',7.03
'0:17.535',7.04
'0:17.539',7.04
'0:17.543',7.04
'0:17.547',-9.63
'0:17.551',-9.64
'0:17.555',-9.49
'0:17.559',-9.38
'0:17.563',-8.75
'0:17.566',-7.3
'0:17.570',-5.26
'0:17.574',-3.39
'0:17.578',-2.06
'0:17.582',-0.96
'0:17.586',-0.17
'0:17.590',0.09
'0:17.594',0.36
'0:17.598',0.76
'0:17.602',0.83
'0:17.605',0.6
'0:17.609',0.56
'0:17.613',0.63
'0:17.617',0.74
'0:17.621',0.87
'0:17.625',0.56
'0:17.629',0.62
'0:17.633',0.73
'0:17.637',0.77
'0:17.641',0.88
'0:17.645',1.01
'0:17.648',1.24
'0:17.652',1.27
'0:17.656',1.21
'0:17.660',1.39
'0:17.664',1.71
'0:17.668',1.96
'0:17.672',2.25
'0:17.676',2.49
'0:17.680',2.56
'0:17.684',2.58
'0:17.688',2.42
'0:17.691',2.06
'0:17.695',1.73
'0:17.699',1.49
'0:17.703',1.11
'0:17.707',0.8
'0:17.711',0.63
'0:17.715',0.39
'0:17.719',0.16
'0:17.723',-0.2
'0:17.727',-0.44
'0:17.730',-0.64
'0:17.734',-0.79
'0:17.738',-0.77
'0:17.742',-0.71
'0:17.746',-0.79
'0:17.750',-1.05
'0:17.754',-1.4
'0:17.758',-1.98
'0:17.762',-2.73
'0:17.766',-3.4
'0:17.770',-3.84
'0:17.773',-4.15
'0:17.777',-4.34
'0:17.781',-4.74
'0:17.785',-4.91
'0:17.789',-4.5
'0:17.793',-4.45
'0:17.797',-4.02
'0:17.801',-3.27
'0:17.805',-3.33
'0:17.809',-4.04
'0:17.813',-4.07
'0:17.816',-3.02
'0:17.820',-1.14
'0:17.824',1.8
'0:17.828',5.08
'0:17.832',8.07
'0:17.836',9.15
'0:17.840',6.61
'0:17.844',0.81
'0:17.848',-4.97
'0:17.852',-8.71
'0:17.855',-10.41
'0:17.859',-11.21
'0:17.863',-10.68
'0:17.867',-9.55
'0:17.871',-8.68
'0:17.875',-7.8
'0:17.879',-6.16
'0:17.883',-4.45
'0:17.887',-3.34
'0:17.891',-2.19
'0:17.895',-0.81
'0:17.898',0.13
'0:17.902',0.89
'0:17.906',1.05
'0:17.910',1.14
'0:17.914',1.75
'0:17.918',2.67
'0:17.922',3.19
'0:17.926',2.81
'0:17.930',2.1
'0:17.934',1.97
'0:17.938',2.15
'0:17.941',2.37
'0:17.945',2.23
'0:17.949',1.87
'0:17.953',2.05
'0:17.957',2.57
'0:17.961',2.98
'0:17.965',3.37
'0:17.969',3.64
'0:17.973',3.78
'0:17.977',3.8
'0:17.980',3.97
'0:17.984',4.37
'0:17.988',4.76
'0:17.992',4.76
'0:17.996',4.14
'0:18.000',3.35
'0:18.004',2.5
'0:18.008',1.75
'0:18.012',0.9
'0:18.016',0.72
'0:18.020',1.18
'0:18.023',1.14
'0:18.027',0.39
'0:18.031',-0.07
'0:18.035',0.37
'0:18.039',1.06
'0:18.043',1.41
'0:18.047',1.14
'0:18.051',0.5
'0:18.055',-0.19
'0:18.059',-0.38
'0:18.063',-0.31
'0:18.066',-0.43
'0:18.070',-0.99
'0:18.074',-1.24
'0:18.078',-1.19
'0:18.082',-1.34
'0:18.086',-1.9
'0:18.090',-2.06
'0:18.094',-1.72
'0:18.098',-1.51
'0:18.102',-1.61
'0:18.105',-1.84
'0:18.109',-2.11
'0:18.113',-1.53
'0:18.117',-0.27
'0:18.121',0.71
'0:18.125',1.61
'0:18.129',3.26
'0:18.133',5.59
'0:18.137',7.97
'0:18.141',8.6
'0:18.145',5.89
'0:18.148',0.18
'0:18.152',-5.26
'0:18.156',-8.77
'0:18.160',-10.46
'0:18.164',-10.85
'0:18.168',-10.34
'0:18.172',-9.28
'0:18.176',-7.95
'0:18.180',-6.26
'0:18.184',-4.45
'0:18.188',-2.68
'0:18.191',-1.11
'0:18.195',0.17
'0:18.199',1.13
'0:18.203',1.87
'0:18.207',2.37
'0:18.211',2.57
'0:18.215',2.32
'0:18.219',2.04
'0:18.223',1.9
'0:18.227',2.01
'0:18.230',2.15
'0:18.234',2.5
'0:18.238',2.73
'0:18.242',2.6
'0:18.246',2.42
'0:18.250',2.46
'0:18.254',2.9
'0:18.258',3.38
'0:18.262',3.65
'0:18.266',3.76
'0:18.270',4.08
'0:18.273',4.03
'0:18.277',3.92
'0:18.281',3.96
'0:18.285',3.93
'0:18.289',4.02
'0:18.293',4.23
'0:18.297',4.37
'0:18.301',4.46
'0:18.305',4.35
'0:18.309',3.85
'0:18.313',3.3
'0:18.316',2.7
'0:18.320',2.28
'0:18.324',1.99
'0:18.328',1.97
'0:18.332',1.92
'0:18.336',1.68
'0:18.340',1.54
'0:18.344',1.21
'0:18.348',0.76
'0:18.352',0.36
'0:18.355',0.13
'0:18.359',0.11
'0:18.363',-0.17
'0:18.367',-0.36
'0:18.371',-0.47
'0:18.375',-0.74
'0:18.379',-0.87
'0:18.383',-1.56
'0:18.387',-2.16
'0:18.391',-2.62
'0:18.395',-2.78
'0:18.398',-2.79
'0:18.402',-2.4
'0:18.406',-2.35
'0:18.410',-2.18
'0:18.414',-2.11
'0:18.418',-2.38
'0:18.422',-2.37
'0:18.426',-2.26
'0:18.430',-1.87
'0:18.434',-1.07
'0:18.438',0.6
'0:18.441',3.16
'0:18.445',6.29
'0:18.449',9.01
'0:18.453',10.4
'0:18.457',8.33
'0:18.461',1.91
'0:18.465',-4.57
'0:18.469',-8.67
'0:18.473',-10.66
'0:18.477',-11.59
'0:18.480',-12.03
'0:18.484',-11.91
'0:18.488',-11.12
'0:18.492',-9.77
'0:18.496',-7.9
'0:18.500',-6.06
'0:18.504',-4.77
'0:18.508',-3.29
'0:18.512',-2.08
'0:18.516',-1.13
'0:18.520',-0.44
'0:18.523',0.11
'0:18.527',0.34
'0:18.531',0.26
'0:18.535',0.49
'0:18.539',0.78
'0:18.543',1
'0:18.547',0.65
'0:18.551',0.45
'0:18.555',0.18
'0:18.559',-0.02
'0:18.563',0.29
'0:18.566',1.05
'0:18.570',1.46
'0:18.574',1.68
'0:18.578',1.45
'0:18.582',1.23
'0:18.586',1.13
'0:18.590',1.12
'0:18.594',0.9
'0:18.598',0.76
'0:18.602',0.95
'0:18.605',1.18
'0:18.609',1.3
'0:18.613',1.33
'0:18.617',1.12
'0:18.621',0.85
'0:18.625',0.7
'0:18.629',0.59
'0:18.633',0.54
'0:18.637',0.4
'0:18.641',0.32
'0:18.645',0.38
'0:18.648',0.4
'0:18.652',0.19
'0:18.656',-0.03
'0:18.660',-0.2
'0:18.664',-0.36
'0:18.668',-0.41
'0:18.672',-0.4
'0:18.676',-0.65
'0:18.680',-1.01
'0:18.684',-1.43
'0:18.688',-1.44
'0:18.691',-1.44
'0:18.695',-2.61
'0:18.699',-2.85
'0:18.703',-2.89
'0:18.707',-2.75
'0:18.711',-2.88
'0:18.715',-3.07
'0:18.719',-3.19
'0:18.723',-3.14
'0:18.727',-2.94
'0:18.730',-2.93
'0:18.734',-3.14
'0:18.738',-2.88
'0:18.742',-2.46
'0:18.746',-1.46
'0:18.750',0.95
'0:18.754',3.94
'0:18.758',6.68
'0:18.762',9.14
'0:18.766',9.97
'0:18.770',6.82
'0:18.773',0.75
'0:18.777',-4.43
'0:18.781',-7.67
'0:18.785',-9.59
'0:18.789',-10.47
'0:18.793',-10.63
'0:18.797',-10.22
'0:18.801',-9.36
'0:18.805',-7.88
'0:18.809',-6.35
'0:18.813',-4.93
'0:18.816',-3.53
'0:18.820',-2.26
'0:18.824',-1.18
'0:18.828',-0.16
'0:18.832',0.3
'0:18.836',0.26
'0:18.840',0.82
'0:18.844',1.75
'0:18.848',2.18
'0:18.852',1.82
'0:18.855',1.89
'0:18.859',2.17
'0:18.863',2.08
'0:18.867',1.95
'0:18.871',2.01
'0:18.875',2.41
'0:18.879',2.9
'0:18.883',3.06
'0:18.887',3.08
'0:18.891',3.27
'0:18.895',3.49
'0:18.898',3.65
'0:18.902',3.66
'0:18.906',3.67
'0:18.910',3.81
'0:18.914',3.99
'0:18.918',4.47
'0:18.922',4.42
'0:18.926',4.15
'0:18.930',3.59
'0:18.934',3.05
'0:18.938',2.95
'0:18.941',2.73
'0:18.945',2.94
'0:18.949',3.21
'0:18.953',3.36
'0:18.957',3.63
'0:18.961',3.27
'0:18.965',2.45
'0:18.969',1.41
'0:18.973',0.4
'0:18.977',-0.5
'0:18.980',-1.31
'0:18.984',-1.71
'0:18.988',-3.06
'0:18.992',-4.77
'0:18.996',-4.59
'0:19.000',-3
'0:19.004',-1.72
'0:19.008',-0.41
'0:19.012',0.25
'0:19.016',-0.14
'0:19.020',-0.54
'0:19.023',-0.82
'0:19.027',-1.23
'0:19.031',-1.59
'0:19.035',-1.78
'0:19.039',-2.23
'0:19.043',-2.36
'0:19.047',-2.2
'0:19.051',-1.4
'0:19.055',0.56
'0:19.059',3.46
'0:19.063',6.05
'0:19.066',7.86
'0:19.070',7.44
'0:19.074',3.68
'0:19.078',-2.02
'0:19.082',-6.87
'0:19.086',-9.65
'0:19.090',-10.58
'0:19.094',-10.38
'0:19.098',-9.87
'0:19.102',-9.01
'0:19.105',-7.54
'0:19.109',-5.71
'0:19.113',-3.82
'0:19.117',-1.95
'0:19.121',-0.86
'0:19.125',0.1
'0:19.129',1.12
'0:19.133',2
'0:19.137',2.62
'0:19.141',3.04
'0:19.145',3.25
'0:19.148',3.56
'0:19.152',3.75
'0:19.156',3.83
'0:19.160',3.83
'0:19.164',3.94
'0:19.168',4.06
'0:19.172',4.13
'0:19.176',4.29
'0:19.180',4.32
'0:19.184',4.37
'0:19.188',4.74
'0:19.191',5.18
'0:19.195',5.58
'0:19.199',6.04
'0:19.203',6.13
'0:19.207',5.94
'0:19.211',5.94
'0:19.215',5.92
'0:19.219',5.79
'0:19.223',5.44
'0:19.227',5.18
'0:19.230',5.01
'0:19.234',4.91
'0:19.238',4.16
'0:19.242',3.18
'0:19.246',2.53
'0:19.250',2.11
'0:19.254',1.9
'0:19.258',1.62
'0:19.262',1.24
'0:19.266',1.03
'0:19.270',0.62
'0:19.273',0.24
'0:19.277',-0.07
'0:19.281',-0.38
'0:19.285',-0.73
'0:19.289',-0.98
'0:19.293',-1.32
'0:19.297',-1.61
'0:19.301',-2.34
'0:19.305',-2.84
'0:19.309',-3.21
'0:19.313',-3.59
'0:19.316',-4.13
'0:19.320',-4.28
'0:19.324',-4.11
'0:19.328',-4.17
'0:19.332',-4.37
'0:19.336',-4.54
'0:19.340',-4.53
'0:19.344',-4.87
'0:19.348',-4.5
'0:19.352',-3.75
'0:19.355',-3
'0:19.359',-2.26
'0:19.363',-0.82
'0:19.367',1.51
'0:19.371',4.46
'0:19.375',7.7
'0:19.379',10.08
'0:19.383',9.07
'0:19.387',3.81
'0:19.391',-2.66
'0:19.395',-7.69
'0:19.398',-10.54
'0:19.402',-11.6
'0:19.406',-11.55
'0:19.410',-10.8
'0:19.414',-9.96
'0:19.418',-8.93
'0:19.422',-7.57
'0:19.426',-5.86
'0:19.430',-4.09
'0:19.434',-2.83
'0:19.438',-2.1
'0:19.441',-1.41
'0:19.445',-0.68
'0:19.449',-0.13
'0:19.453',0.24
'0:19.457',0.72
'0:19.461',0.99
'0:19.465',1.16
'0:19.469',1.34
'0:19.473',1.23
'0:19.477',1.18
'0:19.480',1.16
'0:19.484',1.48
'0:19.488',1.66
'0:19.492',1.54
'0:19.496',1.71
'0:19.500',1.95
'0:19.504',2.38
'0:19.508',2.78
'0:19.512',2.5
'0:19.516',2.14
'0:19.520',1.93
'0:19.523',1.57
'0:19.527',1.7
