'0:00.000',-1.35
'0:00.004',-1.19
'0:00.008',-1.09
'0:00.012',-0.97
'0:00.016',-0.67
'0:00.020',-0.48
'0:00.023',-0.36
'0:00.027',-0.17
'0:00.031',0.07
'0:00.035',0.39
'0:00.039',0.7
'0:00.043',0.92
'0:00.047',1.18
'0:00.051',1.45
'0:00.055',1.73
'0:00.059',1.95
'0:00.063',2.1
'0:00.066',2.13
'0:00.070',2.17
'0:00.074',2.36
'0:00.078',2.51
'0:00.082',2.42
'0:00.086',2.22
'0:00.090',2.07
'0:00.094',2
'0:00.098',1.88
'0:00.102',1.62
'0:00.105',1.28
'0:00.109',0.97
'0:00.113',0.72
'0:00.117',0.47
'0:00.121',0.23
'0:00.125',0.01
'0:00.129',-0.23
'0:00.133',-0.4
'0:00.137',-0.43
'0:00.141',-0.43
'0:00.145',-0.41
'0:00.148',-0.41
'0:00.152',-0.41
'0:00.156',-0.32
'0:00.160',-0.07
'0:00.164',0.07
'0:00.168',0.29
'0:00.172',0.48
'0:00.176',0.54
'0:00.180',0.49
'0:00.184',0.33
'0:00.188',0.27
'0:00.191',0.28
'0:00.195',0.25
'0:00.199',0.25
'0:00.203',0.16
'0:00.207',0.03
'0:00.211',-0.1
'0:00.215',-0.14
'0:00.219',-0.11
'0:00.223',-0.36
'0:00.227',-0.6
'0:00.230',-0.77
'0:00.234',-0.98
'0:00.238',-1.26
'0:00.242',-1.48
'0:00.246',-1.64
'0:00.250',-1.7
'0:00.254',-1.7
'0:00.258',-1.71
'0:00.262',-1.75
'0:00.266',-1.75
'0:00.270',-1.65
'0:00.273',-1.67
'0:00.277',-2.13
'0:00.281',-2.94
'0:00.285',-3.64
'0:00.289',-3.55
'0:00.293',-2.35
'0:00.297',0.05
'0:00.301',3.47
'0:00.305',7.69
'0:00.309',12.12
'0:00.313',15.43
'0:00.316',15.72
'0:00.320',13.47
'0:00.324',9.81
'0:00.328',5.24
'0:00.332',0.5
'0:00.336',-3.77
'0:00.340',-6.63
'0:00.344',-8.13
'0:00.348',-8.22
'0:00.352',-7.41
'0:00.355',-6.21
'0:00.359',-5.38
'0:00.363',-4.8
'0:00.367',-4.29
'0:00.371',-3.9
'0:00.375',-3.44
'0:00.379',-3.11
'0:00.383',-2.88
'0:00.387',-2.64
'0:00.391',-2.43
'0:00.395',-2.36
'0:00.398',-2.5
'0:00.402',-2.27
'0:00.406',-1.79
'0:00.410',-1.42
'0:00.414',-1.15
'0:00.418',-0.97
'0:00.422',-0.92
'0:00.426',-0.78
'0:00.430',-0.49
'0:00.434',-0.32
'0:00.438',-0.24
'0:00.441',-0.12
'0:00.445',0.23
'0:00.449',0.46
'0:00.453',0.65
'0:00.457',0.74
'0:00.461',0.94
'0:00.465',1.38
'0:00.469',1.79
'0:00.473',2
'0:00.477',2.17
'0:00.480',2.45
'0:00.484',2.61
'0:00.488',2.59
'0:00.492',2.52
'0:00.496',2.32
'0:00.500',2.29
'0:00.504',2.36
'0:00.508',2.08
'0:00.512',1.53
'0:00.516',1.13
'0:00.520',0.98
'0:00.523',0.8
'0:00.527',0.53
'0:00.531',0.12
'0:00.535',-0.11
'0:00.539',-0.41
'0:00.543',-0.7
'0:00.547',-0.8
'0:00.551',-0.73
'0:00.555',-0.73
'0:00.559',-0.79
'0:00.563',-0.63
'0:00.566',-0.51
'0:00.570',-0.22
'0:00.574',0.07
'0:00.578',0.25
'0:00.582',0.41
'0:00.586',0.46
'0:00.590',0.42
'0:00.594',0.31
'0:00.598',0.11
'0:00.602',0.15
'0:00.605',0.36
'0:00.609',0.06
'0:00.613',-0.42
'0:00.617',-0.51
'0:00.621',-0.38
'0:00.625',-0.31
'0:00.629',-0.38
'0:00.633',-0.39
'0:00.637',-0.65
'0:00.641',-1.06
'0:00.645',-1.38
'0:00.648',-1.6
'0:00.652',-1.78
'0:00.656',-1.94
'0:00.660',-1.95
'0:00.664',-1.71
'0:00.668',-1.68
'0:00.672',-1.65
'0:00.676',-1.66
'0:00.680',-1.59
'0:00.684',-1.58
'0:00.688',-2.24
'0:00.691',-3.22
'0:00.695',-3.81
'0:00.699',-3.6
'0:00.703',-2.12
'0:00.707',0.6
'0:00.711',4.14
'0:00.715',8.42
'0:00.719',12.6
'0:00.723',14.95
'0:00.727',14.51
'0:00.730',11.95
'0:00.734',7.92
'0:00.738',3.15
'0:00.742',-2.19
'0:00.746',-6.03
'0:00.750',-8.17
'0:00.754',-8.75
'0:00.758',-8.13
'0:00.762',-7.05
'0:00.766',-6.02
'0:00.770',-5.16
'0:00.773',-4.45
'0:00.777',-3.89
'0:00.781',-3.39
'0:00.785',-3.07
'0:00.789',-2.98
'0:00.793',-2.81
'0:00.797',-2.56
'0:00.801',-2.36
'0:00.805',-2.11
'0:00.809',-1.8
'0:00.813',-1.49
'0:00.816',-1.08
'0:00.820',-0.76
'0:00.824',-0.68
'0:00.828',-0.66
'0:00.832',-0.47
'0:00.836',-0.17
'0:00.840',0.07
'0:00.844',0.24
'0:00.848',0.41
'0:00.852',0.61
'0:00.855',0.89
'0:00.859',1.14
'0:00.863',1.35
'0:00.867',1.61
'0:00.871',1.89
'0:00.875',2.21
'0:00.879',2.41
'0:00.883',2.51
'0:00.887',2.53
'0:00.891',2.54
'0:00.895',2.53
'0:00.898',2.47
'0:00.902',2.37
'0:00.906',2.28
'0:00.910',2.18
'0:00.914',2.03
'0:00.918',1.76
'0:00.922',1.43
'0:00.926',1.22
'0:00.930',1.08
'0:00.934',0.89
'0:00.938',0.59
'0:00.941',0.3
'0:00.945',-0.03
'0:00.949',-0.29
'0:00.953',-0.34
'0:00.957',-0.46
'0:00.961',-0.68
'0:00.965',-0.68
'0:00.969',-0.61
'0:00.973',-0.42
'0:00.977',-0.27
'0:00.980',-0.19
'0:00.984',-0.04
'0:00.988',0.13
'0:00.992',0.29
'0:00.996',0.33
'0:01.000',0.34
'0:01.004',0.27
'0:01.008',0.2
'0:01.012',0.25
'0:01.016',0.29
'0:01.020',0.23
'0:01.023',0.1
'0:01.027',0.05
'0:01.031',-0.06
'0:01.035',-0.23
'0:01.039',-0.4
'0:01.043',-0.6
'0:01.047',-0.79
'0:01.051',-0.95
'0:01.055',-1.23
'0:01.059',-1.6
'0:01.063',-1.87
'0:01.066',-1.99
'0:01.070',-1.95
'0:01.074',-1.92
'0:01.078',-1.92
'0:01.082',-1.92
'0:01.086',-1.95
'0:01.090',-1.92
'0:01.094',-2.14
'0:01.098',-2.8
'0:01.102',-3.45
'0:01.105',-3.67
'0:01.109',-2.9
'0:01.113',-0.89
'0:01.117',2.07
'0:01.121',5.86
'0:01.125',10.22
'0:01.129',13.84
'0:01.133',14.8
'0:01.137',13.4
'0:01.141',10.51
'0:01.145',6.59
'0:01.148',2.14
'0:01.152',-2.45
'0:01.156',-6.05
'0:01.160',-8.22
'0:01.164',-8.98
'0:01.168',-8.38
'0:01.172',-7.05
'0:01.176',-5.94
'0:01.180',-5.21
'0:01.184',-4.5
'0:01.188',-3.81
'0:01.191',-3.34
'0:01.195',-3
'0:01.199',-2.82
'0:01.203',-2.73
'0:01.207',-2.4
'0:01.211',-1.96
'0:01.215',-1.8
'0:01.219',-1.71
'0:01.223',-1.51
'0:01.227',-1.29
'0:01.230',-1.16
'0:01.234',-1.06
'0:01.238',-0.95
'0:01.242',-0.75
'0:01.246',-0.37
'0:01.250',-0.1
'0:01.254',0.03
'0:01.258',0.12
'0:01.262',0.15
'0:01.266',0.43
'0:01.270',0.73
'0:01.273',1.05
'0:01.277',1.22
'0:01.281',1.21
'0:01.285',1.18
'0:01.289',1.36
'0:01.293',1.56
'0:01.297',1.66
'0:01.301',1.8
'0:01.305',2.16
'0:01.309',2.36
'0:01.313',2.37
'0:01.316',2.13
'0:01.320',1.96
'0:01.324',1.81
'0:01.328',1.6
'0:01.332',1.3
'0:01.336',1.08
'0:01.340',0.84
'0:01.344',0.64
'0:01.348',0.37
'0:01.352',-0.01
'0:01.355',-0.52
'0:01.359',-0.77
'0:01.363',-0.84
'0:01.367',-0.82
'0:01.371',-0.98
'0:01.375',-1.23
'0:01.379',-1.08
'0:01.383',-0.83
'0:01.387',-0.7
'0:01.391',-0.75
'0:01.395',-0.59
'0:01.398',-0.56
'0:01.402',-0.49
'0:01.406',-0.46
'0:01.410',-0.39
'0:01.414',-0.24
'0:01.418',-0.1
'0:01.422',0.04
'0:01.426',0.07
'0:01.430',-0.05
'0:01.434',-0.16
'0:01.438',-0.14
'0:01.441',-0.27
'0:01.445',-0.6
'0:01.449',-0.82
'0:01.453',-1.01
'0:01.457',-1.14
'0:01.461',-1.24
'0:01.465',-1.47
'0:01.469',-1.89
'0:01.473',-2.25
'0:01.477',-2.33
'0:01.480',-2.29
'0:01.484',-2.31
'0:01.488',-2.31
'0:01.492',-2.24
'0:01.496',-2.24
'0:01.500',-2.29
'0:01.504',-2.59
'0:01.508',-3.29
'0:01.512',-3.88
'0:01.516',-3.88
'0:01.520',-2.57
'0:01.523',0.06
'0:01.527',3.57
'0:01.531',7.86
'0:01.535',11.99
'0:01.539',14.18
'0:01.543',13.32
'0:01.547',10.89
'0:01.551',7.55
'0:01.555',3.42
'0:01.559',-0.87
'0:01.563',-4.62
'0:01.566',-7.27
'0:01.570',-8.84
'0:01.574',-9.11
'0:01.578',-8.32
'0:01.582',-7
'0:01.586',-5.54
'0:01.590',-4.53
'0:01.594',-3.84
'0:01.598',-3.18
'0:01.602',-2.81
'0:01.605',-2.53
'0:01.609',-2.35
'0:01.613',-2.24
'0:01.617',-2.1
'0:01.621',-1.76
'0:01.625',-1.42
'0:01.629',-1.27
'0:01.633',-1.19
'0:01.637',-1.01
'0:01.641',-0.73
'0:01.645',-0.49
'0:01.648',-0.27
'0:01.652',-0.05
'0:01.656',0.07
'0:01.660',0.22
'0:01.664',0.46
'0:01.668',0.63
'0:01.672',0.75
'0:01.676',1.02
'0:01.680',1.1
'0:01.684',1.17
'0:01.688',1.36
'0:01.691',1.7
'0:01.695',2.02
'0:01.699',2.26
'0:01.703',2.41
'0:01.707',2.43
'0:01.711',2.49
'0:01.715',2.51
'0:01.719',2.41
'0:01.723',2.37
'0:01.727',2.24
'0:01.730',2.06
'0:01.734',1.93
'0:01.738',1.76
'0:01.742',1.5
'0:01.746',1.2
'0:01.750',0.91
'0:01.754',0.65
'0:01.758',0.38
'0:01.762',0.13
'0:01.766',-0.23
'0:01.770',-0.36
'0:01.773',-0.26
'0:01.777',-0.22
'0:01.781',-0.35
'0:01.785',-0.43
'0:01.789',-0.41
'0:01.793',-0.13
'0:01.797',0.03
'0:01.801',0.22
'0:01.805',0.34
'0:01.809',0.42
'0:01.813',0.44
'0:01.816',0.54
'0:01.820',0.51
'0:01.824',0.47
'0:01.828',0.56
'0:01.832',0.61
'0:01.836',0.38
'0:01.840',0.21
'0:01.844',0.08
'0:01.848',-0.08
'0:01.852',-0.14
'0:01.855',-0.09
'0:01.859',-0.19
'0:01.863',-0.26
'0:01.867',-0.42
'0:01.871',-0.74
'0:01.875',-1.19
'0:01.879',-1.43
'0:01.883',-1.56
'0:01.887',-1.6
'0:01.891',-1.44
'0:01.895',-1.36
'0:01.898',-1.29
'0:01.902',-1.09
'0:01.906',-1.26
'0:01.910',-1.83
'0:01.914',-2.58
'0:01.918',-3.06
'0:01.922',-2.79
'0:01.926',-1.36
'0:01.930',1.15
'0:01.934',4.33
'0:01.938',8.24
'0:01.941',12.1
'0:01.945',14.65
'0:01.949',14.5
'0:01.953',12.27
'0:01.957',8.91
'0:01.961',4.68
'0:01.965',0.61
'0:01.969',-3.11
'0:01.973',-5.7
'0:01.977',-7.04
'0:01.980',-7.1
'0:01.984',-6.52
'0:01.988',-5.59
'0:01.992',-4.65
'0:01.996',-4.02
'0:02.000',-3.49
'0:02.004',-3.15
'0:02.008',-2.71
'0:02.012',-2.28
'0:02.016',-1.95
'0:02.020',-1.73
'0:02.023',-1.75
'0:02.027',-1.49
'0:02.031',-1.1
'0:02.035',-0.84
'0:02.039',-0.68
'0:02.043',-0.47
'0:02.047',-0.15
'0:02.051',0.05
'0:02.055',-0.06
'0:02.059',-0.1
'0:02.063',0.6
'0:02.066',0.92
'0:02.070',1
'0:02.074',0.96
'0:02.078',1.07
'0:02.082',1.17
'0:02.086',1.3
'0:02.090',1.53
'0:02.094',1.8
'0:02.098',1.9
'0:02.102',2.11
'0:02.105',2.48
'0:02.109',2.85
'0:02.113',2.98
'0:02.117',2.79
'0:02.121',2.78
'0:02.125',2.83
'0:02.129',2.92
'0:02.133',2.88
'0:02.137',2.8
'0:02.141',2.78
'0:02.145',2.55
'0:02.148',2.09
'0:02.152',1.61
'0:02.156',1.21
'0:02.160',0.89
'0:02.164',0.92
'0:02.168',0.93
'0:02.172',0.72
'0:02.176',0.55
'0:02.180',0.56
'0:02.184',0.64
'0:02.188',0.35
'0:02.191',0.43
'0:02.195',0.54
'0:02.199',0.51
'0:02.203',0.94
'0:02.207',1.03
'0:02.211',0.96
'0:02.215',0.88
'0:02.219',0.72
'0:02.223',0.97
'0:02.227',1.31
'0:02.230',1.35
'0:02.234',1.11
'0:02.238',1.03
'0:02.242',1.03
'0:02.246',1.02
'0:02.250',1.22
'0:02.254',0.96
'0:02.258',0.61
'0:02.262',0.54
'0:02.266',0.47
'0:02.270',0.16
'0:02.273',-0.23
'0:02.277',-0.55
'0:02.281',-0.63
'0:02.285',-0.63
'0:02.289',-0.6
'0:02.293',-0.96
'0:02.297',-1.24
'0:02.301',-1.44
'0:02.305',-1.39
'0:02.309',-1.15
'0:02.313',-1.18
'0:02.316',-1.47
'0:02.320',-1.91
'0:02.324',-2.21
'0:02.328',-2.31
'0:02.332',-1.44
'0:02.336',0.82
'0:02.340',4
'0:02.344',7.81
'0:02.348',11.45
'0:02.352',13.73
'0:02.355',13.61
'0:02.359',11.7
'0:02.363',8.56
'0:02.367',4.48
'0:02.371',0.36
'0:02.375',-3.05
'0:02.379',-5.41
'0:02.383',-6.7
'0:02.387',-6.82
'0:02.391',-6.27
'0:02.395',-5.47
'0:02.398',-4.67
'0:02.402',-4.06
'0:02.406',-3.68
'0:02.410',-3.46
'0:02.414',-3.22
'0:02.418',-2.8
'0:02.422',-2.18
'0:02.426',-1.78
'0:02.430',-1.68
'0:02.434',-1.65
'0:02.438',-1.49
'0:02.441',-1.22
'0:02.445',-1.02
'0:02.449',-0.85
'0:02.453',-0.65
'0:02.457',-0.49
'0:02.461',-0.44
'0:02.465',-0.39
'0:02.469',-0.24
'0:02.473',0
'0:02.477',0.1
'0:02.480',0.17
'0:02.484',0.37
'0:02.488',0.59
'0:02.492',0.87
'0:02.496',1.07
'0:02.500',1.22
'0:02.504',1.42
'0:02.508',1.76
'0:02.512',2.09
'0:02.516',2.27
'0:02.520',2.27
'0:02.523',2.24
'0:02.527',2.23
'0:02.531',2.25
'0:02.535',2.17
'0:02.539',1.94
'0:02.543',1.68
'0:02.547',1.35
'0:02.551',1.01
'0:02.555',0.81
'0:02.559',0.56
'0:02.563',0.14
'0:02.566',-0.25
'0:02.570',-0.5
'0:02.574',-0.63
'0:02.578',-0.74
'0:02.582',-0.82
'0:02.586',-0.85
'0:02.590',-0.9
'0:02.594',-0.94
'0:02.598',-0.82
'0:02.602',-0.63
'0:02.605',-0.49
'0:02.609',-0.22
'0:02.613',-0.02
'0:02.617',0.08
'0:02.621',0.22
'0:02.625',0.25
'0:02.629',0.26
'0:02.633',0.2
'0:02.637',0.18
'0:02.641',0.23
'0:02.645',0.27
'0:02.648',0.23
'0:02.652',0.18
'0:02.656',0.13
'0:02.660',-0.09
'0:02.664',-0.4
'0:02.668',-0.68
'0:02.672',-0.78
'0:02.676',-0.87
'0:02.680',-1
'0:02.684',-1.24
'0:02.688',-1.38
'0:02.691',-1.58
'0:02.695',-1.87
'0:02.699',-1.92
'0:02.703',-1.94
'0:02.707',-2.04
'0:02.711',-1.95
'0:02.715',-1.91
'0:02.719',-2.09
'0:02.723',-2.66
'0:02.727',-3.27
'0:02.730',-3.55
'0:02.734',-3.23
'0:02.738',-1.88
'0:02.742',0.58
'0:02.746',3.72
'0:02.750',7.85
'0:02.754',11.81
'0:02.758',14.15
'0:02.762',13.84
'0:02.766',11.63
'0:02.770',8.17
'0:02.773',4
'0:02.777',-0.36
'0:02.781',-4.28
'0:02.785',-6.97
'0:02.789',-8.05
'0:02.793',-7.93
'0:02.797',-7.18
'0:02.801',-6.11
'0:02.805',-5.46
'0:02.809',-5.12
'0:02.813',-4.7
'0:02.816',-4.23
'0:02.820',-3.81
'0:02.824',-3.49
'0:02.828',-3.27
'0:02.832',-3.09
'0:02.836',-2.83
'0:02.840',-2.42
'0:02.844',-2.24
'0:02.848',-2.12
'0:02.852',-1.95
'0:02.855',-2.02
'0:02.859',-2.17
'0:02.863',-1.86
'0:02.867',-1.4
'0:02.871',-1.19
'0:02.875',-1.05
'0:02.879',-0.86
'0:02.883',-0.66
'0:02.887',-0.46
'0:02.891',-0.29
'0:02.895',-0.15
'0:02.898',0.28
'0:02.902',0.68
'0:02.906',1.08
'0:02.910',1.41
'0:02.914',1.63
'0:02.918',1.74
'0:02.922',1.78
'0:02.926',1.76
'0:02.930',1.93
'0:02.934',1.73
'0:02.938',1.66
'0:02.941',1.5
'0:02.945',1.3
'0:02.949',1.17
'0:02.953',0.94
'0:02.957',0.67
'0:02.961',0.42
'0:02.965',0.2
'0:02.969',0.01
'0:02.973',-0.19
'0:02.977',-0.31
'0:02.980',-0.37
'0:02.984',-0.52
'0:02.988',-0.54
'0:02.992',-0.57
'0:02.996',-0.8
'0:03.000',-0.92
'0:03.004',-0.95
'0:03.008',-0.87
'0:03.012',-0.66
'0:03.016',-0.37
'0:03.020',-0.17
'0:03.023',0.09
'0:03.027',0.3
'0:03.031',0.4
'0:03.035',0.47
'0:03.039',0.49
'0:03.043',0.52
'0:03.047',0.53
'0:03.051',0.54
'0:03.055',0.5
'0:03.059',0.37
'0:03.063',0.16
'0:03.066',-0.14
'0:03.070',-0.4
'0:03.074',-0.62
'0:03.078',-0.74
'0:03.082',-0.78
'0:03.086',-0.89
'0:03.090',-1.21
'0:03.094',-1.57
'0:03.098',-1.87
'0:03.102',-2
'0:03.105',-2.11
'0:03.109',-2.26
'0:03.113',-2.36
'0:03.117',-2.34
'0:03.121',-2.24
'0:03.125',-2.34
'0:03.129',-2.81
'0:03.133',-3.4
'0:03.137',-3.67
'0:03.141',-3.3
'0:03.145',-1.96
'0:03.148',0.63
'0:03.152',4
'0:03.156',8.05
'0:03.160',12.11
'0:03.164',14.93
'0:03.168',14.96
'0:03.172',12.85
'0:03.176',9.51
'0:03.180',5.18
'0:03.184',0.57
'0:03.188',-3.53
'0:03.191',-6.24
'0:03.195',-7.34
'0:03.199',-7
'0:03.203',-6.2
'0:03.207',-5.45
'0:03.211',-4.88
'0:03.215',-4.35
'0:03.219',-3.85
'0:03.223',-3.55
'0:03.227',-3.33
'0:03.230',-3.07
'0:03.234',-2.76
'0:03.238',-2.51
'0:03.242',-2.36
'0:03.246',-2.22
'0:03.250',-2.02
'0:03.254',-1.78
'0:03.258',-1.51
'0:03.262',-1.34
'0:03.266',-1.17
'0:03.270',-0.95
'0:03.273',-0.75
'0:03.277',-0.56
'0:03.281',-0.36
'0:03.285',-0.21
'0:03.289',-0.02
'0:03.293',0.25
'0:03.297',0.46
'0:03.301',0.71
'0:03.305',1.04
'0:03.309',1.41
'0:03.313',1.66
'0:03.316',1.82
'0:03.320',2.11
'0:03.324',2.39
'0:03.328',2.54
'0:03.332',2.52
'0:03.336',2.49
'0:03.340',2.49
'0:03.344',2.37
'0:03.348',2.25
'0:03.352',2.17
'0:03.355',1.96
'0:03.359',1.59
'0:03.363',1.25
'0:03.367',0.9
'0:03.371',0.6
'0:03.375',0.36
'0:03.379',0.06
'0:03.383',-0.16
'0:03.387',-0.37
'0:03.391',-0.51
'0:03.395',-0.51
'0:03.398',-0.59
'0:03.402',-0.79
'0:03.406',-0.97
'0:03.410',-1.09
'0:03.414',-1.05
'0:03.418',-0.83
'0:03.422',-0.68
'0:03.426',-0.53
'0:03.430',-0.27
'0:03.434',-0.02
'0:03.438',0.08
'0:03.441',0.13
'0:03.445',0.06
'0:03.449',0
'0:03.453',-0.02
'0:03.457',0.1
'0:03.461',0.08
'0:03.465',0.11
'0:03.469',0.01
'0:03.473',-0.16
'0:03.477',-0.43
'0:03.480',-0.56
'0:03.484',-0.66
'0:03.488',-0.84
'0:03.492',-0.94
'0:03.496',-1.06
'0:03.500',-1.26
'0:03.504',-1.48
'0:03.508',-1.53
'0:03.512',-1.67
'0:03.516',-1.94
'0:03.520',-1.95
'0:03.523',-1.95
'0:03.527',-1.93
'0:03.531',-1.81
'0:03.535',-1.78
'0:03.539',-2.04
'0:03.543',-2.69
'0:03.547',-3.39
'0:03.551',-3.53
'0:03.555',-2.89
'0:03.559',-0.84
'0:03.563',2.16
'0:03.566',6.1
'0:03.570',10.85
'0:03.574',14.74
'0:03.578',15.96
'0:03.582',14.36
'0:03.586',10.97
'0:03.590',6.46
'0:03.594',1.49
'0:03.598',-3.27
'0:03.602',-6.68
'0:03.605',-8.52
'0:03.609',-8.82
'0:03.613',-7.98
'0:03.617',-6.72
'0:03.621',-5.77
'0:03.625',-5.24
'0:03.629',-4.64
'0:03.633',-4.33
'0:03.637',-4.31
'0:03.641',-3.78
'0:03.645',-3.41
'0:03.648',-3.24
'0:03.652',-3.02
'0:03.656',-2.76
'0:03.660',-2.29
'0:03.664',-2.19
'0:03.668',-1.98
'0:03.672',-1.66
'0:03.676',-1.56
'0:03.680',-1.25
'0:03.684',-0.95
'0:03.688',-0.68
'0:03.691',-0.51
'0:03.695',-0.41
'0:03.699',-0.34
'0:03.703',-0.13
'0:03.707',0.21
'0:03.711',0.4
'0:03.715',0.47
'0:03.719',0.58
'0:03.723',0.92
'0:03.727',1.43
'0:03.730',1.68
'0:03.734',1.82
'0:03.738',1.95
'0:03.742',2.19
'0:03.746',2.28
'0:03.750',2.38
'0:03.754',2.54
'0:03.758',2.49
'0:03.762',2.3
'0:03.766',2.01
'0:03.770',1.77
'0:03.773',1.48
'0:03.777',1.08
'0:03.781',0.76
'0:03.785',0.64
'0:03.789',0.44
'0:03.793',0.15
'0:03.797',-0.05
'0:03.801',-0.23
'0:03.805',-0.36
'0:03.809',-0.41
'0:03.813',-0.43
'0:03.816',-0.6
'0:03.820',-0.73
'0:03.824',-0.71
'0:03.828',-0.65
'0:03.832',-0.65
'0:03.836',-0.51
'0:03.840',-0.17
'0:03.844',0.1
'0:03.848',0.2
'0:03.852',0.06
'0:03.855',-0.16
'0:03.859',-0.29
'0:03.863',-0.43
'0:03.867',-0.45
'0:03.871',-0.38
'0:03.875',-0.29
'0:03.879',-0.35
'0:03.883',-0.51
'0:03.887',-0.67
'0:03.891',-0.8
'0:03.895',-0.92
'0:03.898',-0.97
'0:03.902',-0.97
'0:03.906',-1.02
'0:03.910',-1.19
'0:03.914',-1.41
'0:03.918',-1.55
'0:03.922',-1.56
'0:03.926',-1.62
'0:03.930',-1.82
'0:03.934',-1.92
'0:03.938',-1.88
'0:03.941',-1.73
'0:03.945',-1.55
'0:03.949',-1.72
'0:03.953',-2.42
'0:03.957',-3.15
'0:03.961',-3.43
'0:03.965',-2.86
'0:03.969',-0.99
'0:03.973',2.06
'0:03.977',5.99
'0:03.980',10.18
'0:03.984',13.54
'0:03.988',14.45
'0:03.992',12.91
'0:03.996',9.91
'0:04.000',5.77
'0:04.004',1.16
'0:04.008',-3.28
'0:04.012',-6.66
'0:04.016',-8.42
'0:04.020',-8.63
'0:04.023',-7.81
'0:04.027',-6.4
'0:04.031',-5.3
'0:04.035',-4.5
'0:04.039',-3.88
'0:04.043',-3.35
'0:04.047',-2.96
'0:04.051',-2.73
'0:04.055',-2.51
'0:04.059',-2.18
'0:04.063',-1.85
'0:04.066',-1.61
'0:04.070',-1.39
'0:04.074',-1.2
'0:04.078',-1.09
'0:04.082',-0.97
'0:04.086',-0.77
'0:04.090',-0.78
'0:04.094',-0.66
'0:04.098',-0.27
'0:04.102',0.04
'0:04.105',0.22
'0:04.109',0.37
'0:04.113',0.52
'0:04.117',0.68
'0:04.121',0.8
'0:04.125',0.95
'0:04.129',1.19
'0:04.133',1.45
'0:04.137',1.82
'0:04.141',2.14
'0:04.145',2.37
'0:04.148',2.46
'0:04.152',2.52
'0:04.156',2.67
'0:04.160',2.76
'0:04.164',2.73
'0:04.168',2.64
'0:04.172',2.45
'0:04.176',2.26
'0:04.180',2.05
'0:04.184',1.8
'0:04.188',1.49
'0:04.191',1.2
'0:04.195',0.96
'0:04.199',0.64
'0:04.203',0.38
'0:04.207',0.15
'0:04.211',-0.06
'0:04.215',-0.23
'0:04.219',-0.19
'0:04.223',-0.3
'0:04.227',-0.5
'0:04.230',-0.5
'0:04.234',-0.36
'0:04.238',-0.34
'0:04.242',-0.32
'0:04.246',-0.19
'0:04.250',-0.12
'0:04.254',0.27
'0:04.258',0.56
'0:04.262',0.49
'0:04.266',0.15
'0:04.270',-0.04
'0:04.273',-0.12
'0:04.277',-0.19
'0:04.281',-0.05
'0:04.285',0.15
'0:04.289',-0.03
'0:04.293',0.09
'0:04.297',0.18
'0:04.301',-0.06
'0:04.305',-0.52
'0:04.309',-0.65
'0:04.313',-0.82
'0:04.316',-1.04
'0:04.320',-1.26
'0:04.324',-1.55
'0:04.328',-1.63
'0:04.332',-1.66
'0:04.336',-1.75
'0:04.340',-1.88
'0:04.344',-1.92
'0:04.348',-1.9
'0:04.352',-1.85
'0:04.355',-1.8
'0:04.359',-1.98
'0:04.363',-2.42
'0:04.367',-3.01
'0:04.371',-3.52
'0:04.375',-3.49
'0:04.379',-2.56
'0:04.383',-0.33
'0:04.387',2.76
'0:04.391',7.15
'0:04.395',11.53
'0:04.398',14.53
'0:04.402',14.43
'0:04.406',12.32
'0:04.410',9.18
'0:04.414',4.82
'0:04.418',0.26
'0:04.422',-4.05
'0:04.426',-7.32
'0:04.430',-9.01
'0:04.434',-9.18
'0:04.438',-8.24
'0:04.441',-6.87
'0:04.445',-5.67
'0:04.449',-4.83
'0:04.453',-4.12
'0:04.457',-3.32
'0:04.461',-2.88
'0:04.465',-2.65
'0:04.469',-2.6
'0:04.473',-2.44
'0:04.477',-2.34
'0:04.480',-2.15
'0:04.484',-1.64
'0:04.488',-1.07
'0:04.492',-0.87
'0:04.496',-1.09
'0:04.500',-1.17
'0:04.504',-0.85
'0:04.508',-0.45
'0:04.512',-0.19
'0:04.516',0.04
'0:04.520',0.25
'0:04.523',0.44
'0:04.527',0.51
'0:04.531',0.8
'0:04.535',0.97
'0:04.539',1.07
'0:04.543',1.41
'0:04.547',1.75
'0:04.551',1.85
'0:04.555',2.12
'0:04.559',2.31
'0:04.563',2.46
'0:04.566',2.56
'0:04.570',2.7
'0:04.574',2.85
'0:04.578',2.68
'0:04.582',2.45
'0:04.586',2.32
'0:04.590',2.1
'0:04.594',1.91
'0:04.598',1.76
'0:04.602',1.52
'0:04.605',1.17
'0:04.609',0.84
'0:04.613',0.5
'0:04.617',0.15
'0:04.621',-0.11
'0:04.625',-0.27
'0:04.629',-0.4
'0:04.633',-0.51
'0:04.637',-0.65
'0:04.641',-0.8
'0:04.645',-0.87
'0:04.648',-0.83
'0:04.652',-0.85
'0:04.656',-0.71
'0:04.660',-0.42
'0:04.664',-0.19
'0:04.668',0.08
'0:04.672',0.27
'0:04.676',0.25
'0:04.680',0.22
'0:04.684',0.2
'0:04.688',0.12
'0:04.691',-0.06
'0:04.695',-0.16
'0:04.699',-0.07
'0:04.703',0.1
'0:04.707',0.25
'0:04.711',0.3
'0:04.715',0.23
'0:04.719',0.04
'0:04.723',-0.36
'0:04.727',-0.65
'0:04.730',-0.83
'0:04.734',-0.99
'0:04.738',-1.07
'0:04.742',-1.17
'0:04.746',-1.39
'0:04.750',-1.72
'0:04.754',-1.99
'0:04.758',-2.06
'0:04.762',-1.92
'0:04.766',-1.82
'0:04.770',-1.83
'0:04.773',-2.09
'0:04.777',-2.59
'0:04.781',-3.16
'0:04.785',-3.47
'0:04.789',-3.03
'0:04.793',-1.3
'0:04.797',1.59
'0:04.801',5.25
'0:04.805',9.58
'0:04.809',13.33
'0:04.813',14.54
'0:04.816',13.09
'0:04.820',10.48
'0:04.824',6.94
'0:04.828',2.78
'0:04.832',-1.55
'0:04.836',-5.18
'0:04.840',-7.54
'0:04.844',-8.48
'0:04.848',-8.12
'0:04.852',-7.01
'0:04.855',-5.76
'0:04.859',-4.7
'0:04.863',-4
'0:04.867',-3.56
'0:04.871',-3.24
'0:04.875',-2.91
'0:04.879',-2.53
'0:04.883',-2.31
'0:04.887',-2.17
'0:04.891',-1.99
'0:04.895',-1.63
'0:04.898',-1.27
'0:04.902',-1.11
'0:04.906',-1.07
'0:04.910',-1
'0:04.914',-0.82
'0:04.918',-0.52
'0:04.922',-0.29
'0:04.926',-0.17
'0:04.930',-0.14
'0:04.934',0.03
'0:04.938',0.34
'0:04.941',0.61
'0:04.945',0.78
'0:04.949',0.9
'0:04.953',1.12
'0:04.957',1.46
'0:04.961',1.76
'0:04.965',1.98
'0:04.969',2.26
'0:04.973',2.22
'0:04.977',2.27
'0:04.980',2.39
'0:04.984',2.46
'0:04.988',2.28
'0:04.992',2.15
'0:04.996',2.21
'0:05.000',2.2
'0:05.004',1.95
'0:05.008',1.76
'0:05.012',1.5
'0:05.016',1.18
'0:05.020',1.01
'0:05.023',0.5
'0:05.027',0.15
'0:05.031',0
'0:05.035',-0.16
'0:05.039',-0.27
'0:05.043',-0.47
'0:05.047',-0.82
'0:05.051',-0.92
'0:05.055',-0.76
'0:05.059',-0.71
'0:05.063',-0.49
'0:05.066',-0.13
'0:05.070',0
'0:05.074',0.12
'0:05.078',0.39
'0:05.082',0.33
'0:05.086',0.05
'0:05.090',0.22
'0:05.094',0.47
'0:05.098',0.44
'0:05.102',0.27
'0:05.105',0.19
'0:05.109',-0.02
'0:05.113',-0.07
'0:05.117',-0.23
'0:05.121',-0.55
'0:05.125',-0.75
'0:05.129',-1.04
'0:05.133',-1.24
'0:05.137',-1.27
'0:05.141',-1.21
'0:05.145',-1.5
'0:05.148',-1.72
'0:05.152',-1.68
'0:05.156',-1.85
'0:05.160',-1.79
'0:05.164',-2.02
'0:05.168',-2.33
'0:05.172',-2.48
'0:05.176',-2.41
'0:05.180',-2.24
'0:05.184',-2.1
'0:05.188',-2.4
'0:05.191',-3.03
'0:05.195',-3.52
'0:05.199',-3.17
'0:05.203',-1.59
'0:05.207',1
'0:05.211',4.32
'0:05.215',8.22
'0:05.219',11.9
'0:05.223',13.83
'0:05.227',12.82
'0:05.230',10.32
'0:05.234',7.3
'0:05.238',3.27
'0:05.242',-1.12
'0:05.246',-4.67
'0:05.250',-6.93
'0:05.254',-8.11
'0:05.258',-8.09
'0:05.262',-7.43
'0:05.266',-6.2
'0:05.270',-5.15
'0:05.273',-4.44
'0:05.277',-3.93
'0:05.281',-3.54
'0:05.285',-2.96
'0:05.289',-2.61
'0:05.293',-2.41
'0:05.297',-2.22
'0:05.301',-2.02
'0:05.305',-1.71
'0:05.309',-1.39
'0:05.313',-1.19
'0:05.316',-1.12
'0:05.320',-1.06
'0:05.324',-0.89
'0:05.328',-0.61
'0:05.332',-0.49
'0:05.336',-0.45
'0:05.340',-0.29
'0:05.344',0.03
'0:05.348',0.32
'0:05.352',0.34
'0:05.355',0.53
'0:05.359',0.56
'0:05.363',0.97
'0:05.367',1.25
'0:05.371',1.22
'0:05.375',1.48
'0:05.379',1.73
'0:05.383',1.97
'0:05.387',2.32
'0:05.391',2.49
'0:05.395',2.3
'0:05.398',2.11
'0:05.402',2.07
'0:05.406',1.95
'0:05.410',1.72
'0:05.414',1.42
'0:05.418',1.29
'0:05.422',1.05
'0:05.426',0.88
'0:05.430',0.66
'0:05.434',0.25
'0:05.438',-0.02
'0:05.441',-0.17
'0:05.445',-0.19
'0:05.449',-0.08
'0:05.453',-0.14
'0:05.457',-0.17
'0:05.461',-0.11
'0:05.465',-0.07
'0:05.469',-0.11
'0:05.473',-0.28
'0:05.477',-0.21
'0:05.480',-0.07
'0:05.484',0.15
'0:05.488',0.56
'0:05.492',0.68
'0:05.496',0.57
'0:05.500',0.66
'0:05.504',0.76
'0:05.508',0.69
'0:05.512',0.57
'0:05.516',0.56
'0:05.520',0.53
'0:05.523',0.45
'0:05.527',0.25
'0:05.531',-0.03
'0:05.535',-0.19
'0:05.539',-0.09
'0:05.543',-0.04
'0:05.547',-0.28
'0:05.551',-0.75
'0:05.555',-1.14
'0:05.559',-1.31
'0:05.563',-1.4
'0:05.566',-1.55
'0:05.570',-1.65
'0:05.574',-1.62
'0:05.578',-1.6
'0:05.582',-1.5
'0:05.586',-1.34
'0:05.590',-1.48
'0:05.594',-2.11
'0:05.598',-2.7
'0:05.602',-2.86
'0:05.605',-2.2
'0:05.609',-0.48
'0:05.613',2.16
'0:05.617',5.57
'0:05.621',9.5
'0:05.625',12.9
'0:05.629',14.34
'0:05.633',13.23
'0:05.637',10.44
'0:05.641',6.63
'0:05.645',2.43
'0:05.648',-1.62
'0:05.652',-4.86
'0:05.656',-6.96
'0:05.660',-7.79
'0:05.664',-7.5
'0:05.668',-6.73
'0:05.672',-5.73
'0:05.676',-4.87
'0:05.680',-4.21
'0:05.684',-3.67
'0:05.688',-3.36
'0:05.691',-3.22
'0:05.695',-3.04
'0:05.699',-2.9
'0:05.703',-2.73
'0:05.707',-2.39
'0:05.711',-2.02
'0:05.715',-1.59
'0:05.719',-1.27
'0:05.723',-1.19
'0:05.727',-1.12
'0:05.730',-1.04
'0:05.734',-0.84
'0:05.738',-0.49
'0:05.742',-0.14
'0:05.746',-0.12
'0:05.750',-0.02
'0:05.754',0.34
'0:05.758',0.37
'0:05.762',0.41
'0:05.766',0.68
'0:05.770',0.78
'0:05.773',1.02
'0:05.777',1.41
'0:05.781',1.72
'0:05.785',1.83
'0:05.789',2
'0:05.793',2.21
'0:05.797',2.27
'0:05.801',2.51
'0:05.805',2.56
'0:05.809',2.34
'0:05.813',2.25
'0:05.816',2.03
'0:05.820',1.78
'0:05.824',1.49
'0:05.828',1.44
'0:05.832',1.35
'0:05.836',0.95
'0:05.840',0.76
'0:05.844',0.59
'0:05.848',0.11
'0:05.852',-0.07
'0:05.855',-0.09
'0:05.859',-0.21
'0:05.863',-0.46
'0:05.867',-0.58
'0:05.871',-0.53
'0:05.875',-0.48
'0:05.879',-0.31
'0:05.883',-0.29
'0:05.887',-0.36
'0:05.891',-0.05
'0:05.895',0.39
'0:05.898',0.59
'0:05.902',0.7
'0:05.906',0.61
'0:05.910',0.53
'0:05.914',0.54
'0:05.918',0.47
'0:05.922',0.37
'0:05.926',0.03
'0:05.930',-0.14
'0:05.934',-0.3
'0:05.938',-0.35
'0:05.941',-0.34
'0:05.945',-0.46
'0:05.949',-0.52
'0:05.953',-0.53
'0:05.957',-0.65
'0:05.961',-1.13
'0:05.965',-1.56
'0:05.969',-1.76
'0:05.973',-1.87
'0:05.977',-1.78
'0:05.980',-1.68
'0:05.984',-1.61
'0:05.988',-1.65
'0:05.992',-1.73
'0:05.996',-1.75
'0:06.000',-2.14
'0:06.004',-2.7
'0:06.008',-3.14
'0:06.012',-2.95
'0:06.016',-1.54
'0:06.020',1.08
'0:06.023',4.47
'0:06.027',8.65
'0:06.031',12.66
'0:06.035',14.95
'0:06.039',14.38
'0:06.043',12.07
'0:06.047',8.55
'0:06.051',4.14
'0:06.055',-0.48
'0:06.059',-4.4
'0:06.063',-6.82
'0:06.066',-7.59
'0:06.070',-7.3
'0:06.074',-6.4
'0:06.078',-5.53
'0:06.082',-4.79
'0:06.086',-4.14
'0:06.090',-3.51
'0:06.094',-3.05
'0:06.098',-2.9
'0:06.102',-2.84
'0:06.105',-2.67
'0:06.109',-2.41
'0:06.113',-2.21
'0:06.117',-2.02
'0:06.121',-1.85
'0:06.125',-1.61
'0:06.129',-1.31
'0:06.133',-1.04
'0:06.137',-0.81
'0:06.141',-0.56
'0:06.145',-0.33
'0:06.148',-0.14
'0:06.152',0.02
'0:06.156',0.11
'0:06.160',0.22
'0:06.164',0.39
'0:06.168',0.74
'0:06.172',1.02
'0:06.176',1.1
'0:06.180',1.27
'0:06.184',1.54
'0:06.188',1.86
'0:06.191',2.04
'0:06.195',2.13
'0:06.199',2.29
'0:06.203',2.44
'0:06.207',2.49
'0:06.211',2.58
'0:06.215',2.59
'0:06.219',2.52
'0:06.223',2.41
'0:06.227',2.22
'0:06.230',2
'0:06.234',1.68
'0:06.238',1.34
'0:06.242',1.14
'0:06.246',1.02
'0:06.250',0.92
'0:06.254',0.78
'0:06.258',0.66
'0:06.262',0.64
'0:06.266',0.54
'0:06.270',0.35
'0:06.273',0.15
'0:06.277',0.02
'0:06.281',-0.05
'0:06.285',-0.02
'0:06.289',0.01
'0:06.293',0.12
'0:06.297',0.25
'0:06.301',0.49
'0:06.305',0.82
'0:06.309',0.9
'0:06.313',0.88
'0:06.316',0.8
'0:06.320',0.7
'0:06.324',0.57
'0:06.328',0.44
'0:06.332',0.35
'0:06.336',0.33
'0:06.340',0.25
'0:06.344',0.23
'0:06.348',0.15
'0:06.352',-0.06
'0:06.355',-0.33
'0:06.359',-0.49
'0:06.363',-0.51
'0:06.367',-0.63
'0:06.371',-0.85
'0:06.375',-1.12
'0:06.379',-1.33
'0:06.383',-1.5
'0:06.387',-1.58
'0:06.391',-1.55
'0:06.395',-1.41
'0:06.398',-1.34
'0:06.402',-1.41
'0:06.406',-1.56
'0:06.410',-2.07
'0:06.414',-2.85
'0:06.418',-3.36
'0:06.422',-3.15
'0:06.426',-1.77
'0:06.430',0.82
'0:06.434',4.35
'0:06.438',8.77
'0:06.441',13.02
'0:06.445',15.68
'0:06.449',15.45
'0:06.453',13.05
'0:06.457',9.15
'0:06.461',4.33
'0:06.465',-0.56
'0:06.469',-4.7
'0:06.473',-7.35
'0:06.477',-8.45
'0:06.480',-8.06
'0:06.484',-7.06
'0:06.488',-6.06
'0:06.492',-5.14
'0:06.496',-4.26
'0:06.500',-3.79
'0:06.504',-3.51
'0:06.508',-3.39
'0:06.512',-3.17
'0:06.516',-2.79
'0:06.520',-2.6
'0:06.523',-2.28
'0:06.527',-2
'0:06.531',-1.9
'0:06.535',-1.77
'0:06.539',-1.46
'0:06.543',-1.16
'0:06.547',-1.09
'0:06.551',-0.84
'0:06.555',-0.51
'0:06.559',-0.29
'0:06.563',-0.19
'0:06.566',0.06
'0:06.570',0.24
'0:06.574',0.4
'0:06.578',0.8
'0:06.582',1.1
'0:06.586',1.22
'0:06.590',1.53
'0:06.594',1.76
'0:06.598',1.9
'0:06.602',2.11
'0:06.605',2.27
'0:06.609',2.29
'0:06.613',2.47
'0:06.617',2.96
'0:06.621',3.19
'0:06.625',3.02
'0:06.629',2.64
'0:06.633',2.3
'0:06.637',1.95
'0:06.641',1.42
'0:06.645',1.15
'0:06.648',0.87
'0:06.652',0.44
'0:06.656',0.15
'0:06.660',-0.19
'0:06.664',-0.48
'0:06.668',-0.52
'0:06.672',-0.58
'0:06.676',-0.53
'0:06.680',-0.64
'0:06.684',-0.82
'0:06.688',-0.87
'0:06.691',-0.62
'0:06.695',-0.24
'0:06.699',-0.16
'0:06.703',-0.02
'0:06.707',0.28
'0:06.711',0.48
'0:06.715',0.49
'0:06.719',0.29
'0:06.723',0.11
'0:06.727',0
'0:06.730',-0.02
'0:06.734',-0.04
'0:06.738',0.01
'0:06.742',0.12
'0:06.746',-0.19
'0:06.750',-0.15
'0:06.754',-0.24
'0:06.758',-0.46
'0:06.762',-0.57
'0:06.766',-0.68
'0:06.770',-0.8
'0:06.773',-0.92
'0:06.777',-0.95
'0:06.781',-1.05
'0:06.785',-1.31
'0:06.789',-1.59
'0:06.793',-1.93
'0:06.797',-2.04
'0:06.801',-2.16
'0:06.805',-2.15
'0:06.809',-2.09
'0:06.813',-1.82
'0:06.816',-1.58
'0:06.820',-1.75
'0:06.824',-2.42
'0:06.828',-3.21
'0:06.832',-3.55
'0:06.836',-3.13
'0:06.840',-1.45
'0:06.844',1.4
'0:06.848',5.26
'0:06.852',9.66
'0:06.855',13.15
'0:06.859',14.24
'0:06.863',12.96
'0:06.867',10.19
'0:06.871',6.18
'0:06.875',1.54
'0:06.879',-2.88
'0:06.883',-6.31
'0:06.887',-8.15
'0:06.891',-8.45
'0:06.895',-7.73
'0:06.898',-6.61
'0:06.902',-5.52
'0:06.906',-4.69
'0:06.910',-4.06
'0:06.914',-3.65
'0:06.918',-3.4
'0:06.922',-3.08
'0:06.926',-2.7
'0:06.930',-2.41
'0:06.934',-2.27
'0:06.938',-2.21
'0:06.941',-2.07
'0:06.945',-1.96
'0:06.949',-1.77
'0:06.953',-1.63
'0:06.957',-1.65
'0:06.961',-1.6
'0:06.965',-1.41
'0:06.969',-1.09
'0:06.973',-0.59
'0:06.977',-0.24
'0:06.980',-0.02
'0:06.984',0.13
'0:06.988',0.15
'0:06.992',0.13
'0:06.996',0.45
'0:07.000',0.96
'0:07.004',1.35
'0:07.008',1.73
'0:07.012',2.08
'0:07.016',2.37
'0:07.020',2.46
'0:07.023',2.55
'0:07.027',2.54
'0:07.031',2.49
'0:07.035',2.44
'0:07.039',2.44
'0:07.043',2.46
'0:07.047',2.33
'0:07.051',2.06
'0:07.055',1.82
'0:07.059',1.61
'0:07.063',1.44
'0:07.066',1.19
'0:07.070',0.87
'0:07.074',0.52
'0:07.078',0.17
'0:07.082',-0.05
'0:07.086',-0.22
'0:07.090',-0.41
'0:07.094',-0.53
'0:07.098',-0.49
'0:07.102',-0.42
'0:07.105',-0.43
'0:07.109',-0.46
'0:07.113',-0.43
'0:07.117',-0.33
'0:07.121',-0.2
'0:07.125',-0.06
'0:07.129',0.13
'0:07.133',0.18
'0:07.137',0.13
'0:07.141',0.13
'0:07.145',0.08
'0:07.148',0.05
'0:07.152',0.01
'0:07.156',0.03
'0:07.160',-0.05
'0:07.164',-0.12
'0:07.168',-0.21
'0:07.172',-0.47
'0:07.176',-0.71
'0:07.180',-0.97
'0:07.184',-1.26
'0:07.188',-1.52
'0:07.191',-1.73
'0:07.195',-1.89
'0:07.199',-1.97
'0:07.203',-2.03
'0:07.207',-2.07
'0:07.211',-2.12
'0:07.215',-2.1
'0:07.219',-2
'0:07.223',-1.97
'0:07.227',-2.05
'0:07.230',-2.34
'0:07.234',-2.93
'0:07.238',-3.61
'0:07.242',-4.09
'0:07.246',-3.95
'0:07.250',-2.59
'0:07.254',0
'0:07.258',3.44
'0:07.262',7.87
'0:07.266',12.11
'0:07.270',14.43
'0:07.273',13.71
'0:07.277',11.31
'0:07.281',7.9
'0:07.285',3.58
'0:07.289',-1.06
'0:07.293',-5.04
'0:07.297',-7.77
'0:07.301',-9.07
'0:07.305',-8.9
'0:07.309',-7.82
'0:07.313',-6.58
'0:07.316',-5.44
'0:07.320',-4.44
'0:07.324',-3.79
'0:07.328',-3.48
'0:07.332',-3.14
'0:07.336',-2.84
'0:07.340',-2.64
'0:07.344',-2.36
'0:07.348',-2.02
'0:07.352',-1.91
'0:07.355',-1.52
'0:07.359',-1.12
'0:07.363',-1.07
'0:07.367',-1.08
'0:07.371',-1.01
'0:07.375',-0.92
'0:07.379',-0.79
'0:07.383',-0.52
'0:07.387',-0.27
'0:07.391',-0.2
'0:07.395',0.16
'0:07.398',0.32
'0:07.402',0.4
'0:07.406',0.63
'0:07.410',0.9
'0:07.414',1.3
'0:07.418',1.57
'0:07.422',1.9
'0:07.426',2.01
'0:07.430',2.03
'0:07.434',1.97
'0:07.438',2.11
'0:07.441',2.17
'0:07.445',2.02
'0:07.449',1.93
'0:07.453',2.03
'0:07.457',2.15
'0:07.461',1.94
'0:07.465',1.55
'0:07.469',1.16
'0:07.473',0.85
'0:07.477',0.7
'0:07.480',0.56
'0:07.484',0.19
'0:07.488',-0.36
'0:07.492',-0.51
'0:07.496',-0.56
'0:07.500',-0.8
'0:07.504',-0.95
'0:07.508',-1.07
'0:07.512',-1.01
'0:07.516',-0.84
'0:07.520',-0.8
'0:07.523',-0.7
'0:07.527',-0.73
'0:07.531',-0.64
'0:07.535',-0.26
'0:07.539',-0.06
'0:07.543',-0.04
'0:07.547',-0.26
'0:07.551',-0.36
'0:07.555',-0.33
'0:07.559',-0.24
'0:07.563',-0.19
'0:07.566',-0.23
'0:07.570',-0.31
'0:07.574',-0.34
'0:07.578',-0.34
'0:07.582',-0.44
'0:07.586',-0.6
'0:07.590',-0.65
'0:07.594',-0.66
'0:07.598',-0.87
'0:07.602',-1.05
'0:07.605',-1.25
'0:07.609',-1.34
'0:07.613',-1.49
'0:07.617',-1.68
'0:07.621',-1.95
'0:07.625',-2.13
'0:07.629',-2.12
'0:07.633',-1.91
'0:07.637',-1.77
'0:07.641',-1.76
'0:07.645',-2.07
'0:07.648',-2.71
'0:07.652',-3.29
'0:07.656',-3.48
'0:07.660',-2.75
'0:07.664',-0.66
'0:07.668',2.52
'0:07.672',6.43
'0:07.676',10.56
'0:07.680',13.71
'0:07.684',14.01
'0:07.688',12.17
'0:07.691',9.33
'0:07.695',5.53
'0:07.699',1.27
'0:07.703',-2.78
'0:07.707',-5.98
'0:07.711',-8
'0:07.715',-8.71
'0:07.719',-8.31
'0:07.723',-7.35
'0:07.727',-6.14
'0:07.730',-4.98
'0:07.734',-4.04
'0:07.738',-3.4
'0:07.742',-3.04
'0:07.746',-2.84
'0:07.750',-2.65
'0:07.754',-2.26
'0:07.758',-1.79
'0:07.762',-1.4
'0:07.766',-1.11
'0:07.770',-0.94
'0:07.773',-0.81
'0:07.777',-0.75
'0:07.781',-0.65
'0:07.785',-0.33
'0:07.789',0.02
'0:07.793',0.2
'0:07.797',0.2
'0:07.801',0.3
'0:07.805',0.62
'0:07.809',1.08
'0:07.813',1.27
'0:07.816',1.32
'0:07.820',1.44
'0:07.824',1.65
'0:07.828',1.88
'0:07.832',2.08
'0:07.836',2.29
'0:07.840',2.44
'0:07.844',2.61
'0:07.848',2.75
'0:07.852',2.78
'0:07.855',2.73
'0:07.859',2.71
'0:07.863',2.78
'0:07.867',2.93
'0:07.871',2.85
'0:07.875',2.45
'0:07.879',1.97
'0:07.883',1.68
'0:07.887',1.46
'0:07.891',1.28
'0:07.895',0.97
'0:07.898',0.78
'0:07.902',0.63
'0:07.906',0.38
'0:07.910',0.08
'0:07.914',-0.09
'0:07.918',-0.23
'0:07.922',-0.22
'0:07.926',-0.14
'0:07.930',0.01
'0:07.934',0
'0:07.938',-0.05
'0:07.941',0.06
'0:07.945',0.02
'0:07.949',-0.09
'0:07.953',-0.19
'0:07.957',-0.11
'0:07.961',0.06
'0:07.965',0.23
'0:07.969',0.33
'0:07.973',0.23
'0:07.977',0.11
'0:07.980',-0.03
'0:07.984',-0.07
'0:07.988',-0.09
'0:07.992',-0.18
'0:07.996',-0.33
'0:08.000',-0.36
'0:08.004',-0.39
'0:08.008',-0.63
'0:08.012',-0.8
'0:08.016',-0.88
'0:08.020',-1.02
'0:08.023',-1.35
'0:08.027',-1.66
'0:08.031',-1.79
'0:08.035',-1.85
'0:08.039',-1.71
'0:08.043',-1.5
'0:08.047',-1.58
'0:08.051',-1.92
'0:08.055',-2.39
'0:08.059',-2.81
'0:08.063',-3.02
'0:08.066',-2.07
'0:08.070',0.03
'0:08.074',2.72
'0:08.078',5.92
'0:08.082',9.61
'0:08.086',12.92
'0:08.090',14.03
'0:08.094',12.66
'0:08.098',10.05
'0:08.102',6.41
'0:08.105',2.23
'0:08.109',-1.64
'0:08.113',-4.82
'0:08.117',-7.03
'0:08.121',-7.57
'0:08.125',-6.77
'0:08.129',-5.89
'0:08.133',-5.13
'0:08.137',-4.43
'0:08.141',-3.79
'0:08.145',-3.5
'0:08.148',-3.25
'0:08.152',-2.85
'0:08.156',-2.37
'0:08.160',-2.14
'0:08.164',-2.13
'0:08.168',-2.19
'0:08.172',-1.89
'0:08.176',-1.45
'0:08.180',-1.14
'0:08.184',-1.02
'0:08.188',-0.85
'0:08.191',-0.44
'0:08.195',-0.29
'0:08.199',-0.31
'0:08.203',-0.16
'0:08.207',0.21
'0:08.211',0.31
'0:08.215',0.27
'0:08.219',0.28
'0:08.223',0.28
'0:08.227',0.49
'0:08.230',0.75
'0:08.234',1.11
'0:08.238',1.24
'0:08.242',1.53
'0:08.246',1.92
'0:08.250',2.03
'0:08.254',1.94
'0:08.258',2.04
'0:08.262',2.55
'0:08.266',2.6
'0:08.270',2.46
'0:08.273',2.45
'0:08.277',2.23
'0:08.281',1.6
'0:08.285',1.24
'0:08.289',1.01
'0:08.293',0.92
'0:08.297',0.41
'0:08.301',-0.03
'0:08.305',-0.4
'0:08.309',-0.37
'0:08.313',-0.36
'0:08.316',-0.44
'0:08.320',-0.53
'0:08.324',-0.7
'0:08.328',-0.9
'0:08.332',-0.9
'0:08.336',-0.76
'0:08.340',-0.84
'0:08.344',-0.49
'0:08.348',-0.19
'0:08.352',-0.04
'0:08.355',0.18
'0:08.359',0.38
'0:08.363',0.53
'0:08.367',0.61
'0:08.371',0.56
'0:08.375',0.54
'0:08.379',0.59
'0:08.383',0.52
'0:08.387',0.45
'0:08.391',0.31
'0:08.395',0.14
'0:08.398',-0.1
'0:08.402',-0.37
'0:08.406',-0.46
'0:08.410',-0.39
'0:08.414',-0.48
'0:08.418',-0.94
'0:08.422',-1.41
'0:08.426',-1.65
'0:08.430',-1.68
'0:08.434',-1.58
'0:08.438',-1.57
'0:08.441',-1.68
'0:08.445',-1.65
'0:08.449',-1.63
'0:08.453',-1.75
'0:08.457',-2.19
'0:08.461',-2.8
'0:08.465',-3.28
'0:08.469',-3.24
'0:08.473',-2.21
'0:08.477',-0.17
'0:08.480',2.46
'0:08.484',5.96
'0:08.488',9.82
'0:08.492',13.01
'0:08.496',13.89
'0:08.500',12.33
'0:08.504',9.43
'0:08.508',5.56
'0:08.512',1.45
'0:08.516',-2.43
'0:08.520',-5.41
'0:08.523',-7.18
'0:08.527',-7.71
'0:08.531',-7.23
'0:08.535',-6.2
'0:08.539',-5.05
'0:08.543',-4.3
'0:08.547',-3.94
'0:08.551',-3.66
'0:08.555',-3.37
'0:08.559',-3.14
'0:08.563',-2.92
'0:08.566',-2.67
'0:08.570',-2.4
'0:08.574',-2.25
'0:08.578',-2.11
'0:08.582',-1.86
'0:08.586',-1.52
'0:08.590',-1.13
'0:08.594',-0.84
'0:08.598',-0.74
'0:08.602',-0.66
'0:08.605',-0.42
'0:08.609',-0.21
'0:08.613',-0.11
'0:08.617',-0.01
'0:08.621',0.1
'0:08.625',0.34
'0:08.629',0.56
'0:08.633',0.72
'0:08.637',0.9
'0:08.641',1.1
'0:08.645',1.43
'0:08.648',1.77
'0:08.652',1.95
'0:08.656',2.08
'0:08.660',2.26
'0:08.664',2.45
'0:08.668',2.43
'0:08.672',2.24
'0:08.676',2.04
'0:08.680',1.87
'0:08.684',1.68
'0:08.688',1.4
'0:08.691',1.13
'0:08.695',0.9
'0:08.699',0.73
'0:08.703',0.54
'0:08.707',0.23
'0:08.711',-0.14
'0:08.715',-0.38
'0:08.719',-0.54
'0:08.723',-0.56
'0:08.727',-0.54
'0:08.730',-0.46
'0:08.734',-0.51
'0:08.738',-0.61
'0:08.742',-0.58
'0:08.746',-0.4
'0:08.750',-0.18
'0:08.754',-0.05
'0:08.758',0.05
'0:08.762',0.14
'0:08.766',0.22
'0:08.770',0.27
'0:08.773',0.22
'0:08.777',0.17
'0:08.781',0.31
'0:08.785',0.44
'0:08.789',0.36
'0:08.793',0.12
'0:08.797',-0.13
'0:08.801',-0.29
'0:08.805',-0.54
'0:08.809',-0.81
'0:08.813',-1.03
'0:08.816',-1.19
'0:08.820',-1.29
'0:08.824',-1.31
'0:08.828',-1.44
'0:08.832',-1.7
'0:08.836',-1.9
'0:08.840',-2.04
'0:08.844',-2.01
'0:08.848',-2.02
'0:08.852',-1.92
'0:08.855',-1.98
'0:08.859',-2.26
'0:08.863',-2.82
'0:08.867',-3.43
'0:08.871',-3.77
'0:08.875',-3.13
'0:08.879',-1.08
'0:08.883',1.99
'0:08.887',5.71
'0:08.891',9.97
'0:08.895',13.58
'0:08.898',14.99
'0:08.902',13.78
'0:08.906',10.85
'0:08.910',6.82
'0:08.914',2.35
'0:08.918',-1.99
'0:08.922',-5.47
'0:08.926',-7.58
'0:08.930',-8.15
'0:08.934',-7.66
'0:08.938',-6.62
'0:08.941',-5.55
'0:08.945',-4.82
'0:08.949',-4.24
'0:08.953',-3.87
'0:08.957',-3.46
'0:08.961',-3.15
'0:08.965',-3.15
'0:08.969',-3.15
'0:08.973',-2.87
'0:08.977',-2.4
'0:08.980',-2.31
'0:08.984',-2.16
'0:08.988',-2.12
'0:08.992',-2.02
'0:08.996',-1.45
'0:09.000',-1.16
'0:09.004',-1.25
'0:09.008',-1.19
'0:09.012',-0.88
'0:09.016',-0.42
'0:09.020',-0.24
'0:09.023',-0.2
'0:09.027',-0.04
'0:09.031',0
'0:09.035',0.21
'0:09.039',0.52
'0:09.043',1.17
'0:09.047',1.34
'0:09.051',1.28
'0:09.055',1.42
'0:09.059',1.5
'0:09.063',1.8
'0:09.066',1.93
'0:09.070',2.03
'0:09.074',2.1
'0:09.078',1.93
'0:09.082',1.82
'0:09.086',1.58
'0:09.090',1.21
'0:09.094',1.06
'0:09.098',0.86
'0:09.102',0.49
'0:09.105',0.21
'0:09.109',0.08
'0:09.113',-0.12
'0:09.117',-0.24
'0:09.121',-0.45
'0:09.125',-0.7
'0:09.129',-0.63
'0:09.133',-0.7
'0:09.137',-0.6
'0:09.141',-0.77
'0:09.145',-1.09
'0:09.148',-1.11
'0:09.152',-0.99
'0:09.156',-0.87
'0:09.160',-0.65
'0:09.164',-0.18
'0:09.168',0.01
'0:09.172',0.27
'0:09.176',0.47
'0:09.180',0.3
'0:09.184',0.14
'0:09.188',0.11
'0:09.191',0.31
'0:09.195',0.36
'0:09.199',0.1
'0:09.203',-0.27
'0:09.207',-0.43
'0:09.211',-0.47
'0:09.215',-0.67
'0:09.219',-0.83
'0:09.223',-1.07
'0:09.227',-1.19
'0:09.230',-1.14
'0:09.234',-1.25
'0:09.238',-1.48
'0:09.242',-1.79
'0:09.246',-2.12
'0:09.250',-2.26
'0:09.254',-2.01
'0:09.258',-1.77
'0:09.262',-1.82
'0:09.266',-1.93
'0:09.270',-1.97
'0:09.273',-2.29
'0:09.277',-3.04
'0:09.281',-3.82
'0:09.285',-4.08
'0:09.289',-3.11
'0:09.293',-0.71
'0:09.297',2.71
'0:09.301',6.95
'0:09.305',11.34
'0:09.309',14.66
'0:09.313',15.26
'0:09.316',13.4
'0:09.320',9.99
'0:09.324',5.5
'0:09.328',0.86
'0:09.332',-3.37
'0:09.336',-6.4
'0:09.340',-7.95
'0:09.344',-7.87
'0:09.348',-6.98
'0:09.352',-5.85
'0:09.355',-4.96
'0:09.359',-4.28
'0:09.363',-3.82
'0:09.367',-3.42
'0:09.371',-3.14
'0:09.375',-2.91
'0:09.379',-2.69
'0:09.383',-2.47
'0:09.387',-2.17
'0:09.391',-1.82
'0:09.395',-1.59
'0:09.398',-1.44
'0:09.402',-1.23
'0:09.406',-0.96
'0:09.410',-0.74
'0:09.414',-0.57
'0:09.418',-0.35
'0:09.422',-0.22
'0:09.426',-0.21
'0:09.430',-0.16
'0:09.434',-0.04
'0:09.438',0.1
'0:09.441',0.24
'0:09.445',0.53
'0:09.449',0.72
'0:09.453',0.91
'0:09.457',1.18
'0:09.461',1.55
'0:09.465',2.01
'0:09.469',2.26
'0:09.473',2.47
'0:09.477',2.56
'0:09.480',2.52
'0:09.484',2.56
'0:09.488',2.58
'0:09.492',2.5
'0:09.496',2.28
'0:09.500',2.04
'0:09.504',1.85
'0:09.508',1.61
'0:09.512',1.34
'0:09.516',1.14
'0:09.520',0.86
'0:09.523',0.56
'0:09.527',0.27
'0:09.531',-0.08
'0:09.535',-0.42
'0:09.539',-0.58
'0:09.543',-0.6
'0:09.547',-0.6
'0:09.551',-0.67
'0:09.555',-0.72
'0:09.559',-0.67
'0:09.563',-0.42
'0:09.566',-0.18
'0:09.570',-0.01
'0:09.574',0.17
'0:09.578',0.19
'0:09.582',0.18
'0:09.586',0.07
'0:09.590',-0.04
'0:09.594',-0.18
'0:09.598',-0.25
'0:09.602',-0.11
'0:09.605',-0.01
'0:09.609',-0.01
'0:09.613',-0.16
'0:09.617',-0.21
'0:09.621',-0.25
'0:09.625',-0.31
'0:09.629',-0.43
'0:09.633',-0.73
'0:09.637',-0.85
'0:09.641',-0.86
'0:09.645',-1.04
'0:09.648',-1.35
'0:09.652',-1.64
'0:09.656',-1.89
'0:09.660',-2.04
'0:09.664',-2.02
'0:09.668',-1.99
'0:09.672',-1.93
'0:09.676',-1.84
'0:09.680',-1.65
'0:09.684',-2.05
'0:09.688',-2.88
'0:09.691',-3.51
'0:09.695',-3.74
'0:09.699',-2.86
'0:09.703',-0.55
'0:09.707',2.62
'0:09.711',6.65
'0:09.715',11.02
'0:09.719',14.29
'0:09.723',14.69
'0:09.727',12.75
'0:09.730',9.4
'0:09.734',4.84
'0:09.738',0.22
'0:09.742',-3.91
'0:09.746',-6.86
'0:09.750',-8.33
'0:09.754',-8.23
'0:09.758',-7.36
'0:09.762',-6.23
'0:09.766',-5.2
'0:09.770',-4.68
'0:09.773',-4.1
'0:09.777',-3.28
'0:09.781',-2.83
'0:09.785',-2.8
'0:09.789',-2.64
'0:09.793',-2.28
'0:09.797',-2.26
'0:09.801',-2.03
'0:09.805',-1.51
'0:09.809',-1.36
'0:09.813',-1.3
'0:09.816',-1.18
'0:09.820',-0.83
'0:09.824',-0.5
'0:09.828',-0.33
'0:09.832',-0.23
'0:09.836',-0.09
'0:09.840',0.18
'0:09.844',0.47
'0:09.848',0.47
'0:09.852',0.48
'0:09.855',0.57
'0:09.859',0.85
'0:09.863',1.19
'0:09.867',1.41
'0:09.871',1.63
'0:09.875',2.04
'0:09.879',2.29
'0:09.883',2.48
'0:09.887',2.57
'0:09.891',2.56
'0:09.895',2.67
'0:09.898',2.78
'0:09.902',2.58
'0:09.906',2.28
'0:09.910',1.89
'0:09.914',1.63
'0:09.918',1.41
'0:09.922',1.03
'0:09.926',0.72
'0:09.930',0.67
'0:09.934',0.42
'0:09.938',0.04
'0:09.941',-0.24
'0:09.945',-0.55
'0:09.949',-0.71
'0:09.953',-0.63
'0:09.957',-0.52
'0:09.961',-0.54
'0:09.965',-0.76
'0:09.969',-0.92
'0:09.973',-0.86
'0:09.977',-0.72
'0:09.980',-0.42
'0:09.984',-0.22
'0:09.988',-0.11
'0:09.992',0.24
'0:09.996',0.36
'0:10.000',0.28
'0:10.004',0.2
'0:10.008',0.02
'0:10.012',-0.04
'0:10.016',0.01
'0:10.020',0.02
'0:10.023',-0.09
'0:10.027',-0.14
'0:10.031',-0.04
'0:10.035',0.16
'0:10.039',0.01
'0:10.043',-0.48
'0:10.047',-0.94
'0:10.051',-1.09
'0:10.055',-1.2
'0:10.059',-1.36
'0:10.063',-1.58
'0:10.066',-2.04
'0:10.070',-2.29
'0:10.074',-2.41
'0:10.078',-2.41
'0:10.082',-2.33
'0:10.086',-2.16
'0:10.090',-2
'0:10.094',-2.08
'0:10.098',-2.57
'0:10.102',-3.34
'0:10.105',-4
'0:10.109',-3.75
'0:10.113',-2.24
'0:10.117',0.32
'0:10.121',3.51
'0:10.125',7.64
'0:10.129',11.72
'0:10.133',14.07
'0:10.137',13.56
'0:10.141',11.32
'0:10.145',7.79
'0:10.148',3.49
'0:10.152',-0.83
'0:10.156',-4.54
'0:10.160',-7.21
'0:10.164',-8.48
'0:10.168',-8.27
'0:10.172',-7.31
'0:10.176',-6.21
'0:10.180',-5.18
'0:10.184',-4.21
'0:10.188',-3.33
'0:10.191',-2.66
'0:10.195',-2.2
'0:10.199',-1.92
'0:10.203',-1.67
'0:10.207',-1.41
'0:10.211',-1.23
'0:10.215',-1.16
'0:10.219',-1.13
'0:10.223',-0.98
'0:10.227',-0.77
'0:10.230',-0.57
'0:10.234',-0.42
'0:10.238',-0.28
'0:10.242',-0.11
'0:10.246',-0.02
'0:10.250',0.03
'0:10.254',0.07
'0:10.258',0.16
'0:10.262',0.37
'0:10.266',0.68
'0:10.270',0.99
'0:10.273',1.35
'0:10.277',1.73
'0:10.281',1.99
'0:10.285',2.17
'0:10.289',2.35
'0:10.293',2.51
'0:10.297',2.62
'0:10.301',2.72
'0:10.305',2.78
'0:10.309',2.77
'0:10.313',2.73
'0:10.316',2.78
'0:10.320',2.72
'0:10.324',2.47
'0:10.328',2.01
'0:10.332',1.59
'0:10.336',1.3
'0:10.340',1.05
'0:10.344',0.82
'0:10.348',0.52
'0:10.352',0.27
'0:10.355',0.07
'0:10.359',-0.21
'0:10.363',-0.42
'0:10.367',-0.52
'0:10.371',-0.53
'0:10.375',-0.63
'0:10.379',-0.66
'0:10.383',-0.58
'0:10.387',-0.43
'0:10.391',-0.34
'0:10.395',-0.36
'0:10.398',-0.31
'0:10.402',-0.21
'0:10.406',-0.14
'0:10.410',-0.13
'0:10.414',-0.02
'0:10.418',-0.05
'0:10.422',-0.12
'0:10.426',-0.03
'0:10.430',0.03
'0:10.434',-0.04
'0:10.438',-0.08
'0:10.441',-0.18
'0:10.445',-0.41
'0:10.449',-0.56
'0:10.453',-0.76
'0:10.457',-0.91
'0:10.461',-1.05
'0:10.465',-1.37
'0:10.469',-1.71
'0:10.473',-1.85
'0:10.477',-2.01
'0:10.480',-2.29
'0:10.484',-2.13
'0:10.488',-2.04
'0:10.492',-2.14
'0:10.496',-2.15
'0:10.500',-1.97
'0:10.504',-1.85
'0:10.508',-2.09
'0:10.512',-2.71
'0:10.516',-3.58
'0:10.520',-3.51
'0:10.523',-2.15
'0:10.527',0.25
'0:10.531',3.26
'0:10.535',7.19
'0:10.539',11.22
'0:10.543',13.8
'0:10.547',13.7
'0:10.551',11.41
'0:10.555',7.76
'0:10.559',3.67
'0:10.563',-0.34
'0:10.566',-4.1
'0:10.570',-6.96
'0:10.574',-8.34
'0:10.578',-8.27
'0:10.582',-7.6
'0:10.586',-6.55
'0:10.590',-5.48
'0:10.594',-4.59
'0:10.598',-3.92
'0:10.602',-3.48
'0:10.605',-3.41
'0:10.609',-3.41
'0:10.613',-3.43
'0:10.617',-3.18
'0:10.621',-2.72
'0:10.625',-2.46
'0:10.629',-2.27
'0:10.633',-1.96
'0:10.637',-1.57
'0:10.641',-1.54
'0:10.645',-1.25
'0:10.648',-0.97
'0:10.652',-1.01
'0:10.656',-0.91
'0:10.660',-0.81
'0:10.664',-0.57
'0:10.668',-0.56
'0:10.672',-0.44
'0:10.676',-0.33
'0:10.680',0.08
'0:10.684',0.63
'0:10.688',1.04
'0:10.691',1.24
'0:10.695',1.17
'0:10.699',1.23
'0:10.703',1.36
'0:10.707',1.72
'0:10.711',1.85
'0:10.715',1.99
'0:10.719',2.1
'0:10.723',2.11
'0:10.727',2.1
'0:10.730',2
'0:10.734',1.9
'0:10.738',1.66
'0:10.742',1.58
'0:10.746',1.22
'0:10.750',0.74
'0:10.754',0.54
'0:10.758',0.26
'0:10.762',-0.25
'0:10.766',-0.66
'0:10.770',-0.77
'0:10.773',-0.73
'0:10.777',-0.8
'0:10.781',-0.88
'0:10.785',-1.11
'0:10.789',-1.1
'0:10.793',-0.63
'0:10.797',-0.25
'0:10.801',-0.15
'0:10.805',-0.36
'0:10.809',-0.23
'0:10.813',0.02
'0:10.816',0.14
'0:10.820',0.06
'0:10.824',-0.08
'0:10.828',-0.19
'0:10.832',-0.04
'0:10.836',0.27
'0:10.840',0.47
'0:10.844',0.34
'0:10.848',0.11
'0:10.852',-0.19
'0:10.855',-0.44
'0:10.859',-0.6
'0:10.863',-0.65
'0:10.867',-0.63
'0:10.871',-0.56
'0:10.875',-0.57
'0:10.879',-0.89
'0:10.883',-1.36
'0:10.887',-1.82
'0:10.891',-2.05
'0:10.895',-2.03
'0:10.898',-1.84
'0:10.902',-1.76
'0:10.906',-1.78
'0:10.910',-1.75
'0:10.914',-1.75
'0:10.918',-2.17
'0:10.922',-3.03
'0:10.926',-3.6
'0:10.930',-3.48
'0:10.934',-2.38
'0:10.938',0.02
'0:10.941',3.14
'0:10.945',7.02
'0:10.949',10.92
'0:10.953',13.64
'0:10.957',13.7
'0:10.961',11.77
'0:10.965',8.78
'0:10.969',4.93
'0:10.973',0.84
'0:10.977',-2.96
'0:10.980',-5.85
'0:10.984',-7.35
'0:10.988',-7.31
'0:10.992',-6.57
'0:10.996',-5.58
'0:11.000',-4.81
'0:11.004',-4.21
'0:11.008',-3.6
'0:11.012',-3.12
'0:11.016',-2.86
'0:11.020',-2.56
'0:11.023',-2.15
'0:11.027',-1.91
'0:11.031',-1.82
'0:11.035',-1.77
'0:11.039',-1.57
'0:11.043',-1.38
'0:11.047',-1.11
'0:11.051',-0.86
'0:11.055',-0.76
'0:11.059',-0.57
'0:11.063',-0.28
'0:11.066',-0.06
'0:11.070',0.1
'0:11.074',0.26
'0:11.078',0.45
'0:11.082',0.61
'0:11.086',0.83
'0:11.090',1.21
'0:11.094',1.63
'0:11.098',1.91
'0:11.102',2.18
'0:11.105',2.42
'0:11.109',2.62
'0:11.113',2.92
'0:11.117',3.05
'0:11.121',3.07
'0:11.125',3.18
'0:11.129',3.22
'0:11.133',3.12
'0:11.137',2.85
'0:11.141',2.65
'0:11.145',2.48
'0:11.148',2.35
'0:11.152',2.24
'0:11.156',1.89
'0:11.160',1.56
'0:11.164',1.34
'0:11.168',1.13
'0:11.172',0.89
'0:11.176',0.65
'0:11.180',0.47
'0:11.184',0.29
'0:11.188',0.16
'0:11.191',0.08
'0:11.195',0.05
'0:11.199',0
'0:11.203',0.09
'0:11.207',0.31
'0:11.211',0.63
'0:11.215',0.95
'0:11.219',1.29
'0:11.223',1.52
'0:11.227',1.59
'0:11.230',1.46
'0:11.234',1.37
'0:11.238',1.37
'0:11.242',1.42
'0:11.246',1.42
'0:11.250',1.33
'0:11.254',1.02
'0:11.258',0.79
'0:11.262',0.72
'0:11.266',0.69
'0:11.270',0.74
'0:11.273',0.56
'0:11.277',0.23
'0:11.281',-0.05
'0:11.285',-0.26
'0:11.289',-0.57
'0:11.293',-0.96
'0:11.297',-1.19
'0:11.301',-1.34
'0:11.305',-1.23
'0:11.309',-1.12
'0:11.313',-1.18
'0:11.316',-1.2
'0:11.320',-1.08
'0:11.324',-1.17
'0:11.328',-1.57
'0:11.332',-2.15
'0:11.336',-2.52
'0:11.340',-2.08
'0:11.344',-0.71
'0:11.348',1.71
'0:11.352',4.95
'0:11.355',8.98
'0:11.359',12.77
'0:11.363',14.94
'0:11.367',14.46
'0:11.371',11.99
'0:11.375',8.41
'0:11.379',4.33
'0:11.383',0.08
'0:11.387',-3.82
'0:11.391',-6.32
'0:11.395',-7.31
'0:11.398',-6.95
'0:11.402',-6.11
'0:11.406',-5.15
'0:11.410',-4.28
'0:11.414',-3.7
'0:11.418',-3.16
'0:11.422',-2.68
'0:11.426',-2.47
'0:11.430',-2.27
'0:11.434',-2.06
'0:11.438',-1.79
'0:11.441',-1.52
'0:11.445',-1.35
'0:11.449',-1.25
'0:11.453',-1.16
'0:11.457',-0.94
'0:11.461',-0.7
'0:11.465',-0.5
'0:11.469',-0.42
'0:11.473',-0.25
'0:11.477',-0.03
'0:11.480',0.2
'0:11.484',0.45
'0:11.488',0.5
'0:11.492',0.59
'0:11.496',0.75
'0:11.500',1.08
'0:11.504',1.32
'0:11.508',1.49
'0:11.512',1.51
'0:11.516',1.43
'0:11.520',1.68
'0:11.523',1.94
'0:11.527',2.12
'0:11.531',2.06
'0:11.535',2.26
'0:11.539',2.63
'0:11.543',2.37
'0:11.547',1.99
'0:11.551',1.98
'0:11.555',1.84
'0:11.559',1.39
'0:11.563',1.04
'0:11.566',0.78
'0:11.570',0.29
'0:11.574',-0.02
'0:11.578',-0.13
'0:11.582',-0.27
'0:11.586',-0.52
'0:11.590',-0.55
'0:11.594',-0.54
'0:11.598',-0.32
'0:11.602',-0.36
'0:11.605',-0.33
'0:11.609',-0.63
'0:11.613',-0.66
'0:11.617',-0.29
'0:11.621',-0.09
'0:11.625',-0.11
'0:11.629',-0.12
'0:11.633',0.1
'0:11.637',0.36
'0:11.641',0.4
'0:11.645',0.35
'0:11.648',0.3
'0:11.652',0.33
'0:11.656',0.31
'0:11.660',0.35
'0:11.664',0.35
'0:11.668',0.3
'0:11.672',0.35
'0:11.676',0.26
'0:11.680',0.05
'0:11.684',-0.17
'0:11.688',-0.4
'0:11.691',-0.63
'0:11.695',-0.9
'0:11.699',-1.13
'0:11.703',-1.41
'0:11.707',-1.63
'0:11.711',-1.67
'0:11.715',-1.65
'0:11.719',-1.74
'0:11.723',-1.8
'0:11.727',-1.77
'0:11.730',-1.81
'0:11.734',-2.24
'0:11.738',-2.88
'0:11.742',-3.23
'0:11.746',-2.85
'0:11.750',-1.33
'0:11.754',1.35
'0:11.758',4.69
'0:11.762',8.54
'0:11.766',12.19
'0:11.770',14.36
'0:11.773',13.93
'0:11.777',11.67
'0:11.781',8.03
'0:11.785',3.6
'0:11.789',-0.71
'0:11.793',-2.02
'0:11.797',-2.02
'0:11.801',-7.7
'0:11.805',-6.9
'0:11.809',-5.82
'0:11.813',-4.91
'0:11.816',-4.3
'0:11.820',-3.96
'0:11.824',-3.63
'0:11.828',-3.25
'0:11.832',-2.9
'0:11.836',-2.54
'0:11.840',-2.17
'0:11.844',-1.92
'0:11.848',-1.63
'0:11.852',-1.29
'0:11.855',-1.05
'0:11.859',-0.99
'0:11.863',-0.9
'0:11.867',-0.85
'0:11.871',-0.8
'0:11.875',-0.69
'0:11.879',-0.52
'0:11.883',-0.37
'0:11.887',-0.2
'0:11.891',-0.07
'0:11.895',0.09
'0:11.898',0.35
'0:11.902',0.69
'0:11.906',1.07
'0:11.910',1.39
'0:11.914',1.62
'0:11.918',1.77
'0:11.922',1.91
'0:11.926',2.04
'0:11.930',2.1
'0:11.934',2.15
'0:11.938',2.17
'0:11.941',2.17
'0:11.945',2.17
'0:11.949',2.19
'0:11.953',2.06
'0:11.957',1.78
'0:11.961',1.48
'0:11.965',1.13
'0:11.969',0.86
'0:11.973',0.63
'0:11.977',0.33
'0:11.980',0.05
'0:11.984',-0.19
'0:11.988',-0.42
'0:11.992',-0.6
'0:11.996',-0.65
'0:12.000',-0.61
'0:12.004',-0.61
'0:12.008',-0.74
'0:12.012',-0.92
'0:12.016',-0.95
'0:12.020',-0.86
'0:12.023',-0.64
'0:12.027',-0.38
'0:12.031',-0.22
'0:12.035',-0.13
'0:12.039',0
'0:12.043',0.12
'0:12.047',0.24
'0:12.051',0.22
'0:12.055',0.2
'0:12.059',0.18
'0:12.063',0.21
'0:12.066',0.22
'0:12.070',0.13
'0:12.074',-0.08
'0:12.078',-0.27
'0:12.082',-0.4
'0:12.086',-0.47
'0:12.090',-0.61
'0:12.094',-0.83
'0:12.098',-1.02
'0:12.102',-1.06
'0:12.105',-1.2
'0:12.109',-1.53
'0:12.113',-1.69
'0:12.117',-1.77
'0:12.121',-1.95
'0:12.125',-2.07
'0:12.129',-2.05
'0:12.133',-2.16
'0:12.137',-2.08
'0:12.141',-2.03
'0:12.145',-2.33
'0:12.148',-3
'0:12.152',-3.62
'0:12.156',-3.79
'0:12.160',-2.98
'0:12.164',-1.01
'0:12.168',2.04
'0:12.172',5.71
'0:12.176',9.98
'0:12.180',13.7
'0:12.184',14.85
'0:12.188',13.31
'0:12.191',10.27
'0:12.195',6.15
'0:12.199',1.63
'0:12.203',-2.67
'0:12.207',-5.95
'0:12.211',-7.89
'0:12.215',-8.35
'0:12.219',-7.57
'0:12.223',-6.58
'0:12.227',-5.66
'0:12.230',-4.96
'0:12.234',-4.53
'0:12.238',-4.1
'0:12.242',-3.71
'0:12.246',-3.42
'0:12.250',-3.23
'0:12.254',-2.96
'0:12.258',-2.75
'0:12.262',-2.63
'0:12.266',-2.57
'0:12.270',-2.36
'0:12.273',-2
'0:12.277',-1.73
'0:12.281',-1.63
'0:12.285',-1.57
'0:12.289',-1.51
'0:12.293',-1.37
'0:12.297',-1
'0:12.301',-0.71
'0:12.305',-0.78
'0:12.309',-0.79
'0:12.313',-0.46
'0:12.316',0.01
'0:12.320',0.53
'0:12.324',0.62
'0:12.328',0.6
'0:12.332',0.78
'0:12.336',1.1
'0:12.340',1.35
'0:12.344',1.46
'0:12.348',1.54
'0:12.352',1.61
'0:12.355',1.69
'0:12.359',1.66
'0:12.363',1.59
'0:12.367',1.52
'0:12.371',1.36
'0:12.375',1.19
'0:12.379',0.91
'0:12.383',0.54
'0:12.387',0.24
'0:12.391',0.13
'0:12.395',0
'0:12.398',-0.4
'0:12.402',-0.85
'0:12.406',-1.09
'0:12.410',-1.14
'0:12.414',-0.99
'0:12.418',-0.93
'0:12.422',-1.08
'0:12.426',-1.21
'0:12.430',-1.29
'0:12.434',-1.25
'0:12.438',-1.08
'0:12.441',-0.87
'0:12.445',-0.56
'0:12.449',-0.17
'0:12.453',0.1
'0:12.457',0.11
'0:12.461',0.06
'0:12.465',-0.08
'0:12.469',-0.2
'0:12.473',-0.3
'0:12.477',-0.36
'0:12.480',-0.34
'0:12.484',-0.33
'0:12.488',-0.38
'0:12.492',-0.34
'0:12.496',-0.28
'0:12.500',-0.44
'0:12.504',-0.69
'0:12.508',-0.85
'0:12.512',-0.85
'0:12.516',-0.94
'0:12.520',-1.16
'0:12.523',-1.47
'0:12.527',-1.6
'0:12.531',-1.63
'0:12.535',-1.65
'0:12.539',-1.7
'0:12.543',-1.65
'0:12.547',-1.6
'0:12.551',-1.55
'0:12.555',-1.55
'0:12.559',-1.88
'0:12.563',-2.56
'0:12.566',-3.18
'0:12.570',-3.5
'0:12.574',-3.05
'0:12.578',-1.16
'0:12.582',1.84
'0:12.586',5.62
'0:12.590',9.94
'0:12.594',13.74
'0:12.598',15.27
'0:12.602',14.27
'0:12.605',11.42
'0:12.609',7.17
'0:12.613',2.31
'0:12.617',-2.26
'0:12.621',-5.74
'0:12.625',-7.69
'0:12.629',-8.07
'0:12.633',-7.47
'0:12.637',-6.41
'0:12.641',-5.28
'0:12.645',-4.41
'0:12.648',-3.79
'0:12.652',-3.38
'0:12.656',-3.04
'0:12.660',-2.71
'0:12.664',-2.31
'0:12.668',-2.01
'0:12.672',-1.73
'0:12.676',-1.44
'0:12.680',-1.05
'0:12.684',-0.77
'0:12.688',-0.72
'0:12.691',-0.81
'0:12.695',-0.96
'0:12.699',-0.99
'0:12.703',-0.91
'0:12.707',-0.65
'0:12.711',-0.31
'0:12.715',-0.08
'0:12.719',0.09
'0:12.723',0.26
'0:12.727',0.43
'0:12.730',0.69
'0:12.734',1.09
'0:12.738',1.51
'0:12.742',1.86
'0:12.746',2.13
'0:12.750',2.27
'0:12.754',2.34
'0:12.758',2.44
'0:12.762',2.51
'0:12.766',2.49
'0:12.770',2.42
'0:12.773',2.48
'0:12.777',2.54
'0:12.781',2.49
'0:12.785',2.41
'0:12.789',2.18
'0:12.793',1.79
'0:12.797',1.43
'0:12.801',1.23
'0:12.805',1.04
'0:12.809',0.74
'0:12.813',0.48
'0:12.816',0.26
'0:12.820',0.09
'0:12.824',0.06
'0:12.828',0.01
'0:12.832',-0.13
'0:12.836',-0.28
'0:12.840',-0.34
'0:12.844',-0.31
'0:12.848',-0.23
'0:12.852',-0.2
'0:12.855',-0.06
'0:12.859',0.09
'0:12.863',0.1
'0:12.867',0.1
'0:12.871',0.08
'0:12.875',0.03
'0:12.879',0
'0:12.883',0.03
'0:12.887',0.1
'0:12.891',0.11
'0:12.895',0.15
'0:12.898',0.18
'0:12.902',0.13
'0:12.906',0.15
'0:12.910',0.18
'0:12.914',0
'0:12.918',-0.2
'0:12.922',-0.31
'0:12.926',-0.42
'0:12.930',-0.54
'0:12.934',-0.76
'0:12.938',-1
'0:12.941',-1.11
'0:12.945',-1.3
'0:12.949',-1.52
'0:12.953',-1.39
'0:12.957',-1.35
'0:12.961',-1.4
'0:12.965',-1.35
'0:12.969',-1.3
'0:12.973',-1.75
'0:12.977',-2.41
'0:12.980',-2.94
'0:12.984',-3.15
'0:12.988',-2.34
'0:12.992',-0.28
'0:12.996',2.59
'0:13.000',6.59
'0:13.004',10.97
'0:13.008',14.11
'0:13.012',14.44
'0:13.016',12.67
'0:13.020',9.67
'0:13.023',5.71
'0:13.027',1.16
'0:13.031',-3.12
'0:13.035',-6.19
'0:13.039',-7.81
'0:13.043',-7.93
'0:13.047',-7.08
'0:13.051',-5.97
'0:13.055',-4.85
'0:13.059',-3.97
'0:13.063',-3.46
'0:13.066',-3.07
'0:13.070',-2.67
'0:13.074',-2.3
'0:13.078',-2.12
'0:13.082',-1.97
'0:13.086',-1.7
'0:13.090',-1.43
'0:13.094',-1.19
'0:13.098',-1.01
'0:13.102',-0.88
'0:13.105',-0.85
'0:13.109',-0.78
'0:13.113',-0.57
'0:13.117',-0.29
'0:13.121',0.17
'0:13.125',0.44
'0:13.129',0.15
'0:13.133',-0.08
'0:13.137',0.56
'0:13.141',0.57
'0:13.145',0.29
'0:13.148',0.81
'0:13.152',1.33
'0:13.156',1.68
'0:13.160',1.79
'0:13.164',1.89
'0:13.168',1.71
'0:13.172',1.97
'0:13.176',2.21
'0:13.180',2.83
'0:13.184',3.09
'0:13.188',2.8
'0:13.191',2.44
'0:13.195',2.25
'0:13.199',1.96
'0:13.203',1.64
'0:13.207',1.55
'0:13.211',1.31
'0:13.215',1.06
'0:13.219',0.82
'0:13.223',0.65
'0:13.227',0.19
'0:13.230',-0.42
'0:13.234',-0.63
'0:13.238',-0.64
'0:13.242',-0.85
'0:13.246',-0.45
'0:13.250',-0.27
'0:13.254',-0.43
'0:13.258',-0.42
'0:13.262',-0.45
'0:13.266',-0.26
'0:13.270',0.29
'0:13.273',0.42
'0:13.277',0.42
'0:13.281',0.83
'0:13.285',0.85
'0:13.289',0.4
'0:13.293',0.09
'0:13.297',-0.05
'0:13.301',-0.3
'0:13.305',-0.61
'0:13.309',-0.79
'0:13.313',-1.02
'0:13.316',-1.56
'0:13.320',-2.09
'0:13.324',-2.31
'0:13.328',-2.3
'0:13.332',-2.04
'0:13.336',-1.81
'0:13.340',-1.88
'0:13.344',-1.88
'0:13.348',-1.91
'0:13.352',-2.28
'0:13.355',-2.97
'0:13.359',-3.91
'0:13.363',-4.34
'0:13.367',-3.41
'0:13.371',-1.21
'0:13.375',1.82
'0:13.379',5.8
'0:13.383',9.95
'0:13.387',12.41
'0:13.391',12.05
'0:13.395',10.15
'0:13.398',7.12
'0:13.402',3.16
'0:13.406',-0.88
'0:13.410',-4.17
'0:13.414',-6.57
'0:13.418',-7.8
'0:13.422',-7.69
'0:13.426',-6.77
'0:13.430',-5.72
'0:13.434',-4.75
'0:13.438',-4
'0:13.441',-3.44
'0:13.445',-2.94
'0:13.449',-2.64
'0:13.453',-2.44
'0:13.457',-2.23
'0:13.461',-1.87
'0:13.465',-1.58
'0:13.469',-1.35
'0:13.473',-1.2
'0:13.477',-1.01
'0:13.480',-0.81
'0:13.484',-0.62
'0:13.488',-0.4
'0:13.492',-0.29
'0:13.496',-0.15
'0:13.500',-0.05
'0:13.504',0.14
'0:13.508',0.32
'0:13.512',0.41
'0:13.516',0.5
'0:13.520',0.86
'0:13.523',1.21
'0:13.527',1.32
'0:13.531',1.51
'0:13.535',1.81
'0:13.539',2.2
'0:13.543',2.41
'0:13.547',2.49
'0:13.551',2.49
'0:13.555',2.54
'0:13.559',2.58
'0:13.563',2.43
'0:13.566',2.19
'0:13.570',1.95
'0:13.574',1.67
'0:13.578',1.55
'0:13.582',1.5
'0:13.586',1.44
'0:13.590',1.37
'0:13.594',1.14
'0:13.598',0.87
'0:13.602',0.58
'0:13.605',0.24
'0:13.609',-0.09
'0:13.613',-0.42
'0:13.617',-0.59
'0:13.621',-0.73
'0:13.625',-0.69
'0:13.629',-0.63
'0:13.633',-0.63
'0:13.637',-0.52
'0:13.641',-0.39
'0:13.645',-0.29
'0:13.648',-0.35
'0:13.652',-0.52
'0:13.656',-0.63
'0:13.660',-0.65
'0:13.664',-0.6
'0:13.668',-0.45
'0:13.672',-0.34
'0:13.676',-0.15
'0:13.680',0.18
'0:13.684',0.45
'0:13.688',0.44
'0:13.691',0.38
'0:13.695',0.09
'0:13.699',-0.08
'0:13.703',-0.14
'0:13.707',-0.34
'0:13.711',-0.73
'0:13.715',-1.01
'0:13.719',-1.22
'0:13.723',-1.41
'0:13.727',-1.53
'0:13.730',-1.7
'0:13.734',-2.1
'0:13.738',-2.14
'0:13.742',-2.02
'0:13.746',-1.96
'0:13.750',-1.77
'0:13.754',-1.84
'0:13.758',-2.28
'0:13.762',-3.09
'0:13.766',-3.86
'0:13.770',-4.05
'0:13.773',-2.8
'0:13.777',-0.59
'0:13.781',2.24
'0:13.785',5.94
'0:13.789',9.77
'0:13.793',12.79
'0:13.797',13.26
'0:13.801',10.73
'0:13.805',7.57
'0:13.809',3.92
'0:13.813',0.08
'0:13.816',-3.72
'0:13.820',-6.71
'0:13.824',-8.4
'0:13.828',-8.94
'0:13.832',-8.45
'0:13.836',-7.31
'0:13.840',-5.98
'0:13.844',-5.06
'0:13.848',-4.46
'0:13.852',-3.94
'0:13.855',-3.61
'0:13.859',-3.18
'0:13.863',-3.05
'0:13.867',-2.85
'0:13.871',-2.62
'0:13.875',-2.37
'0:13.879',-2.14
'0:13.883',-1.77
'0:13.887',-1.43
'0:13.891',-1.42
'0:13.895',-1.59
'0:13.898',-1.44
'0:13.902',-1.24
'0:13.906',-0.84
'0:13.910',-0.45
'0:13.914',0.11
'0:13.918',0.11
'0:13.922',-0.17
'0:13.926',-0.36
'0:13.930',-0.3
'0:13.934',-0.01
'0:13.938',0.48
'0:13.941',0.93
'0:13.945',1.21
'0:13.949',1.54
'0:13.953',1.82
'0:13.957',1.95
'0:13.961',1.94
'0:13.965',1.82
'0:13.969',1.94
'0:13.973',2.13
'0:13.977',2.4
'0:13.980',2.05
'0:13.984',1.96
'0:13.988',1.78
'0:13.992',1.1
'0:13.996',0.68
'0:14.000',0.45
'0:14.004',0.4
'0:14.008',0.64
'0:14.012',0.43
'0:14.016',0.03
'0:14.020',-0.4
'0:14.023',-0.67
'0:14.027',-1.04
'0:14.031',-1.43
'0:14.035',-1
'0:14.039',-0.54
'0:14.043',-0.52
'0:14.047',-0.52
'0:14.051',-0.31
'0:14.055',-0.52
'0:14.059',-0.75
'0:14.063',-0.9
'0:14.066',-0.45
'0:14.070',0.28
'0:14.074',0.37
'0:14.078',0.19
'0:14.082',-0.14
'0:14.086',0.19
'0:14.090',0.63
'0:14.094',0.86
'0:14.098',1.25
'0:14.102',0.97
'0:14.105',0.51
'0:14.109',0.14
'0:14.113',0.06
'0:14.117',-0.25
'0:14.121',-0.94
'0:14.125',-1.2
'0:14.129',-1.49
'0:14.133',-1.75
'0:14.137',-1.88
'0:14.141',-2.18
'0:14.145',-2.38
'0:14.148',-2.32
'0:14.152',-2.03
'0:14.156',-1.67
'0:14.160',-1.41
'0:14.164',-1.6
'0:14.168',-2.23
'0:14.172',-2.93
'0:14.176',-3.09
'0:14.180',-2.14
'0:14.184',-0.07
'0:14.188',2.56
'0:14.191',5.97
'0:14.195',9.86
'0:14.199',13.03
'0:14.203',13.91
'0:14.207',12.48
'0:14.211',9.72
'0:14.215',5.84
'0:14.219',1.54
'0:14.223',-2.56
'0:14.227',-5.72
'0:14.230',-7.54
'0:14.234',-8.02
'0:14.238',-7.45
'0:14.242',-6.57
'0:14.246',-5.6
'0:14.250',-4.66
'0:14.254',-3.95
'0:14.258',-3.43
'0:14.262',-3.07
'0:14.266',-2.82
'0:14.270',-2.57
'0:14.273',-2.32
'0:14.277',-2.1
'0:14.281',-1.88
'0:14.285',-1.55
'0:14.289',-1.23
'0:14.293',-1.03
'0:14.297',-0.89
'0:14.301',-0.71
'0:14.305',-0.45
'0:14.309',-0.2
'0:14.313',0.02
'0:14.316',0.13
'0:14.320',0.22
'0:14.324',0.41
'0:14.328',0.63
'0:14.332',0.89
'0:14.336',1.07
'0:14.340',1.24
'0:14.344',1.43
'0:14.348',1.68
'0:14.352',1.97
'0:14.355',2.28
'0:14.359',2.65
'0:14.363',2.83
'0:14.367',2.85
'0:14.371',2.83
'0:14.375',2.76
'0:14.379',2.72
'0:14.383',2.66
'0:14.387',2.57
'0:14.391',2.33
'0:14.395',1.86
'0:14.398',1.42
'0:14.402',1.21
'0:14.406',0.96
'0:14.410',0.77
'0:14.414',0.56
'0:14.418',0.36
'0:14.422',0.25
'0:14.426',0.14
'0:14.430',0.05
'0:14.434',-0.11
'0:14.438',-0.24
'0:14.441',-0.35
'0:14.445',-0.29
'0:14.449',-0.19
'0:14.453',-0.18
'0:14.457',-0.26
'0:14.461',-0.26
'0:14.465',-0.2
'0:14.469',-0.13
'0:14.473',-0.07
'0:14.477',-0.02
'0:14.480',0.05
'0:14.484',0.22
'0:14.488',0.39
'0:14.492',0.6
'0:14.496',0.66
'0:14.500',0.75
'0:14.504',0.76
'0:14.508',0.69
'0:14.512',0.6
'0:14.516',0.5
'0:14.520',0.44
'0:14.523',0.46
'0:14.527',0.63
'0:14.531',0.6
'0:14.535',0.38
'0:14.539',0.27
'0:14.543',0.27
'0:14.547',0.04
'0:14.551',-0.21
'0:14.555',-0.35
'0:14.559',-0.54
'0:14.563',-0.74
'0:14.566',-1.06
'0:14.570',-1.3
'0:14.574',-1.38
'0:14.578',-1.46
'0:14.582',-1.41
'0:14.586',-1.27
'0:14.590',-1.28
'0:14.594',-1.36
'0:14.598',-1.25
'0:14.602',-1.32
'0:14.605',-1.94
'0:14.609',-2.51
'0:14.613',-2.52
'0:14.617',-1.57
'0:14.621',0.69
'0:14.625',3.8
'0:14.629',7.43
'0:14.633',11.45
'0:14.637',14.8
'0:14.641',15.13
'0:14.645',13.01
'0:14.648',9.79
'0:14.652',5.51
'0:14.656',1.11
'0:14.660',-2.88
'0:14.664',-5.82
'0:14.668',-7.52
'0:14.672',-7.77
'0:14.676',-6.84
'0:14.680',-5.72
'0:14.684',-4.69
'0:14.688',-4.11
'0:14.691',-3.78
'0:14.695',-3.52
'0:14.699',-3.13
'0:14.703',-2.67
'0:14.707',-2.48
'0:14.711',-2.4
'0:14.715',-2.3
'0:14.719',-2.15
'0:14.723',-1.86
'0:14.727',-1.68
'0:14.730',-1.24
'0:14.734',-0.83
'0:14.738',-0.68
'0:14.742',-0.87
'0:14.746',-0.78
'0:14.750',-0.52
'0:14.754',-0.32
'0:14.758',0.2
'0:14.762',0.61
'0:14.766',0.52
'0:14.770',0.4
'0:14.773',0.39
'0:14.777',0.58
'0:14.781',0.93
'0:14.785',1.21
'0:14.789',1.59
'0:14.793',1.94
'0:14.797',2.12
'0:14.801',2.42
'0:14.805',2.92
'0:14.809',2.84
'0:14.813',2.62
'0:14.816',2.54
'0:14.820',2.44
'0:14.824',2.23
'0:14.828',1.86
'0:14.832',1.76
'0:14.836',1.46
'0:14.840',1.1
'0:14.844',0.64
'0:14.848',0.03
'0:14.852',-0.58
'0:14.855',-0.53
'0:14.859',-0.17
'0:14.863',-0.51
'0:14.867',-1.04
'0:14.871',-1.33
'0:14.875',-1.5
'0:14.879',-1.37
'0:14.883',-0.94
'0:14.887',-0.81
'0:14.891',-0.9
'0:14.895',-0.85
'0:14.898',-0.61
'0:14.902',-0.35
'0:14.906',-0.11
'0:14.910',0.18
'0:14.914',0.51
'0:14.918',0.52
'0:14.922',0.29
'0:14.926',0.08
'0:14.930',0.05
'0:14.934',0.05
'0:14.938',0.19
'0:14.941',0.03
'0:14.945',-0.18
'0:14.949',-0.24
'0:14.953',-0.28
'0:14.957',-0.5
'0:14.961',-0.74
'0:14.965',-0.92
'0:14.969',-0.99
'0:14.973',-0.99
'0:14.977',-0.94
'0:14.980',-1.3
'0:14.984',-1.61
'0:14.988',-1.88
'0:14.992',-1.95
'0:14.996',-1.95
'0:15.000',-2.04
'0:15.004',-2.06
'0:15.008',-1.97
'0:15.012',-2.01
'0:15.016',-2.23
'0:15.020',-2.74
'0:15.023',-3.45
'0:15.027',-3.89
'0:15.031',-3.76
'0:15.035',-2.59
'0:15.039',-0.03
'0:15.043',3.47
'0:15.047',7.73
'0:15.051',11.99
'0:15.055',14.94
'0:15.059',14.95
'0:15.063',12.7
'0:15.066',9.06
'0:15.070',4.42
'0:15.074',-0.38
'0:15.078',-4.59
'0:15.082',-7.26
'0:15.086',-8.33
'0:15.090',-7.99
'0:15.094',-6.98
'0:15.098',-5.9
'0:15.102',-4.99
'0:15.105',-4.23
'0:15.109',-3.64
'0:15.113',-3.28
'0:15.117',-2.98
'0:15.121',-2.78
'0:15.125',-2.59
'0:15.129',-2.34
'0:15.133',-2.22
'0:15.137',-2.1
'0:15.141',-1.83
'0:15.145',-1.54
'0:15.148',-1.34
'0:15.152',-1.22
'0:15.156',-1.15
'0:15.160',-0.95
'0:15.164',-0.71
'0:15.168',-0.59
'0:15.172',-0.34
'0:15.176',0.07
'0:15.180',0.38
'0:15.184',0.63
'0:15.188',0.75
'0:15.191',0.88
'0:15.195',0.99
'0:15.199',1.31
'0:15.203',1.77
'0:15.207',2.09
'0:15.211',2.27
'0:15.215',2.37
'0:15.219',2.44
'0:15.223',2.44
'0:15.227',2.4
'0:15.230',2.35
'0:15.234',2.36
'0:15.238',2.28
'0:15.242',1.99
'0:15.246',1.71
'0:15.250',1.5
'0:15.254',1.19
'0:15.258',0.89
'0:15.262',0.64
'0:15.266',0.42
'0:15.270',0.14
'0:15.273',-0.16
'0:15.277',-0.33
'0:15.281',-0.38
'0:15.285',-0.41
'0:15.289',-0.58
'0:15.293',-0.79
'0:15.297',-0.92
'0:15.301',-0.96
'0:15.305',-0.86
'0:15.309',-0.76
'0:15.313',-0.7
'0:15.316',-0.61
'0:15.320',-0.42
'0:15.324',-0.24
'0:15.328',-0.11
'0:15.332',-0.03
'0:15.336',-0.07
'0:15.340',-0.28
'0:15.344',-0.36
'0:15.348',-0.27
'0:15.352',-0.2
'0:15.355',-0.02
'0:15.359',0.05
'0:15.363',0.1
'0:15.367',0.06
'0:15.371',-0.16
'0:15.375',-0.33
'0:15.379',-0.61
'0:15.383',-0.77
'0:15.387',-0.89
'0:15.391',-1.25
'0:15.395',-1.5
'0:15.398',-1.48
'0:15.402',-1.64
'0:15.406',-1.9
'0:15.410',-1.92
'0:15.414',-1.97
'0:15.418',-2.09
'0:15.422',-1.93
'0:15.426',-1.76
'0:15.430',-1.79
'0:15.434',-1.94
'0:15.438',-2.32
'0:15.441',-3.07
'0:15.445',-3.45
'0:15.449',-3.14
'0:15.453',-1.83
'0:15.457',0.69
'0:15.461',4.16
'0:15.465',8.29
'0:15.469',12.24
'0:15.473',14.49
'0:15.477',13.67
'0:15.480',11.37
'0:15.484',8.09
'0:15.488',3.59
'0:15.492',-1.31
'0:15.496',-5.55
'0:15.500',-7.96
'0:15.504',-9.09
'0:15.508',-8.8
'0:15.512',-7.49
'0:15.516',-6.24
'0:15.520',-5.33
'0:15.523',-4.88
'0:15.527',-3.97
'0:15.531',-3.37
'0:15.535',-2.91
'0:15.539',-2.37
'0:15.543',-2
'0:15.547',-1.97
'0:15.551',-2.17
'0:15.555',-2.08
'0:15.559',-1.71
'0:15.563',-1.35
'0:15.566',-1.21
'0:15.570',-1.24
'0:15.574',-1.25
'0:15.578',-1.12
'0:15.582',-0.91
'0:15.586',-0.68
'0:15.590',-0.33
'0:15.594',-0.23
'0:15.598',0.06
'0:15.602',0.53
'0:15.605',0.75
'0:15.609',0.88
'0:15.613',1.07
'0:15.617',1.34
'0:15.621',1.67
'0:15.625',1.97
'0:15.629',2.16
'0:15.633',2.16
'0:15.637',2.15
'0:15.641',2.47
'0:15.645',2.85
'0:15.648',2.75
'0:15.652',2.51
'0:15.656',2.4
'0:15.660',2.16
'0:15.664',1.67
'0:15.668',1.41
'0:15.672',1.3
'0:15.676',1.06
'0:15.680',0.6
'0:15.684',0.11
'0:15.688',-0.11
'0:15.691',-0.21
'0:15.695',-0.25
'0:15.699',-0.27
'0:15.703',-0.56
'0:15.707',-0.79
'0:15.711',-0.87
'0:15.715',-0.67
'0:15.719',-0.49
'0:15.723',-0.44
'0:15.727',-0.36
'0:15.730',-0.27
'0:15.734',-0.12
'0:15.738',0.16
'0:15.742',0.4
'0:15.746',0.54
'0:15.750',0.33
'0:15.754',0.11
'0:15.758',-0.04
'0:15.762',0.07
'0:15.766',0.16
'0:15.770',-0.01
'0:15.773',-0.27
'0:15.777',-0.69
'0:15.781',-1.28
'0:15.785',-1.72
'0:15.789',-1.96
'0:15.793',-2.21
'0:15.797',-2.36
'0:15.801',-2.31
'0:15.805',-2.19
'0:15.809',-2.09
'0:15.813',-2.02
'0:15.816',-2.23
'0:15.820',-2.95
'0:15.824',-3.92
'0:15.828',-4.83
'0:15.832',-5.19
'0:15.836',-4.43
'0:15.840',-2.15
'0:15.844',1.36
'0:15.848',5.99
'0:15.852',10.75
'0:15.855',13.96
'0:15.859',14.25
'0:15.863',12.48
'0:15.867',9.43
'0:15.871',5.27
'0:15.875',0.67
'0:15.879',-3.64
'0:15.883',-6.72
'0:15.887',-8.12
'0:15.891',-8.02
'0:15.895',-7.18
'0:15.898',-6.18
'0:15.902',-5.13
'0:15.906',-4.21
'0:15.910',-3.51
'0:15.914',-2.95
'0:15.918',-2.51
'0:15.922',-2.17
'0:15.926',-1.93
'0:15.930',-1.8
'0:15.934',-1.72
'0:15.938',-1.55
'0:15.941',-1.36
'0:15.945',-1.1
'0:15.949',-0.92
'0:15.953',-0.87
'0:15.957',-0.76
'0:15.961',-0.52
'0:15.965',-0.32
'0:15.969',-0.2
'0:15.973',-0.02
'0:15.977',0.12
'0:15.980',0.27
'0:15.984',0.56
'0:15.988',0.9
'0:15.992',1.07
'0:15.996',1.24
'0:16.000',1.51
'0:16.004',1.82
'0:16.008',2.19
'0:16.012',2.29
'0:16.016',2.29
'0:16.020',2.37
'0:16.023',2.63
'0:16.027',2.87
'0:16.031',2.76
'0:16.035',2.54
'0:16.039',2.16
'0:16.043',1.74
'0:16.047',1.56
'0:16.051',1.5
'0:16.055',1.28
'0:16.059',0.94
'0:16.063',0.73
'0:16.066',0.52
'0:16.070',0.25
'0:16.074',0.08
'0:16.078',-0.02
'0:16.082',-0.16
'0:16.086',-0.43
'0:16.090',-0.72
'0:16.094',-0.91
'0:16.098',-0.99
'0:16.102',-0.97
'0:16.105',-0.92
'0:16.109',-0.94
'0:16.113',-1.04
'0:16.117',-1.07
'0:16.121',-0.92
'0:16.125',-0.71
'0:16.129',-0.66
'0:16.133',-0.73
'0:16.137',-0.75
'0:16.141',-0.64
'0:16.145',-0.49
'0:16.148',-0.34
'0:16.152',-0.14
'0:16.156',0.03
'0:16.160',0.27
'0:16.164',0.49
'0:16.168',0.36
'0:16.172',-0.09
'0:16.176',-0.33
'0:16.180',-0.33
'0:16.184',-0.52
'0:16.188',-0.75
'0:16.191',-1.02
'0:16.195',-1.55
'0:16.199',-1.91
'0:16.203',-2
'0:16.207',-2.11
'0:16.211',-2.24
'0:16.215',-2.12
'0:16.219',-1.83
'0:16.223',-1.65
'0:16.227',-1.54
'0:16.230',-1.65
'0:16.234',-2.13
'0:16.238',-2.63
'0:16.242',-2.9
'0:16.246',-2.9
'0:16.250',-1.78
'0:16.254',0.81
'0:16.258',4.07
'0:16.262',7.93
'0:16.266',11.98
'0:16.270',14.74
'0:16.273',14.18
'0:16.277',11.65
'0:16.281',8.07
'0:16.285',3.73
'0:16.289',-0.68
'0:16.293',-4.41
'0:16.297',-7.1
'0:16.301',-8.46
'0:16.305',-8.53
'0:16.309',-7.83
'0:16.313',-6.74
'0:16.316',-5.57
'0:16.320',-4.59
'0:16.324',-3.9
'0:16.328',-3.51
'0:16.332',-3.19
'0:16.336',-2.87
'0:16.340',-2.58
'0:16.344',-2.22
'0:16.348',-1.97
'0:16.352',-2.04
'0:16.355',-1.82
'0:16.359',-1.66
'0:16.363',-1.56
'0:16.367',-1.37
'0:16.371',-1.07
'0:16.375',-1.01
'0:16.379',-1.07
'0:16.383',-1.09
'0:16.387',-0.79
'0:16.391',-0.56
'0:16.395',-0.15
'0:16.398',0.34
'0:16.402',0.8
'0:16.406',0.95
'0:16.410',1.07
'0:16.414',1.31
'0:16.418',1.42
'0:16.422',1.51
'0:16.426',1.49
'0:16.430',1.37
'0:16.434',1.63
'0:16.438',1.75
'0:16.441',1.82
'0:16.445',1.84
'0:16.449',2.36
'0:16.453',2.37
'0:16.457',2.15
'0:16.461',1.9
'0:16.465',1.56
'0:16.469',1.32
'0:16.473',1.31
'0:16.477',1.2
'0:16.480',0.87
'0:16.484',0.11
'0:16.488',-0.43
'0:16.492',-0.58
'0:16.496',-0.65
'0:16.500',-0.82
'0:16.504',-0.71
'0:16.508',-0.5
'0:16.512',-0.66
'0:16.516',-0.83
'0:16.520',-0.9
'0:16.523',-0.83
'0:16.527',-0.66
'0:16.531',-0.65
'0:16.535',-0.58
'0:16.539',-0.54
'0:16.543',-0.39
'0:16.547',-0.19
'0:16.551',-0.07
'0:16.555',-0.12
'0:16.559',-0.07
'0:16.563',0.19
'0:16.566',0.43
'0:16.570',0.49
'0:16.574',0.45
'0:16.578',0.42
'0:16.582',0.29
'0:16.586',0.22
'0:16.590',0.31
'0:16.594',-0.02
'0:16.598',-0.5
'0:16.602',-1.02
'0:16.605',-1.52
'0:16.609',-1.8
'0:16.613',-1.94
'0:16.617',-1.9
'0:16.621',-1.97
'0:16.625',-2.09
'0:16.629',-2.04
'0:16.633',-1.8
'0:16.637',-1.63
'0:16.641',-1.61
'0:16.645',-2.01
'0:16.648',-2.5
'0:16.652',-2.63
'0:16.656',-2.41
'0:16.660',-1.56
'0:16.664',0.31
'0:16.668',3.02
'0:16.672',6.48
'0:16.676',9.99
'0:16.680',13.13
'0:16.684',14.06
'0:16.688',12.6
'0:16.691',9.77
'0:16.695',5.99
'0:16.699',1.8
'0:16.703',-2.19
'0:16.707',-5.05
'0:16.711',-6.63
'0:16.715',-7.3
'0:16.719',-7
'0:16.723',-6.27
'0:16.727',-5.2
'0:16.730',-4.29
'0:16.734',-3.66
'0:16.738',-3.32
'0:16.742',-3.19
'0:16.746',-3.12
'0:16.750',-3.04
'0:16.754',-2.83
'0:16.758',-2.35
'0:16.762',-1.83
'0:16.766',-1.61
'0:16.770',-1.6
'0:16.773',-1.49
'0:16.777',-1.38
'0:16.781',-1.19
'0:16.785',-0.95
'0:16.789',-0.75
'0:16.793',-0.52
'0:16.797',-0.33
'0:16.801',-0.09
'0:16.805',0.18
'0:16.809',0.42
'0:16.813',0.66
'0:16.816',0.85
'0:16.820',0.9
'0:16.824',1.15
'0:16.828',1.51
'0:16.832',1.78
'0:16.836',1.88
'0:16.840',2.04
'0:16.844',2.17
'0:16.848',2.32
'0:16.852',2.44
'0:16.855',2.36
'0:16.859',2.24
'0:16.863',2.27
'0:16.867',2.2
'0:16.871',1.91
'0:16.875',1.6
'0:16.879',1.25
'0:16.883',1.1
'0:16.887',0.93
'0:16.891',0.59
'0:16.895',0.37
'0:16.898',0.11
'0:16.902',-0.07
'0:16.906',-0.12
'0:16.910',-0.19
'0:16.914',-0.24
'0:16.918',-0.22
'0:16.922',-0.36
'0:16.926',-0.38
'0:16.930',-0.29
'0:16.934',-0.32
'0:16.938',-0.36
'0:16.941',-0.19
'0:16.945',-0.09
'0:16.949',0.02
'0:16.953',0.1
'0:16.957',0.18
'0:16.961',0.44
'0:16.965',0.94
'0:16.969',1.03
'0:16.973',0.74
'0:16.977',0.73
'0:16.980',1
'0:16.984',1.03
'0:16.988',0.76
'0:16.992',0.65
'0:16.996',0.47
'0:17.000',0.47
'0:17.004',0.35
'0:17.008',-0.18
'0:17.012',-0.72
'0:17.016',-0.99
'0:17.020',-1.06
'0:17.023',-1.31
'0:17.027',-1.36
'0:17.031',-1.29
'0:17.035',-1.38
'0:17.039',-1.46
'0:17.043',-1.22
'0:17.047',-1.18
'0:17.051',-1.43
'0:17.055',-1.98
'0:17.059',-2.62
'0:17.063',-2.75
'0:17.066',-2.03
'0:17.070',-0.29
'0:17.074',2.38
'0:17.078',5.95
'0:17.082',10.08
'0:17.086',13.53
'0:17.090',15.02
'0:17.094',14.09
'0:17.098',11.52
'0:17.102',7.87
'0:17.105',3.72
'0:17.109',-0.56
'0:17.113',-4.1
'0:17.117',-6.45
'0:17.121',-7.49
'0:17.125',-7.34
'0:17.129',-6.46
'0:17.133',-5.3
'0:17.137',-4.63
'0:17.141',-4.26
'0:17.145',-4.05
'0:17.148',-3.66
'0:17.152',-3.37
'0:17.156',-3.09
'0:17.160',-2.75
'0:17.164',-2.41
'0:17.168',-2.29
'0:17.172',-2.14
'0:17.176',-1.88
'0:17.180',-1.51
'0:17.184',-1.14
'0:17.188',-0.85
'0:17.191',-0.63
'0:17.195',-0.28
'0:17.199',0.24
'0:17.203',0.83
'0:17.207',0.22
'0:17.211',-0.46
'0:17.215',-0.13
'0:17.219',0.45
'0:17.223',0.93
'0:17.227',1.29
'0:17.230',1.42
'0:17.234',1.63
'0:17.238',1.98
'0:17.242',2.27
'0:17.246',2.49
'0:17.250',2.76
'0:17.254',2.88
'0:17.258',2.96
'0:17.262',3.05
'0:17.266',2.95
'0:17.270',2.76
'0:17.273',2.5
'0:17.277',2.19
'0:17.281',1.84
'0:17.285',1.54
'0:17.289',1.34
'0:17.293',1.37
'0:17.297',1.44
'0:17.301',1.34
'0:17.305',0.86
'0:17.309',0.35
'0:17.313',0.1
'0:17.316',-0.04
'0:17.320',-0.06
'0:17.324',-0.16
'0:17.328',-0.33
'0:17.332',-0.43
'0:17.336',-0.38
'0:17.340',-0.37
'0:17.344',-0.48
'0:17.348',-0.58
'0:17.352',-0.49
'0:17.355',-0.36
'0:17.359',-0.29
'0:17.363',-0.26
'0:17.367',-0.22
'0:17.371',0
'0:17.375',0.1
'0:17.379',0.1
'0:17.383',0.11
'0:17.387',0.22
'0:17.391',0.4
'0:17.395',0.51
'0:17.398',0.55
'0:17.402',0.59
'0:17.406',0.61
'0:17.410',0.61
'0:17.414',0.63
'0:17.418',0.61
'0:17.422',0.53
'0:17.426',0.52
'0:17.430',0.49
'0:17.434',0.38
'0:17.438',0.11
'0:17.441',-0.23
'0:17.445',-0.6
'0:17.449',-0.79
'0:17.453',-0.87
'0:17.457',-1.01
'0:17.461',-1.19
'0:17.465',-1.22
'0:17.469',-1.26
'0:17.473',-1.26
'0:17.477',-1.09
'0:17.480',-1.04
'0:17.484',-1.01
'0:17.488',-1.02
'0:17.492',-1.46
'0:17.496',-2.13
'0:17.500',-2.55
'0:17.504',-2.16
'0:17.508',-0.43
'0:17.512',2.52
'0:17.516',6.28
'0:17.520',10.63
'0:17.523',14.47
'0:17.527',16.14
'0:17.531',14.98
'0:17.535',11.98
'0:17.539',7.83
'0:17.543',3.13
'0:17.547',-1.45
'0:17.551',-5.05
'0:17.555',-7.21
'0:17.559',-7.84
'0:17.563',-7.22
'0:17.566',-6.15
'0:17.570',-5.16
'0:17.574',-4.37
'0:17.578',-3.83
'0:17.582',-3.44
'0:17.586',-3.06
'0:17.590',-2.78
'0:17.594',-2.65
'0:17.598',-2.56
'0:17.602',-2.31
'0:17.605',-1.99
'0:17.609',-1.82
'0:17.613',-1.68
'0:17.617',-1.44
'0:17.621',-1.27
'0:17.625',-1.12
'0:17.629',-0.85
'0:17.633',-0.55
'0:17.637',-0.36
'0:17.641',-0.2
'0:17.645',-0.02
'0:17.648',0.15
'0:17.652',0.29
'0:17.656',0.39
'0:17.660',0.63
'0:17.664',1
'0:17.668',1.41
'0:17.672',1.73
'0:17.676',1.98
'0:17.680',2.19
'0:17.684',2.41
'0:17.688',2.59
'0:17.691',2.63
'0:17.695',2.54
'0:17.699',2.51
'0:17.703',2.59
'0:17.707',2.54
'0:17.711',2.37
'0:17.715',2.05
'0:17.719',1.68
'0:17.723',1.41
'0:17.727',1.11
'0:17.730',0.83
'0:17.734',0.6
'0:17.738',0.32
'0:17.742',0.03
'0:17.746',-0.22
'0:17.750',-0.51
'0:17.754',-0.75
'0:17.758',-0.84
'0:17.762',-1.01
'0:17.766',-1.05
'0:17.770',-1
'0:17.773',-1.03
'0:17.777',-1.07
'0:17.781',-0.88
'0:17.785',-0.68
'0:17.789',-0.67
'0:17.793',-0.75
'0:17.797',-0.65
'0:17.801',-0.46
'0:17.805',-0.09
'0:17.809',0.07
'0:17.813',-0.02
'0:17.816',-0.19
'0:17.820',-0.18
'0:17.824',-0.17
'0:17.828',-0.29
'0:17.832',-0.4
'0:17.836',-0.41
'0:17.840',-0.37
'0:17.844',-0.34
'0:17.848',-0.45
'0:17.852',-0.77
'0:17.855',-0.9
'0:17.859',-1
'0:17.863',-1.25
'0:17.867',-1.55
'0:17.871',-1.8
'0:17.875',-2.02
'0:17.879',-2.09
'0:17.883',-2.12
'0:17.887',-2.19
'0:17.891',-2.17
'0:17.895',-2.14
'0:17.898',-2.15
'0:17.902',-2.05
'0:17.906',-1.99
'0:17.910',-2.31
'0:17.914',-3.06
'0:17.918',-3.83
'0:17.922',-4.01
'0:17.926',-2.89
'0:17.930',-0.52
'0:17.934',2.65
'0:17.938',6.85
'0:17.941',11.18
'0:17.945',14.32
'0:17.949',15.03
'0:17.953',13.1
'0:17.957',9.55
'0:17.961',5.02
'0:17.965',0.21
'0:17.969',-4.53
'0:17.973',-7.83
'0:17.977',-9.14
'0:17.980',-8.85
'0:17.984',-7.79
'0:17.988',-6.54
'0:17.992',-5.44
'0:17.996',-4.56
'0:18.000',-4.1
'0:18.004',-3.82
'0:18.008',-3.52
'0:18.012',-3.26
'0:18.016',-2.95
'0:18.020',-2.67
'0:18.023',-2.68
'0:18.027',-2.63
'0:18.031',-2.32
'0:18.035',-1.83
'0:18.039',-1.44
'0:18.043',-1.26
'0:18.047',-1.07
'0:18.051',-0.85
'0:18.055',-0.7
'0:18.059',-0.49
'0:18.063',-0.31
'0:18.066',-0.29
'0:18.070',-0.28
'0:18.074',-0.07
'0:18.078',0.25
'0:18.082',0.49
'0:18.086',0.64
'0:18.090',0.87
'0:18.094',1.21
'0:18.098',1.68
'0:18.102',2.08
'0:18.105',2.22
'0:18.109',2.22
'0:18.113',2.21
'0:18.117',2.24
'0:18.121',2.3
'0:18.125',2.36
'0:18.129',2.34
'0:18.133',2.25
'0:18.137',1.98
'0:18.141',1.47
'0:18.145',1.05
'0:18.148',0.74
'0:18.152',0.44
'0:18.156',0.29
'0:18.160',0.11
'0:18.164',-0.2
'0:18.168',-0.48
'0:18.172',-0.62
'0:18.176',-0.77
'0:18.180',-1.04
'0:18.184',-1.31
'0:18.188',-1.51
'0:18.191',-1.53
'0:18.195',-1.46
'0:18.199',-1.28
'0:18.203',-1.14
'0:18.207',-1
'0:18.211',-0.88
'0:18.215',-0.63
'0:18.219',-0.43
'0:18.223',-0.27
'0:18.227',-0.09
'0:18.230',-0.02
'0:18.234',-0.13
'0:18.238',-0.29
'0:18.242',-0.36
'0:18.246',-0.19
'0:18.250',0.14
'0:18.254',0.16
'0:18.258',-0.11
'0:18.262',-0.48
'0:18.266',-0.82
'0:18.270',-0.92
'0:18.273',-0.93
'0:18.277',-0.98
'0:18.281',-1.15
'0:18.285',-1.52
'0:18.289',-1.84
'0:18.293',-1.96
'0:18.297',-1.99
'0:18.301',-1.99
'0:18.305',-2.02
'0:18.309',-2.01
'0:18.313',-1.94
'0:18.316',-1.87
'0:18.320',-1.82
'0:18.324',-1.83
'0:18.328',-2.06
'0:18.332',-2.67
'0:18.336',-3.37
'0:18.340',-3.75
'0:18.344',-3.15
'0:18.348',-1.17
'0:18.352',1.87
'0:18.355',5.78
'0:18.359',10.07
'0:18.363',13.53
'0:18.367',14.49
'0:18.371',13.04
'0:18.375',10.01
'0:18.379',5.73
'0:18.383',0.93
'0:18.387',-3.5
'0:18.391',-6.72
'0:18.395',-8.51
'0:18.398',-8.72
'0:18.402',-7.8
'0:18.406',-6.59
'0:18.410',-5.46
'0:18.414',-4.64
'0:18.418',-4
'0:18.422',-3.54
'0:18.426',-3.22
'0:18.430',-2.9
'0:18.434',-2.56
'0:18.438',-2.2
'0:18.441',-1.91
'0:18.445',-1.68
'0:18.449',-1.53
'0:18.453',-1.39
'0:18.457',-1.24
'0:18.461',-1.09
'0:18.465',-0.87
'0:18.469',-0.68
'0:18.473',-0.46
'0:18.477',-0.27
'0:18.480',-0.12
'0:18.484',0.14
'0:18.488',0.39
'0:18.492',0.58
'0:18.496',0.73
'0:18.500',0.9
'0:18.504',1.17
'0:18.508',1.58
'0:18.512',1.9
'0:18.516',2.15
'0:18.520',2.27
'0:18.523',2.44
'0:18.527',2.63
'0:18.531',2.71
'0:18.535',2.79
'0:18.539',2.91
'0:18.543',2.93
'0:18.547',2.88
'0:18.551',2.74
'0:18.555',2.51
'0:18.559',2.13
'0:18.563',1.81
'0:18.566',1.56
'0:18.570',1.22
'0:18.574',0.98
'0:18.578',0.67
'0:18.582',0.4
'0:18.586',0.42
'0:18.590',0.35
'0:18.594',0.11
'0:18.598',-0.06
'0:18.602',-0.02
'0:18.605',-0.14
'0:18.609',-0.24
'0:18.613',-0.28
'0:18.617',-0.33
'0:18.621',-0.14
'0:18.625',0.18
'0:18.629',0.28
'0:18.633',0.43
'0:18.637',0.66
'0:18.641',0.85
'0:18.645',0.93
'0:18.648',0.86
'0:18.652',0.66
'0:18.656',0.41
'0:18.660',0.49
'0:18.664',0.49
'0:18.668',0.18
'0:18.672',-0.28
'0:18.676',-0.72
'0:18.680',-1.14
'0:18.684',-1.43
'0:18.688',-1.51
'0:18.691',-1.56
'0:18.695',-1.7
'0:18.699',-1.72
'0:18.703',-1.65
'0:18.707',-1.53
'0:18.711',-1.7
'0:18.715',-2.45
'0:18.719',-3.66
'0:18.723',-4.74
'0:18.727',-5.2
'0:18.730',-4.22
'0:18.734',-1.7
'0:18.738',1.7
'0:18.742',6.2
'0:18.746',10.7
'0:18.750',13.37
'0:18.754',13.14
'0:18.758',11.23
'0:18.762',8.34
'0:18.766',4.4
'0:18.770',0.03
'0:18.773',-3.73
'0:18.777',-6.23
'0:18.781',-7.47
'0:18.785',-7.33
'0:18.789',-6.53
'0:18.793',-5.61
'0:18.797',-4.59
'0:18.801',-3.39
'0:18.805',-2.72
'0:18.809',-2.5
'0:18.813',-2.19
'0:18.816',-2.09
'0:18.820',-2.12
'0:18.824',-2.14
'0:18.828',-1.97
'0:18.832',-1.73
'0:18.836',-1.41
'0:18.840',-1.02
'0:18.844',-0.71
'0:18.848',-0.48
'0:18.852',-0.46
'0:18.855',-0.34
'0:18.859',-0.13
'0:18.863',0.17
'0:18.867',0.36
'0:18.871',0.42
'0:18.875',0.63
'0:18.879',0.95
'0:18.883',1.26
'0:18.887',1.51
'0:18.891',1.77
'0:18.895',2.1
'0:18.898',2.37
'0:18.902',2.58
'0:18.906',2.85
'0:18.910',2.86
'0:18.914',2.76
'0:18.918',2.75
'0:18.922',2.71
'0:18.926',2.66
'0:18.930',2.58
'0:18.934',2.46
'0:18.938',2.35
'0:18.941',2.27
'0:18.945',2.08
'0:18.949',1.74
'0:18.953',1.34
'0:18.957',0.86
'0:18.961',0.59
'0:18.965',0.46
'0:18.969',0.3
'0:18.973',0.06
'0:18.977',-0.28
'0:18.980',-0.65
'0:18.984',-0.89
'0:18.988',-1.14
'0:18.992',-1.19
'0:18.996',-1.16
'0:19.000',-1.12
'0:19.004',-1.06
'0:19.008',-1.06
'0:19.012',-1.09
'0:19.016',-1.07
'0:19.020',-0.94
'0:19.023',-0.82
'0:19.027',-0.72
'0:19.031',-0.41
'0:19.035',-0.05
'0:19.039',0.23
'0:19.043',0.23
'0:19.047',0.17
'0:19.051',0.32
'0:19.055',0.44
'0:19.059',0.42
'0:19.063',0.33
'0:19.066',0.2
'0:19.070',-0.02
'0:19.074',-0.29
'0:19.078',-0.51
'0:19.082',-0.8
'0:19.086',-1.11
'0:19.090',-1.23
'0:19.094',-1.41
'0:19.098',-1.64
'0:19.102',-1.89
'0:19.105',-1.99
'0:19.109',-1.95
'0:19.113',-1.97
'0:19.117',-1.9
'0:19.121',-1.7
'0:19.125',-1.74
'0:19.129',-2.28
'0:19.133',-2.92
'0:19.137',-3.27
'0:19.141',-2.63
'0:19.145',-0.65
'0:19.148',2.2
'0:19.152',5.89
'0:19.156',9.91
'0:19.160',13.15
'0:19.164',13.89
'0:19.168',12.35
'0:19.172',9.46
'0:19.176',5.72
'0:19.180',1.7
'0:19.184',-2.39
'0:19.188',-5.64
'0:19.191',-7.58
'0:19.195',-8.28
'0:19.199',-7.75
'0:19.203',-6.63
'0:19.207',-5.39
'0:19.211',-4.32
'0:19.215',-3.71
'0:19.219',-3.37
'0:19.223',-3.02
'0:19.227',-2.83
'0:19.230',-2.73
'0:19.234',-2.56
'0:19.238',-2.29
'0:19.242',-1.89
'0:19.246',-1.4
'0:19.250',-1.02
'0:19.254',-0.9
'0:19.258',-0.9
'0:19.262',-0.89
'0:19.266',-0.79
'0:19.270',-0.46
'0:19.273',-0.17
'0:19.277',0.01
'0:19.281',0.27
'0:19.285',0.43
'0:19.289',0.48
'0:19.293',0.69
'0:19.297',0.96
'0:19.301',1.09
'0:19.305',1.08
'0:19.309',1.06
'0:19.313',1.32
'0:19.316',1.54
'0:19.320',1.53
'0:19.324',1.73
'0:19.328',2.03
'0:19.332',2.3
'0:19.336',2.49
'0:19.340',2.63
'0:19.344',2.6
'0:19.348',2.63
'0:19.352',2.62
'0:19.355',2.24
'0:19.359',1.54
'0:19.363',1.23
'0:19.367',0.79
'0:19.371',0.52
'0:19.375',0.34
'0:19.379',0.18
'0:19.383',0.03
'0:19.387',0.03
'0:19.391',-0.09
'0:19.395',-0.29
'0:19.398',-0.48
'0:19.402',-0.46
'0:19.406',-0.49
'0:19.410',-0.66
'0:19.414',-0.63
'0:19.418',-0.41
'0:19.422',-0.22
'0:19.426',-0.24
'0:19.430',-0.31
'0:19.434',-0.33
'0:19.438',-0.2
'0:19.441',0.1
'0:19.445',0.3
'0:19.449',0.49
'0:19.453',0.64
'0:19.457',0.53
'0:19.461',0.31
'0:19.465',0.63
'0:19.469',0.56
'0:19.473',0.13
'0:19.477',-0.07
'0:19.480',-0.13
'0:19.484',-0.4
'0:19.488',-0.86
'0:19.492',-1.37
'0:19.496',-1.7
'0:19.500',-1.96
'0:19.504',-2.21
'0:19.508',-2.26
'0:19.512',-2.06
'0:19.516',-1.92
'0:19.520',-1.95
'0:19.523',-2
'0:19.527',-1.7
