'0:00.000',2.98
'0:00.004',6.27
'0:00.008',8.52
'0:00.012',8.15
'0:00.016',5.33
'0:00.020',1.11
'0:00.023',-2.67
'0:00.027',-4.92
'0:00.031',-5.84
'0:00.035',-5.61
'0:00.039',-4.64
'0:00.043',-3.61
'0:00.047',-2.8
'0:00.051',-2.41
'0:00.055',-2.11
'0:00.059',-2
'0:00.063',-2.02
'0:00.066',-1.89
'0:00.070',-1.43
'0:00.074',-1.02
'0:00.078',-0.72
'0:00.082',-0.57
'0:00.086',-0.44
'0:00.090',-0.46
'0:00.094',-0.33
'0:00.098',-0.13
'0:00.102',0.13
'0:00.105',0.52
'0:00.109',0.92
'0:00.113',1.34
'0:00.117',1.68
'0:00.121',2.07
'0:00.125',2.51
'0:00.129',2.84
'0:00.133',3.08
'0:00.137',3.31
'0:00.141',3.15
'0:00.145',2.79
'0:00.148',2.62
'0:00.152',2.45
'0:00.156',2.15
'0:00.160',1.84
'0:00.164',1.39
'0:00.168',1.05
'0:00.172',0.7
'0:00.176',0.37
'0:00.180',0.08
'0:00.184',-0.2
'0:00.188',-0.36
'0:00.191',-0.23
'0:00.195',-0.01
'0:00.199',0.19
'0:00.203',0.36
'0:00.207',0.6
'0:00.211',0.69
'0:00.215',0.6
'0:00.219',0.56
'0:00.223',0.6
'0:00.227',0.61
'0:00.230',0.52
'0:00.234',0.36
'0:00.238',0.14
'0:00.242',-0.14
'0:00.246',-0.46
'0:00.250',-0.82
'0:00.254',-1.21
'0:00.258',-1.64
'0:00.262',-2.08
'0:00.266',-2.32
'0:00.270',-2.52
'0:00.273',-2.66
'0:00.277',-2.86
'0:00.281',-3.05
'0:00.285',-3.17
'0:00.289',-3.21
'0:00.293',-3.16
'0:00.297',-3.09
'0:00.301',-3.11
'0:00.305',-3.18
'0:00.309',-3.27
'0:00.313',-3.37
'0:00.316',-3.65
'0:00.320',-4.01
'0:00.324',-4.16
'0:00.328',-3.81
'0:00.332',-2.63
'0:00.336',-0.06
'0:00.340',3.34
'0:00.344',6.28
'0:00.348',7.37
'0:00.352',5.85
'0:00.355',2.46
'0:00.359',-1.58
'0:00.363',-4.92
'0:00.367',-6.8
'0:00.371',-7.35
'0:00.375',-7
'0:00.379',-6.17
'0:00.383',-5.24
'0:00.387',-4.38
'0:00.391',-3.79
'0:00.395',-3.31
'0:00.398',-3
'0:00.402',-2.69
'0:00.406',-2.34
'0:00.410',-1.96
'0:00.414',-1.82
'0:00.418',-1.66
'0:00.422',-1.29
'0:00.426',-0.96
'0:00.430',-0.75
'0:00.434',-0.57
'0:00.438',-0.33
'0:00.441',-0.07
'0:00.445',0.38
'0:00.449',0.85
'0:00.453',1.11
'0:00.457',1.09
'0:00.461',1.18
'0:00.465',1.56
'0:00.469',1.89
'0:00.473',2.11
'0:00.477',2.24
'0:00.480',2.25
'0:00.484',2.14
'0:00.488',2.04
'0:00.492',2.13
'0:00.496',2.03
'0:00.500',1.71
'0:00.504',1.24
'0:00.508',0.65
'0:00.512',0.39
'0:00.516',0.3
'0:00.520',0.16
'0:00.523',0.1
'0:00.527',0.16
'0:00.531',0.33
'0:00.535',0.73
'0:00.539',0.85
'0:00.543',0.83
'0:00.547',0.79
'0:00.551',0.82
'0:00.555',1.02
'0:00.559',1.34
'0:00.563',1.61
'0:00.566',1.8
'0:00.570',1.83
'0:00.574',1.67
'0:00.578',1.35
'0:00.582',1.14
'0:00.586',0.91
'0:00.590',0.47
'0:00.594',-0.1
'0:00.598',-0.48
'0:00.602',-0.57
'0:00.605',-0.65
'0:00.609',-0.69
'0:00.613',-0.94
'0:00.617',-1.32
'0:00.621',-1.8
'0:00.625',-1.88
'0:00.629',-1.65
'0:00.633',-1.51
'0:00.637',-1.71
'0:00.641',-1.43
'0:00.645',-1.1
'0:00.648',-1.26
'0:00.652',-1.83
'0:00.656',-2.43
'0:00.660',-2.88
'0:00.664',-3.33
'0:00.668',-3.41
'0:00.672',-2.46
'0:00.676',0.1
'0:00.680',3.48
'0:00.684',6.92
'0:00.688',9.02
'0:00.691',8.19
'0:00.695',5.3
'0:00.699',1.74
'0:00.703',-1.43
'0:00.707',-3.56
'0:00.711',-4.53
'0:00.715',-4.42
'0:00.719',-3.73
'0:00.723',-3
'0:00.727',-2.17
'0:00.730',-1.31
'0:00.734',-0.78
'0:00.738',-0.26
'0:00.742',0.16
'0:00.746',0.18
'0:00.750',0.41
'0:00.754',0.72
'0:00.758',0.47
'0:00.762',0.29
'0:00.766',0.56
'0:00.770',0.98
'0:00.773',1.41
'0:00.777',1.62
'0:00.781',1.84
'0:00.785',1.93
'0:00.789',1.72
'0:00.793',1.61
'0:00.797',2.04
'0:00.801',2.58
'0:00.805',2.94
'0:00.809',2.98
'0:00.813',2.96
'0:00.816',3.07
'0:00.820',3.13
'0:00.824',3.05
'0:00.828',2.92
'0:00.832',2.73
'0:00.836',2.61
'0:00.840',2.28
'0:00.844',2
'0:00.848',1.76
'0:00.852',1.34
'0:00.855',0.81
'0:00.859',0.41
'0:00.863',0.05
'0:00.867',0.06
'0:00.871',0.33
'0:00.875',0.4
'0:00.879',0.44
'0:00.883',0.58
'0:00.887',0.79
'0:00.891',0.99
'0:00.895',1.27
'0:00.898',1.63
'0:00.902',1.64
'0:00.906',1.48
'0:00.910',1.49
'0:00.914',1.46
'0:00.918',1.34
'0:00.922',1.16
'0:00.926',0.79
'0:00.930',0.4
'0:00.934',0.14
'0:00.938',-0.09
'0:00.941',-0.43
'0:00.945',-0.79
'0:00.949',-1.31
'0:00.953',-1.75
'0:00.957',-2.01
'0:00.961',-2.04
'0:00.965',-2.07
'0:00.969',-2.02
'0:00.973',-2.01
'0:00.977',-2.04
'0:00.980',-2.13
'0:00.984',-2.26
'0:00.988',-2.31
'0:00.992',-2.4
'0:00.996',-2.84
'0:01.000',-3.56
'0:01.004',-3.94
'0:01.008',-3.81
'0:01.012',-2.75
'0:01.016',-0.25
'0:01.020',3.15
'0:01.023',6.52
'0:01.027',8.36
'0:01.031',7.59
'0:01.035',4.73
'0:01.039',0.99
'0:01.043',-2.21
'0:01.047',-4.2
'0:01.051',-5.19
'0:01.055',-5.21
'0:01.059',-4.63
'0:01.063',-3.88
'0:01.066',-3.13
'0:01.070',-2.45
'0:01.074',-1.79
'0:01.078',-1.25
'0:01.082',-0.86
'0:01.086',-0.59
'0:01.090',-0.38
'0:01.094',-0.3
'0:01.098',-0.26
'0:01.102',-0.13
'0:01.105',0.11
'0:01.109',0.37
'0:01.113',0.58
'0:01.117',0.79
'0:01.121',0.91
'0:01.125',1.06
'0:01.129',1.18
'0:01.133',1.29
'0:01.137',1.52
'0:01.141',1.92
'0:01.145',2.25
'0:01.148',2.53
'0:01.152',2.74
'0:01.156',2.9
'0:01.160',2.82
'0:01.164',2.63
'0:01.168',2.41
'0:01.172',2.15
'0:01.176',1.88
'0:01.180',1.55
'0:01.184',1.22
'0:01.188',0.83
'0:01.191',0.54
'0:01.195',0.24
'0:01.199',0.04
'0:01.203',0
'0:01.207',0.11
'0:01.211',0.13
'0:01.215',0.14
'0:01.219',0.22
'0:01.223',0.13
'0:01.227',0.23
'0:01.230',0.47
'0:01.234',0.74
'0:01.238',1.04
'0:01.242',1.35
'0:01.246',1.45
'0:01.250',1.41
'0:01.254',1.13
'0:01.258',0.75
'0:01.262',0.53
'0:01.266',0.34
'0:01.270',0.16
'0:01.273',-0.11
'0:01.277',-0.64
'0:01.281',-1.32
'0:01.285',-1.96
'0:01.289',-2.37
'0:01.293',-2.67
'0:01.297',-2.77
'0:01.301',-2.74
'0:01.305',-2.56
'0:01.309',-2.37
'0:01.313',-2.36
'0:01.316',-2.33
'0:01.320',-2.28
'0:01.324',-2.37
'0:01.328',-2.65
'0:01.332',-3.04
'0:01.336',-3.59
'0:01.340',-4.21
'0:01.344',-4.46
'0:01.348',-3.94
'0:01.352',-2.32
'0:01.355',0.62
'0:01.359',4.18
'0:01.363',7.19
'0:01.367',7.88
'0:01.371',6
'0:01.375',2.72
'0:01.379',-0.67
'0:01.383',-3.18
'0:01.387',-4.46
'0:01.391',-4.64
'0:01.395',-4.23
'0:01.398',-3.67
'0:01.402',-2.95
'0:01.406',-2.28
'0:01.410',-1.87
'0:01.414',-1.66
'0:01.418',-1.43
'0:01.422',-1.04
'0:01.426',-0.74
'0:01.430',-0.62
'0:01.434',-0.42
'0:01.438',-0.27
'0:01.441',0.13
'0:01.445',0.45
'0:01.449',0.55
'0:01.453',0.62
'0:01.457',1.01
'0:01.461',1.44
'0:01.465',1.68
'0:01.469',1.71
'0:01.473',1.84
'0:01.477',2.11
'0:01.480',2.38
'0:01.484',2.71
'0:01.488',3.21
'0:01.492',3.57
'0:01.496',3.57
'0:01.500',3.35
'0:01.504',3
'0:01.508',2.62
'0:01.512',2.4
'0:01.516',2.34
'0:01.520',2.19
'0:01.523',1.94
'0:01.527',1.74
'0:01.531',1.56
'0:01.535',1.22
'0:01.539',0.98
'0:01.543',0.87
'0:01.547',0.59
'0:01.551',0.33
'0:01.555',0.32
'0:01.559',0.5
'0:01.563',0.45
'0:01.566',0.3
'0:01.570',0.47
'0:01.574',0.71
'0:01.578',0.8
'0:01.582',1.2
'0:01.586',1.32
'0:01.590',1.42
'0:01.594',1.43
'0:01.598',1.3
'0:01.602',0.77
'0:01.605',0.21
'0:01.609',-0.2
'0:01.613',-0.39
'0:01.617',-0.79
'0:01.621',-1.33
'0:01.625',-1.79
'0:01.629',-1.97
'0:01.633',-2.04
'0:01.637',-1.96
'0:01.641',-1.67
'0:01.645',-1.65
'0:01.648',-1.79
'0:01.652',-2.05
'0:01.656',-2.5
'0:01.660',-2.83
'0:01.664',-2.9
'0:01.668',-2.9
'0:01.672',-2.93
'0:01.676',-3.06
'0:01.680',-3.29
'0:01.684',-3.46
'0:01.688',-3.28
'0:01.691',-2.33
'0:01.695',-0.14
'0:01.699',3.37
'0:01.703',6.76
'0:01.707',8.99
'0:01.711',8.65
'0:01.715',5.43
'0:01.719',0.83
'0:01.723',-3.23
'0:01.727',-5.67
'0:01.730',-6.58
'0:01.734',-6.41
'0:01.738',-5.61
'0:01.742',-4.64
'0:01.746',-3.86
'0:01.750',-3.3
'0:01.754',-2.87
'0:01.758',-2.52
'0:01.762',-2.23
'0:01.766',-1.97
'0:01.770',-1.63
'0:01.773',-1.35
'0:01.777',-1.24
'0:01.781',-1.26
'0:01.785',-1.21
'0:01.789',-1.05
'0:01.793',-0.91
'0:01.797',-0.7
'0:01.801',-0.41
'0:01.805',-0.06
'0:01.809',0.19
'0:01.813',0.36
'0:01.816',0.52
'0:01.820',0.82
'0:01.824',1.11
'0:01.828',1.47
'0:01.832',1.79
'0:01.836',1.94
'0:01.840',1.98
'0:01.844',1.68
'0:01.848',1.29
'0:01.852',1.09
'0:01.855',0.9
'0:01.859',0.51
'0:01.863',0.05
'0:01.867',-0.42
'0:01.871',-0.92
'0:01.875',-1.16
'0:01.879',-1.28
'0:01.883',-1.42
'0:01.887',-1.48
'0:01.891',-1.51
'0:01.895',-1.4
'0:01.898',-1.31
'0:01.902',-1.18
'0:01.906',-1.01
'0:01.910',-0.89
'0:01.914',-0.78
'0:01.918',-0.71
'0:01.922',-0.59
'0:01.926',-0.37
'0:01.930',-0.13
'0:01.934',0.23
'0:01.938',0.34
'0:01.941',0.29
'0:01.945',0.18
'0:01.949',0.07
'0:01.953',-0.19
'0:01.957',-0.58
'0:01.961',-0.96
'0:01.965',-1.34
'0:01.969',-1.84
'0:01.973',-2.26
'0:01.977',-2.54
'0:01.980',-2.63
'0:01.984',-2.76
'0:01.988',-3.07
'0:01.992',-3.28
'0:01.996',-3.31
'0:02.000',-3.14
'0:02.004',-2.79
'0:02.008',-2.58
'0:02.012',-2.74
'0:02.016',-2.67
'0:02.020',-2.5
'0:02.023',-2.86
'0:02.027',-3.61
'0:02.031',-3.97
'0:02.035',-3.55
'0:02.039',-2.38
'0:02.043',-0.21
'0:02.047',3.13
'0:02.051',6.71
'0:02.055',8.8
'0:02.059',8.11
'0:02.063',5.6
'0:02.066',2.18
'0:02.070',-1.01
'0:02.074',-3.13
'0:02.078',-4.38
'0:02.082',-4.82
'0:02.086',-4.38
'0:02.090',-3.49
'0:02.094',-2.55
'0:02.098',-1.86
'0:02.102',-1.38
'0:02.105',-1.03
'0:02.109',-0.47
'0:02.113',0.28
'0:02.117',0.54
'0:02.121',0.6
'0:02.125',0.88
'0:02.129',1.26
'0:02.133',1.48
'0:02.137',1.43
'0:02.141',1.19
'0:02.145',1.26
'0:02.148',1.7
'0:02.152',2.12
'0:02.156',2.4
'0:02.160',2.61
'0:02.164',2.69
'0:02.168',2.7
'0:02.172',3.31
'0:02.176',4.18
'0:02.180',4.43
'0:02.184',4.02
'0:02.188',3.56
'0:02.191',3.29
'0:02.195',3.02
'0:02.199',2.83
'0:02.203',2.94
'0:02.207',2.88
'0:02.211',2.33
'0:02.215',1.76
'0:02.219',1.41
'0:02.223',1.28
'0:02.227',1.12
'0:02.230',0.89
'0:02.234',0.88
'0:02.238',1.07
'0:02.242',1.08
'0:02.246',0.92
'0:02.250',0.71
'0:02.254',0.84
'0:02.258',1.32
'0:02.262',1.63
'0:02.266',1.7
'0:02.270',1.7
'0:02.273',1.96
'0:02.277',2.22
'0:02.281',2.22
'0:02.285',2.11
'0:02.289',1.98
'0:02.293',1.79
'0:02.297',1.54
'0:02.301',1.23
'0:02.305',0.94
'0:02.309',0.5
'0:02.313',0.08
'0:02.316',-0.18
'0:02.320',-0.46
'0:02.324',-0.78
'0:02.328',-1.01
'0:02.332',-1.36
'0:02.336',-1.75
'0:02.340',-2.06
'0:02.344',-2.14
'0:02.348',-2.08
'0:02.352',-1.88
'0:02.355',-1.82
'0:02.359',-1.8
'0:02.363',-1.82
'0:02.367',-2.04
'0:02.371',-2.71
'0:02.375',-3.32
'0:02.379',-3.67
'0:02.383',-3.11
'0:02.387',-0.97
'0:02.391',2.27
'0:02.395',5.56
'0:02.398',7.73
'0:02.402',7.66
'0:02.406',5.47
'0:02.410',1.99
'0:02.414',-1.27
'0:02.418',-3.37
'0:02.422',-4.37
'0:02.426',-4.67
'0:02.430',-4.37
'0:02.434',-3.61
'0:02.438',-2.77
'0:02.441',-2.03
'0:02.445',-1.48
'0:02.449',-1.17
'0:02.453',-0.94
'0:02.457',-0.62
'0:02.461',-0.33
'0:02.465',-0.13
'0:02.469',0
'0:02.473',0.06
'0:02.477',0.05
'0:02.480',0.24
'0:02.484',0.45
'0:02.488',0.65
'0:02.492',0.8
'0:02.496',0.99
'0:02.500',1.41
'0:02.504',1.78
'0:02.508',2.04
'0:02.512',2.12
'0:02.516',2.2
'0:02.520',2.31
'0:02.523',2.44
'0:02.527',2.78
'0:02.531',3.02
'0:02.535',2.96
'0:02.539',2.77
'0:02.543',2.53
'0:02.547',2.22
'0:02.551',2.09
'0:02.555',1.91
'0:02.559',1.68
'0:02.563',1.27
'0:02.566',0.97
'0:02.570',0.69
'0:02.574',0.69
'0:02.578',0.68
'0:02.582',0.68
'0:02.586',0.68
'0:02.590',0.47
'0:02.594',0.82
'0:02.598',1.09
'0:02.602',1.42
'0:02.605',1.53
'0:02.609',1.63
'0:02.613',1.82
'0:02.617',2.02
'0:02.621',2.17
'0:02.625',2.04
'0:02.629',1.87
'0:02.633',1.64
'0:02.637',1.48
'0:02.641',1.1
'0:02.645',0.6
'0:02.648',-0.02
'0:02.652',-0.47
'0:02.656',-0.44
'0:02.660',-0.35
'0:02.664',-0.67
'0:02.668',-1.23
'0:02.672',-1.53
'0:02.676',-1.48
'0:02.680',-1.56
'0:02.684',-1.7
'0:02.688',-1.77
'0:02.691',-1.61
'0:02.695',-1.35
'0:02.699',-1.24
'0:02.703',-1.35
'0:02.707',-1.61
'0:02.711',-2.24
'0:02.715',-3.07
'0:02.719',-3.57
'0:02.723',-3.17
'0:02.727',-1.36
'0:02.730',1.86
'0:02.734',5.31
'0:02.738',8.14
'0:02.742',8.74
'0:02.746',6.81
'0:02.750',3.38
'0:02.754',-0.3
'0:02.758',-2.95
'0:02.762',-4.36
'0:02.766',-4.68
'0:02.770',-4.27
'0:02.773',-3.55
'0:02.777',-2.93
'0:02.781',-2.22
'0:02.785',-1.7
'0:02.789',-1.28
'0:02.793',-1
'0:02.797',-0.95
'0:02.801',-0.83
'0:02.805',-0.68
'0:02.809',-0.46
'0:02.813',-0.13
'0:02.816',-0.07
'0:02.820',-0.2
'0:02.824',-0.22
'0:02.828',-0.01
'0:02.832',0.34
'0:02.836',0.78
'0:02.840',1.09
'0:02.844',1.37
'0:02.848',1.6
'0:02.852',1.68
'0:02.855',1.7
'0:02.859',1.96
'0:02.863',2.2
'0:02.867',2.4
'0:02.871',2.59
'0:02.875',2.65
'0:02.879',2.62
'0:02.883',2.45
'0:02.887',2.19
'0:02.891',1.8
'0:02.895',1.41
'0:02.898',0.92
'0:02.902',0.5
'0:02.906',0.2
'0:02.910',-0.13
'0:02.914',-0.33
'0:02.918',-0.56
'0:02.922',-0.75
'0:02.926',-0.82
'0:02.930',-0.93
'0:02.934',-1.04
'0:02.938',-1
'0:02.941',-0.74
'0:02.945',-0.52
'0:02.949',-0.22
'0:02.953',0
'0:02.957',0.03
'0:02.961',-0.04
'0:02.965',0.05
'0:02.969',0.13
'0:02.973',0.14
'0:02.977',0.06
'0:02.980',-0.03
'0:02.984',-0.24
'0:02.988',-0.61
'0:02.992',-1.02
'0:02.996',-1.37
'0:03.000',-1.67
'0:03.004',-1.93
'0:03.008',-2.27
'0:03.012',-2.61
'0:03.016',-2.84
'0:03.020',-2.99
'0:03.023',-3.06
'0:03.027',-3.16
'0:03.031',-3.24
'0:03.035',-3.31
'0:03.039',-3.33
'0:03.043',-3.29
'0:03.047',-3.21
'0:03.051',-3.19
'0:03.055',-3.28
'0:03.059',-3.5
'0:03.063',-3.72
'0:03.066',-3.75
'0:03.070',-3.26
'0:03.074',-1.87
'0:03.078',0.9
'0:03.082',4.53
'0:03.086',7.54
'0:03.090',8.62
'0:03.094',6.9
'0:03.098',3.12
'0:03.102',-1.21
'0:03.105',-4.61
'0:03.109',-6.48
'0:03.113',-6.96
'0:03.117',-6.45
'0:03.121',-5.43
'0:03.125',-4.5
'0:03.129',-3.89
'0:03.133',-3.54
'0:03.137',-3.21
'0:03.141',-2.7
'0:03.145',-2.23
'0:03.148',-1.93
'0:03.152',-1.76
'0:03.156',-1.61
'0:03.160',-1.44
'0:03.164',-1.32
'0:03.168',-1.18
'0:03.172',-1
'0:03.176',-0.69
'0:03.180',-0.33
'0:03.184',-0.02
'0:03.188',0.26
'0:03.191',0.51
'0:03.195',0.72
'0:03.199',0.85
'0:03.203',1.04
'0:03.207',1.3
'0:03.211',1.58
'0:03.215',1.77
'0:03.219',1.92
'0:03.223',1.95
'0:03.227',1.87
'0:03.230',1.68
'0:03.234',1.31
'0:03.238',0.83
'0:03.242',0.41
'0:03.246',0.02
'0:03.250',-0.25
'0:03.254',-0.51
'0:03.258',-0.83
'0:03.262',-1.07
'0:03.266',-1.34
'0:03.270',-1.69
'0:03.273',-1.75
'0:03.277',-1.47
'0:03.281',-1.22
'0:03.285',-1.16
'0:03.289',-1.07
'0:03.293',-0.84
'0:03.297',-0.61
'0:03.301',-0.46
'0:03.305',-0.43
'0:03.309',-0.31
'0:03.313',-0.26
'0:03.316',-0.1
'0:03.320',0.09
'0:03.324',0.15
'0:03.328',0.01
'0:03.332',-0.23
'0:03.336',-0.5
'0:03.340',-0.65
'0:03.344',-0.91
'0:03.348',-1.3
'0:03.352',-1.77
'0:03.355',-2.29
'0:03.359',-2.69
'0:03.363',-2.89
'0:03.367',-2.99
'0:03.371',-3.15
'0:03.375',-3.17
'0:03.379',-2.91
'0:03.383',-2.77
'0:03.387',-2.82
'0:03.391',-2.6
'0:03.395',-2.16
'0:03.398',-2.15
'0:03.402',-2.66
'0:03.406',-3.07
'0:03.410',-3.54
'0:03.414',-3.89
'0:03.418',-3.42
'0:03.422',-1.94
'0:03.426',0.97
'0:03.430',4.53
'0:03.434',7.4
'0:03.438',8.61
'0:03.441',7.18
'0:03.445',4.03
'0:03.449',0.33
'0:03.453',-2.62
'0:03.457',-4.14
'0:03.461',-4.4
'0:03.465',-4.08
'0:03.469',-3.46
'0:03.473',-2.66
'0:03.477',-2.11
'0:03.480',-1.67
'0:03.484',-0.87
'0:03.488',-0.35
'0:03.492',-0.17
'0:03.496',-0.04
'0:03.500',0.22
'0:03.504',0.16
'0:03.508',0.27
'0:03.512',0.59
'0:03.516',1.27
'0:03.520',1.81
'0:03.523',1.84
'0:03.527',1.68
'0:03.531',1.87
'0:03.535',2.16
'0:03.539',2.26
'0:03.543',2.65
'0:03.547',2.78
'0:03.551',2.85
'0:03.555',3.15
'0:03.559',3.67
'0:03.563',4.04
'0:03.566',4.37
'0:03.570',4.63
'0:03.574',4.43
'0:03.578',3.91
'0:03.582',3.52
'0:03.586',3.36
'0:03.590',3.02
'0:03.594',2.55
'0:03.598',2.47
'0:03.602',2.45
'0:03.605',2.02
'0:03.609',1.32
'0:03.613',0.8
'0:03.617',0.56
'0:03.621',0.78
'0:03.625',0.83
'0:03.629',0.88
'0:03.633',0.7
'0:03.637',0.34
'0:03.641',0.2
'0:03.645',0.36
'0:03.648',0.9
'0:03.652',1.24
'0:03.656',1.25
'0:03.660',1.41
'0:03.664',1.61
'0:03.668',1.77
'0:03.672',1.83
'0:03.676',1.72
'0:03.680',1.43
'0:03.684',0.88
'0:03.688',0.39
'0:03.691',0.06
'0:03.695',-0.37
'0:03.699',-0.68
'0:03.703',-0.91
'0:03.707',-1.21
'0:03.711',-1.5
'0:03.715',-1.82
'0:03.719',-2.13
'0:03.723',-2.34
'0:03.727',-2.32
'0:03.730',-2.24
'0:03.734',-2.08
'0:03.738',-1.81
'0:03.742',-1.68
'0:03.746',-1.81
'0:03.750',-2.1
'0:03.754',-2.66
'0:03.758',-3.31
'0:03.762',-3.64
'0:03.766',-3.38
'0:03.770',-2.07
'0:03.773',0.73
'0:03.777',4.44
'0:03.781',7.95
'0:03.785',9.73
'0:03.789',8.82
'0:03.793',5.7
'0:03.797',1.7
'0:03.801',-1.76
'0:03.805',-3.86
'0:03.809',-4.78
'0:03.813',-4.88
'0:03.816',-4.36
'0:03.820',-3.49
'0:03.824',-2.47
'0:03.828',-1.7
'0:03.832',-1.25
'0:03.836',-1.03
'0:03.840',-0.85
'0:03.844',-0.59
'0:03.848',-0.42
'0:03.852',-0.11
'0:03.855',0.14
'0:03.859',0.24
'0:03.863',0.35
'0:03.867',0.51
'0:03.871',0.69
'0:03.875',0.76
'0:03.879',0.88
'0:03.883',1.09
'0:03.887',1.34
'0:03.891',1.57
'0:03.895',1.82
'0:03.898',2.07
'0:03.902',2.48
'0:03.906',2.87
'0:03.910',3.07
'0:03.914',3.21
'0:03.918',3.13
'0:03.922',2.98
'0:03.926',2.8
'0:03.930',2.55
'0:03.934',2.26
'0:03.938',1.97
'0:03.941',1.63
'0:03.945',1.25
'0:03.949',0.84
'0:03.953',0.48
'0:03.957',0.24
'0:03.961',0.15
'0:03.965',0.1
'0:03.969',0.01
'0:03.973',0.03
'0:03.977',0.07
'0:03.980',0.29
'0:03.984',0.47
'0:03.988',0.54
'0:03.992',0.73
'0:03.996',0.92
'0:04.000',1.09
'0:04.004',1.23
'0:04.008',1.17
'0:04.012',1.15
'0:04.016',1.06
'0:04.020',0.86
'0:04.023',0.55
'0:04.027',0.17
'0:04.031',-0.13
'0:04.035',-0.35
'0:04.039',-0.74
'0:04.043',-1.27
'0:04.047',-1.71
'0:04.051',-2.11
'0:04.055',-2.38
'0:04.059',-2.55
'0:04.063',-2.77
'0:04.066',-2.91
'0:04.070',-2.92
'0:04.074',-2.91
'0:04.078',-2.92
'0:04.082',-2.83
'0:04.086',-2.68
'0:04.090',-2.59
'0:04.094',-2.58
'0:04.098',-3.06
'0:04.102',-3.85
'0:04.105',-4.44
'0:04.109',-4.38
'0:04.113',-3.15
'0:04.117',-0.34
'0:04.121',3.23
'0:04.125',6.58
'0:04.129',8.52
'0:04.133',7.79
'0:04.137',4.91
'0:04.141',1.01
'0:04.145',-2.26
'0:04.148',-4.05
'0:04.152',-4.63
'0:04.156',-4.41
'0:04.160',-3.91
'0:04.164',-3.19
'0:04.168',-2.53
'0:04.172',-1.87
'0:04.176',-1.26
'0:04.180',-0.88
'0:04.184',-0.68
'0:04.188',-0.51
'0:04.191',-0.32
'0:04.195',-0.14
'0:04.199',0.1
'0:04.203',0.28
'0:04.207',0.43
'0:04.211',0.64
'0:04.215',0.74
'0:04.219',0.94
'0:04.223',1.24
'0:04.227',1.58
'0:04.230',1.89
'0:04.234',2.19
'0:04.238',2.28
'0:04.242',2.41
'0:04.246',2.54
'0:04.250',2.79
'0:04.254',3.18
'0:04.258',3.34
'0:04.262',3.27
'0:04.266',3.08
'0:04.270',2.76
'0:04.273',2.68
'0:04.277',2.45
'0:04.281',2.06
'0:04.285',1.6
'0:04.289',1.11
'0:04.293',0.73
'0:04.297',0.54
'0:04.301',0.5
'0:04.305',0.4
'0:04.309',0.37
'0:04.313',0.13
'0:04.316',-0.09
'0:04.320',-0.18
'0:04.324',-0.24
'0:04.328',-0.31
'0:04.332',-0.4
'0:04.336',-0.29
'0:04.340',-0.08
'0:04.344',0.11
'0:04.348',0.15
'0:04.352',0.22
'0:04.355',0.57
'0:04.359',0.97
'0:04.363',0.98
'0:04.367',0.82
'0:04.371',0.45
'0:04.375',0.16
'0:04.379',-0.16
'0:04.383',-0.59
'0:04.387',-1.06
'0:04.391',-1.3
'0:04.395',-1.6
'0:04.398',-2
'0:04.402',-2.4
'0:04.406',-2.53
'0:04.410',-2.44
'0:04.414',-2.48
'0:04.418',-2.38
'0:04.422',-2.71
'0:04.426',-3.13
'0:04.430',-3.14
'0:04.434',-2.83
'0:04.438',-2.52
'0:04.441',-2.36
'0:04.445',-2.64
'0:04.449',-2.92
'0:04.453',-3.2
'0:04.457',-3.11
'0:04.461',-2.25
'0:04.465',-0.07
'0:04.469',3.55
'0:04.473',7.09
'0:04.477',9.39
'0:04.480',9.03
'0:04.484',6.23
'0:04.488',2.02
'0:04.492',-2.04
'0:04.496',-4.88
'0:04.500',-6.17
'0:04.504',-6.15
'0:04.508',-5.37
'0:04.512',-4.34
'0:04.516',-3.21
'0:04.520',-2.5
'0:04.523',-2.2
'0:04.527',-1.95
'0:04.531',-1.63
'0:04.535',-1.44
'0:04.539',-1.36
'0:04.543',-1.33
'0:04.547',-1.24
'0:04.551',-1.16
'0:04.555',-0.94
'0:04.559',-0.76
'0:04.563',-0.61
'0:04.566',-0.37
'0:04.570',-0.1
'0:04.574',0.12
'0:04.578',0.34
'0:04.582',0.61
'0:04.586',0.92
'0:04.590',1.31
'0:04.594',1.68
'0:04.598',1.9
'0:04.602',2.2
'0:04.605',2.3
'0:04.609',2.35
'0:04.613',2.31
'0:04.617',2.2
'0:04.621',1.95
'0:04.625',1.62
'0:04.629',1.16
'0:04.633',0.72
'0:04.637',0.33
'0:04.641',0.02
'0:04.645',-0.28
'0:04.648',-0.58
'0:04.652',-0.72
'0:04.656',-0.96
'0:04.660',-1.16
'0:04.664',-1.19
'0:04.668',-1.07
'0:04.672',-0.9
'0:04.676',-0.78
'0:04.680',-0.76
'0:04.684',-0.85
'0:04.688',-0.94
'0:04.691',-0.98
'0:04.695',-0.76
'0:04.699',-0.37
'0:04.703',-0.12
'0:04.707',0.03
'0:04.711',0.08
'0:04.715',-0.08
'0:04.719',-0.55
'0:04.723',-1.05
'0:04.727',-1.48
'0:04.730',-1.91
'0:04.734',-2.32
'0:04.738',-2.67
'0:04.742',-2.84
'0:04.746',-3.08
'0:04.750',-3.42
'0:04.754',-3.7
'0:04.758',-3.94
'0:04.762',-4.08
'0:04.766',-4.07
'0:04.770',-3.95
'0:04.773',-3.87
'0:04.777',-3.87
'0:04.781',-3.68
'0:04.785',-3.44
'0:04.789',-3.45
'0:04.793',-3.76
'0:04.797',-4.15
'0:04.801',-4.4
'0:04.805',-4.46
'0:04.809',-3.87
'0:04.813',-1.93
'0:04.816',1.28
'0:04.820',4.7
'0:04.824',7.22
'0:04.828',7.24
'0:04.832',4.93
'0:04.836',1.39
'0:04.840',-2.09
'0:04.844',-4.39
'0:04.848',-5.53
'0:04.852',-5.66
'0:04.855',-4.94
'0:04.859',-3.88
'0:04.863',-2.96
'0:04.867',-2.26
'0:04.871',-1.7
'0:04.875',-1.19
'0:04.879',-0.74
'0:04.883',-0.58
'0:04.887',-0.44
'0:04.891',-0.19
'0:04.895',-0.04
'0:04.898',-0.04
'0:04.902',0.24
'0:04.906',0.61
'0:04.910',0.69
'0:04.914',0.8
'0:04.918',1.28
'0:04.922',1.77
'0:04.926',2.12
'0:04.930',2.24
'0:04.934',2.3
'0:04.938',2.18
'0:04.941',2.33
'0:04.945',2.74
'0:04.949',3.4
'0:04.953',4.01
'0:04.957',4.09
'0:04.961',4.03
'0:04.965',3.62
'0:04.969',3.06
'0:04.973',2.83
'0:04.977',2.66
'0:04.980',2.21
'0:04.984',2.13
'0:04.988',2.15
'0:04.992',1.63
'0:04.996',1.25
'0:05.000',1.22
'0:05.004',1.07
'0:05.008',0.88
'0:05.012',1.14
'0:05.016',1.44
'0:05.020',1.42
'0:05.023',1.14
'0:05.027',1.07
'0:05.031',1.32
'0:05.035',1.29
'0:05.039',1.12
'0:05.043',1.34
'0:05.047',1.42
'0:05.051',1.72
'0:05.055',2.04
'0:05.059',2.05
'0:05.063',2.31
'0:05.066',2.39
'0:05.070',1.46
'0:05.074',0.69
'0:05.078',0.35
'0:05.082',-0.27
'0:05.086',-0.76
'0:05.090',-0.87
'0:05.094',-0.97
'0:05.098',-1.14
'0:05.102',-1.55
'0:05.105',-2.17
'0:05.109',-2.56
'0:05.113',-2.51
'0:05.117',-2.24
'0:05.121',-1.91
'0:05.125',-1.94
'0:05.129',-2.31
'0:05.133',-2.24
'0:05.137',-1.93
'0:05.141',-1.82
'0:05.145',-2.6
'0:05.148',-3.63
'0:05.152',-3.8
'0:05.156',-3.14
'0:05.160',-1.37
'0:05.164',1.66
'0:05.168',5.14
'0:05.172',8.21
'0:05.176',8.88
'0:05.180',7.08
'0:05.184',3.65
'0:05.188',-0.01
'0:05.191',-2.7
'0:05.195',-4.09
'0:05.199',-4.52
'0:05.203',-4.11
'0:05.207',-3.28
'0:05.211',-2.64
'0:05.215',-2.29
'0:05.219',-2.01
'0:05.223',-1.71
'0:05.227',-1.27
'0:05.230',-0.84
'0:05.234',-0.54
'0:05.238',-0.46
'0:05.242',-0.34
'0:05.246',-0.1
'0:05.250',0.27
'0:05.254',0.56
'0:05.258',0.75
'0:05.262',0.9
'0:05.266',0.98
'0:05.270',1.16
'0:05.273',1.55
'0:05.277',1.85
'0:05.281',1.98
'0:05.285',2.03
'0:05.289',2.17
'0:05.293',2.32
'0:05.297',2.42
'0:05.301',2.51
'0:05.305',2.6
'0:05.309',2.77
'0:05.313',2.69
'0:05.316',2.47
'0:05.320',2.18
'0:05.324',1.79
'0:05.328',1.4
'0:05.332',1.18
'0:05.336',1.01
'0:05.340',0.79
'0:05.344',0.47
'0:05.348',0.13
'0:05.352',-0.01
'0:05.355',-0.21
'0:05.359',-0.52
'0:05.363',-0.53
'0:05.367',-0.3
'0:05.371',0.09
'0:05.375',0.49
'0:05.379',0.66
'0:05.383',0.75
'0:05.387',0.86
'0:05.391',0.98
'0:05.395',0.98
'0:05.398',0.98
'0:05.402',1.08
'0:05.406',1.23
'0:05.410',1.26
'0:05.414',0.82
'0:05.418',0.27
'0:05.422',0.13
'0:05.426',0.18
'0:05.430',0.08
'0:05.434',-0.27
'0:05.438',-0.9
'0:05.441',-1.59
'0:05.445',-2.11
'0:05.449',-2.38
'0:05.453',-2.55
'0:05.457',-2.68
'0:05.461',-2.68
'0:05.465',-2.72
'0:05.469',-2.6
'0:05.473',-2.23
'0:05.477',-1.8
'0:05.480',-1.45
'0:05.484',-1.38
'0:05.488',-1.39
'0:05.492',-1.39
'0:05.496',-1.69
'0:05.500',-2.85
'0:05.504',-1.05
'0:05.508',2.04
'0:05.512',5.6
'0:05.516',8.46
'0:05.520',8.81
'0:05.523',6.96
'0:05.527',3.69
'0:05.531',0.08
'0:05.535',-2.58
'0:05.539',-3.85
'0:05.543',-4.04
'0:05.547',-3.65
'0:05.551',-2.7
'0:05.555',-1.93
'0:05.559',-1.2
'0:05.563',-0.52
'0:05.566',-0.15
'0:05.570',-0.13
'0:05.574',-0.14
'0:05.578',0.33
'0:05.582',0.82
'0:05.586',1.16
'0:05.590',1.63
'0:05.594',1.83
'0:05.598',1.81
'0:05.602',1.92
'0:05.605',1.98
'0:05.609',1.93
'0:05.613',2.26
'0:05.617',2.77
'0:05.621',3.04
'0:05.625',3.03
'0:05.629',3.06
'0:05.633',3.4
'0:05.637',3.62
'0:05.641',3.78
'0:05.645',3.88
'0:05.648',4.02
'0:05.652',3.7
'0:05.656',3.42
'0:05.660',3.35
'0:05.664',3.11
'0:05.668',2.84
'0:05.672',2.29
'0:05.676',1.58
'0:05.680',0.99
'0:05.684',0.92
'0:05.688',1.14
'0:05.691',1.08
'0:05.695',0.62
'0:05.699',0.19
'0:05.703',0.17
'0:05.707',0.23
'0:05.711',0.26
'0:05.715',0.44
'0:05.719',0.8
'0:05.723',1.21
'0:05.727',1.39
'0:05.730',1.2
'0:05.734',0.99
'0:05.738',0.83
'0:05.742',0.69
'0:05.746',0.75
'0:05.750',0.97
'0:05.754',0.89
'0:05.758',0.59
'0:05.762',0.52
'0:05.766',0.36
'0:05.770',0.04
'0:05.773',-0.23
'0:05.777',-0.46
'0:05.781',-0.88
'0:05.785',-1.45
'0:05.789',-2.08
'0:05.793',-2.67
'0:05.797',-2.91
'0:05.801',-2.84
'0:05.805',-2.7
'0:05.809',-2.46
'0:05.813',-2.32
'0:05.816',-2.29
'0:05.820',-2.41
'0:05.824',-2.55
'0:05.828',-2.84
'0:05.832',-3.09
'0:05.836',-3.59
'0:05.840',-4.06
'0:05.844',-4
'0:05.848',-3.28
'0:05.852',-1.25
'0:05.855',2.13
'0:05.859',5.66
'0:05.863',8.29
'0:05.867',8.89
'0:05.871',6.72
'0:05.875',2.77
'0:05.879',-1.49
'0:05.883',-4.71
'0:05.887',-6.48
'0:05.891',-6.92
'0:05.895',-6.2
'0:05.898',-4.9
'0:05.902',-3.54
'0:05.906',-2.8
'0:05.910',-2.21
'0:05.914',-1.68
'0:05.918',-1.34
'0:05.922',-1.17
'0:05.926',-1
'0:05.930',-0.71
'0:05.934',-0.42
'0:05.938',-0.15
'0:05.941',0.1
'0:05.945',0.29
'0:05.949',0.56
'0:05.953',0.88
'0:05.957',1.14
'0:05.961',1.26
'0:05.965',1.27
'0:05.969',1.27
'0:05.973',1.39
'0:05.977',1.63
'0:05.980',1.88
'0:05.984',1.88
'0:05.988',1.88
'0:05.992',1.88
'0:05.996',1.88
'0:06.000',1.88
'0:06.004',1.88
'0:06.008',1.88
'0:06.012',1.55
'0:06.016',1.16
'0:06.020',0.8
'0:06.023',0.4
'0:06.027',-0.06
'0:06.031',-0.5
'0:06.035',-0.82
'0:06.039',-1.09
'0:06.043',-1.22
'0:06.047',-1.21
'0:06.051',-1.21
'0:06.055',-1.21
'0:06.059',-1.74
'0:06.063',-1.82
'0:06.066',-1.75
'0:06.070',-1.58
'0:06.074',-1.52
'0:06.078',-1.55
'0:06.082',-1.43
'0:06.086',-1.09
'0:06.090',-0.92
'0:06.094',-0.92
'0:06.098',-0.94
'0:06.102',-0.92
'0:06.105',-0.82
'0:06.109',-0.8
'0:06.113',-0.94
'0:06.117',-1.16
'0:06.121',-1.48
'0:06.125',-1.77
'0:06.129',-1.92
'0:06.133',-1.97
'0:06.137',-2.25
'0:06.141',-2.61
'0:06.145',-3.22
'0:06.148',-3.76
'0:06.152',-4.13
'0:06.156',-4.25
'0:06.160',-4.16
'0:06.164',-4.07
'0:06.168',-3.95
'0:06.172',-3.83
'0:06.176',-3.75
'0:06.180',-3.79
'0:06.184',-3.82
'0:06.188',-3.67
'0:06.191',-3.65
'0:06.195',-3.98
'0:06.199',-4.28
'0:06.203',-3.94
'0:06.207',-2.71
'0:06.211',-0.01
'0:06.215',3.56
'0:06.219',6.71
'0:06.223',8.28
'0:06.227',6.99
'0:06.230',3.67
'0:06.234',-0.33
'0:06.238',-3.79
'0:06.242',-5.74
'0:06.246',-6.41
'0:06.250',-6.22
'0:06.254',-5.48
'0:06.258',-4.62
'0:06.262',-3.81
'0:06.266',-2.96
'0:06.270',-2.3
'0:06.273',-1.79
'0:06.277',-1.41
'0:06.281',-1.17
'0:06.285',-1.02
'0:06.289',-0.9
'0:06.293',-0.71
'0:06.297',-0.51
'0:06.301',-0.27
'0:06.305',0.14
'0:06.309',0.45
'0:06.313',0.47
'0:06.316',0.42
'0:06.320',0.56
'0:06.324',0.89
'0:06.328',1.34
'0:06.332',1.77
'0:06.336',2.19
'0:06.340',2.56
'0:06.344',2.9
'0:06.348',2.91
'0:06.352',2.75
'0:06.355',2.8
'0:06.359',2.91
'0:06.363',2.8
'0:06.367',2.57
'0:06.371',2.3
'0:06.375',1.94
'0:06.379',1.33
'0:06.383',0.79
'0:06.387',0.52
'0:06.391',0.56
'0:06.395',0.64
'0:06.398',0.52
'0:06.402',0.42
'0:06.406',0.04
'0:06.410',-0.31
'0:06.414',-0.36
'0:06.418',-0.12
'0:06.422',0.13
'0:06.426',0.43
'0:06.430',0.85
'0:06.434',1.01
'0:06.438',0.86
'0:06.441',0.97
'0:06.445',1.18
'0:06.449',1.34
'0:06.453',1.7
'0:06.457',2.03
'0:06.461',2.08
'0:06.465',1.98
'0:06.469',1.93
'0:06.473',1.69
'0:06.477',1.12
'0:06.480',0.34
'0:06.484',-0.16
'0:06.488',-0.31
'0:06.492',-0.31
'0:06.496',-0.24
'0:06.500',-0.52
'0:06.504',-1.29
'0:06.508',-1.51
'0:06.512',-1.17
'0:06.516',-1.21
'0:06.520',-1.64
'0:06.523',-1.54
'0:06.527',-1.29
'0:06.531',-1.35
'0:06.535',-1.53
'0:06.539',-1.55
'0:06.543',-1.56
'0:06.547',-1.56
'0:06.551',-2.93
'0:06.555',-3.12
'0:06.559',-2.2
'0:06.563',-0.55
'0:06.566',2.57
'0:06.570',6.17
'0:06.574',9.16
'0:06.578',10.13
'0:06.582',8.49
'0:06.586',4.77
'0:06.590',0.64
'0:06.594',-2.41
'0:06.598',-4.26
'0:06.602',-4.84
'0:06.605',-4.76
'0:06.609',-3.89
'0:06.613',-2.92
'0:06.617',-2.28
'0:06.621',-1.6
'0:06.625',-0.86
'0:06.629',-0.49
'0:06.633',-0.32
'0:06.637',-0.17
'0:06.641',0.05
'0:06.645',0.29
'0:06.648',0.62
'0:06.652',0.75
'0:06.656',0.72
'0:06.660',0.97
'0:06.664',1.2
'0:06.668',1.39
'0:06.672',1.49
'0:06.676',1.44
'0:06.680',1.68
'0:06.684',2.09
'0:06.688',2.53
'0:06.691',2.87
'0:06.695',3.26
'0:06.699',3.63
'0:06.703',3.86
'0:06.707',3.83
'0:06.711',3.56
'0:06.715',3.23
'0:06.719',2.98
'0:06.723',2.66
'0:06.727',2.39
'0:06.730',2.15
'0:06.734',1.91
'0:06.738',1.48
'0:06.742',1.01
'0:06.746',0.67
'0:06.750',0.42
'0:06.754',0.25
'0:06.758',0.06
'0:06.762',-0.16
'0:06.766',-0.28
'0:06.770',-0.24
'0:06.773',-0.14
'0:06.777',-0.02
'0:06.781',0.22
'0:06.785',0.53
'0:06.789',0.83
'0:06.793',0.97
'0:06.797',1.07
'0:06.801',1.26
'0:06.805',1.54
'0:06.809',1.73
'0:06.813',1.66
'0:06.816',1.54
'0:06.820',1.28
'0:06.824',0.89
'0:06.828',0.52
'0:06.832',0.24
'0:06.836',-0.07
'0:06.840',-0.41
'0:06.844',-0.77
'0:06.848',-1.13
'0:06.852',-1.48
'0:06.855',-1.86
'0:06.859',-2.28
'0:06.863',-2.55
'0:06.867',-2.58
'0:06.871',-2.37
'0:06.875',-2.12
'0:06.879',-2.02
'0:06.883',-1.9
'0:06.887',-1.92
'0:06.891',-2.04
'0:06.895',-2.42
'0:06.898',-3.2
'0:06.902',-3.76
'0:06.906',-3.8
'0:06.910',-3.18
'0:06.914',-1.4
'0:06.918',1.67
'0:06.922',5.07
'0:06.926',7.95
'0:06.930',8.68
'0:06.934',6.86
'0:06.938',3.39
'0:06.941',-0.24
'0:06.945',-2.78
'0:06.949',-4.19
'0:06.953',-4.66
'0:06.957',-4.28
'0:06.961',-3.45
'0:06.965',-2.45
'0:06.969',-1.64
'0:06.973',-1.29
'0:06.977',-1
'0:06.980',-0.83
'0:06.984',-0.54
'0:06.988',-0.22
'0:06.992',0.1
'0:06.996',0.22
'0:07.000',0.3
'0:07.004',0.42
'0:07.008',0.56
'0:07.012',0.85
'0:07.016',1.07
'0:07.020',1.1
'0:07.023',1.22
'0:07.027',1.49
'0:07.031',1.75
'0:07.035',1.95
'0:07.039',2.14
'0:07.043',2.43
'0:07.047',2.89
'0:07.051',3.28
'0:07.055',3.65
'0:07.059',3.64
'0:07.063',3.52
'0:07.066',3.41
'0:07.070',3.13
'0:07.074',2.64
'0:07.078',2.11
'0:07.082',1.73
'0:07.086',1.49
'0:07.090',1.17
'0:07.094',0.88
'0:07.098',0.56
'0:07.102',0.31
'0:07.105',0.1
'0:07.109',0
'0:07.113',-0.14
'0:07.117',-0.33
'0:07.121',-0.41
'0:07.125',-0.19
'0:07.129',0.17
'0:07.133',0.27
'0:07.137',0.39
'0:07.141',0.63
'0:07.145',0.78
'0:07.148',0.93
'0:07.152',1.09
'0:07.156',1.03
'0:07.160',0.84
'0:07.164',0.83
'0:07.168',0.83
'0:07.172',0.66
'0:07.176',0.26
'0:07.180',-0.28
'0:07.184',-0.62
'0:07.188',-0.89
'0:07.191',-1.21
'0:07.195',-1.67
'0:07.199',-2.13
'0:07.203',-2.56
'0:07.207',-2.86
'0:07.211',-2.83
'0:07.215',-2.68
'0:07.219',-2.7
'0:07.223',-2.92
'0:07.227',-2.95
'0:07.230',-2.89
'0:07.234',-2.95
'0:07.238',-3.06
'0:07.242',-3.11
'0:07.246',-3.4
'0:07.250',-4
'0:07.254',-4.33
'0:07.258',-3.92
'0:07.262',-2.53
'0:07.266',0.3
'0:07.270',4
'0:07.273',7.7
'0:07.277',9.66
'0:07.281',8.59
'0:07.285',4.97
'0:07.289',0.4
'0:07.293',-3.33
'0:07.297',-5.4
'0:07.301',-6.03
'0:07.305',-5.73
'0:07.309',-4.83
'0:07.313',-3.82
'0:07.316',-3.09
'0:07.320',-2.63
'0:07.324',-2.3
'0:07.328',-1.93
'0:07.332',-1.56
'0:07.336',-1.42
'0:07.340',-1.24
'0:07.344',-1.08
'0:07.348',-0.9
'0:07.352',-0.56
'0:07.355',-0.21
'0:07.359',0.12
'0:07.363',0.32
'0:07.367',0.47
'0:07.371',0.59
'0:07.375',0.68
'0:07.379',0.8
'0:07.383',1.04
'0:07.387',1.44
'0:07.391',2.07
'0:07.395',2.41
'0:07.398',2.76
'0:07.402',3.31
'0:07.406',3.71
'0:07.410',3.76
'0:07.414',3.56
'0:07.418',3.23
'0:07.422',2.64
'0:07.426',1.92
'0:07.430',1.52
'0:07.434',1.2
'0:07.438',0.65
'0:07.441',0.23
'0:07.445',0.05
'0:07.449',-0.21
'0:07.453',-0.33
'0:07.457',-0.6
'0:07.461',-0.91
'0:07.465',-1.23
'0:07.469',-1.4
'0:07.473',-1.23
'0:07.477',-1.01
'0:07.480',-0.78
'0:07.484',-0.56
'0:07.488',-0.56
'0:07.492',-0.58
'0:07.496',-0.42
'0:07.500',-0.43
'0:07.504',-0.53
'0:07.508',-0.62
'0:07.512',-0.51
'0:07.516',0.02
'0:07.520',0.24
'0:07.523',-0.28
'0:07.527',-0.82
'0:07.531',-1.07
'0:07.535',-1.41
'0:07.539',-1.84
'0:07.543',-2.13
'0:07.547',-2.53
'0:07.551',-2.87
'0:07.555',-3.02
'0:07.559',-3.29
'0:07.563',-3.69
'0:07.566',-3.96
'0:07.570',-4.21
'0:07.574',-4.21
'0:07.578',-4.08
'0:07.582',-3.63
'0:07.586',-3.29
'0:07.590',-3.58
'0:07.594',-3.78
'0:07.598',-3.89
'0:07.602',-3.95
'0:07.605',-4.26
'0:07.609',-4.72
'0:07.613',-4.61
'0:07.617',-3.54
'0:07.621',-1.44
'0:07.625',-1.43
'0:07.629',-1.43
'0:07.633',-1.43
'0:07.637',-1.43
'0:07.641',-1.44
'0:07.645',-1.43
'0:07.648',-4.93
'0:07.652',-6.3
'0:07.656',-6.25
'0:07.660',-5.87
'0:07.664',-5.21
'0:07.668',-4.46
'0:07.672',-3.68
'0:07.676',-3
'0:07.680',-2.29
'0:07.684',-1.8
'0:07.688',-1.51
'0:07.691',-1.41
'0:07.695',-1.24
'0:07.699',-1.02
'0:07.703',-0.58
'0:07.707',0.19
'0:07.711',0.44
'0:07.715',0.23
'0:07.719',0.03
'0:07.723',-0.01
'0:07.727',0.16
'0:07.730',0.47
'0:07.734',0.98
'0:07.738',1.68
'0:07.742',1.97
'0:07.746',2.03
'0:07.750',2.22
'0:07.754',2.68
'0:07.758',3.12
'0:07.762',3.23
'0:07.766',2.93
'0:07.770',2.64
'0:07.773',2.57
'0:07.777',2.25
'0:07.781',1.89
'0:07.785',1.66
'0:07.789',1.37
'0:07.793',0.98
'0:07.797',0.57
'0:07.801',0.27
'0:07.805',0.29
'0:07.809',0.33
'0:07.813',0.08
'0:07.816',-0.04
'0:07.820',0.11
'0:07.824',0.2
'0:07.828',0.13
'0:07.832',0.18
'0:07.836',0.63
'0:07.840',1.15
'0:07.844',1.21
'0:07.848',1.01
'0:07.852',0.79
'0:07.855',1
'0:07.859',1.35
'0:07.863',1.64
'0:07.867',1.73
'0:07.871',1.47
'0:07.875',1.23
'0:07.879',0.81
'0:07.883',0.31
'0:07.887',0.04
'0:07.891',-0.28
'0:07.895',-0.72
'0:07.898',-1.23
'0:07.902',-1.59
'0:07.906',-1.73
'0:07.910',-1.77
'0:07.914',-1.79
'0:07.918',-1.91
'0:07.922',-2.26
'0:07.926',-2.4
'0:07.930',-2.31
'0:07.934',-2.43
'0:07.938',-2.43
'0:07.941',-2.21
'0:07.945',-2.09
'0:07.949',-2.38
'0:07.953',-3.13
'0:07.957',-3.81
'0:07.961',-3.77
'0:07.965',-2.73
'0:07.969',-0.34
'0:07.973',3.22
'0:07.977',6.96
'0:07.980',9.09
'0:07.984',8.41
'0:07.988',5.78
'0:07.992',2.2
'0:07.996',-0.39
'0:08.000',-2.93
'0:08.004',-4.18
'0:08.008',-4.29
'0:08.012',-3.75
'0:08.016',-3.04
'0:08.020',-2.37
'0:08.023',-1.76
'0:08.027',-1.17
'0:08.031',-0.68
'0:08.035',-0.32
'0:08.039',-0.17
'0:08.043',-0.07
'0:08.047',0.05
'0:08.051',0.24
'0:08.055',0.58
'0:08.059',0.92
'0:08.063',1.26
'0:08.066',1.54
'0:08.070',1.64
'0:08.074',1.64
'0:08.078',1.63
'0:08.082',1.63
'0:08.086',1.64
'0:08.090',1.63
'0:08.094',1.64
'0:08.098',1.64
'0:08.102',3.66
'0:08.105',3.71
'0:08.109',3.76
'0:08.113',3.78
'0:08.117',3.73
'0:08.121',3.52
'0:08.125',3.29
'0:08.129',2.96
'0:08.133',2.64
'0:08.137',2.29
'0:08.141',2.02
'0:08.145',1.64
'0:08.148',1.25
'0:08.152',0.93
'0:08.156',0.63
'0:08.160',0.42
'0:08.164',0.39
'0:08.168',0.47
'0:08.172',0.55
'0:08.176',0.68
'0:08.180',0.71
'0:08.184',0.77
'0:08.188',0.97
'0:08.191',1.19
'0:08.195',1.31
'0:08.199',1.44
'0:08.203',1.73
'0:08.207',2.01
'0:08.211',2.1
'0:08.215',2.03
'0:08.219',1.73
'0:08.223',1.3
'0:08.227',0.89
'0:08.230',0.56
'0:08.234',0.37
'0:08.238',0.06
'0:08.242',-0.33
'0:08.246',-0.72
'0:08.250',-1.21
'0:08.254',-1.63
'0:08.258',-1.92
'0:08.262',-2.06
'0:08.266',-2.22
'0:08.270',-2.28
'0:08.273',-2.31
'0:08.277',-2.2
'0:08.281',-2
'0:08.285',-1.85
'0:08.289',-1.88
'0:08.293',-2.09
'0:08.297',-2.65
'0:08.301',-3.72
'0:08.305',-4.57
'0:08.309',-4.42
'0:08.313',-3.2
'0:08.316',-0.43
'0:08.320',3.34
'0:08.324',6.86
'0:08.328',8.95
'0:08.332',8.41
'0:08.336',5.61
'0:08.340',1.78
'0:08.344',-1.6
'0:08.348',-3.78
'0:08.352',-4.55
'0:08.355',-4.41
'0:08.359',-3.69
'0:08.363',-3.04
'0:08.367',-2.42
'0:08.371',-1.8
'0:08.375',-1.36
'0:08.379',-0.95
'0:08.383',-0.51
'0:08.387',-0.29
'0:08.391',-0.23
'0:08.395',0
'0:08.398',0.3
'0:08.402',0.51
'0:08.406',0.63
'0:08.410',0.74
'0:08.414',0.76
'0:08.418',0.83
'0:08.422',1
'0:08.426',1.32
'0:08.430',1.54
'0:08.434',1.78
'0:08.438',2.31
'0:08.441',2.71
'0:08.445',2.85
'0:08.449',3.03
'0:08.453',3.1
'0:08.457',3.01
'0:08.461',2.88
'0:08.465',2.63
'0:08.469',2.4
'0:08.473',2.25
'0:08.477',2.09
'0:08.480',1.74
'0:08.484',1.13
'0:08.488',0.56
'0:08.492',0.42
'0:08.496',0.25
'0:08.500',0.05
'0:08.504',0.05
'0:08.508',-0.07
'0:08.512',-0.29
'0:08.516',-0.46
'0:08.520',-0.72
'0:08.523',-0.78
'0:08.527',-0.58
'0:08.531',-0.12
'0:08.535',0.27
'0:08.539',0.56
'0:08.543',0.47
'0:08.547',0.46
'0:08.551',0.73
'0:08.555',0.89
'0:08.559',1
'0:08.563',1.02
'0:08.566',0.96
'0:08.570',0.88
'0:08.574',0.45
'0:08.578',0.32
'0:08.582',-0.63
'0:08.586',-0.75
'0:08.590',-0.75
'0:08.594',-0.75
'0:08.598',-1.67
'0:08.602',-2.19
'0:08.605',-2.68
'0:08.609',-2.87
'0:08.613',-2.94
'0:08.617',-2.82
'0:08.621',-2.51
'0:08.625',-2.19
'0:08.629',-2
'0:08.633',-2.23
'0:08.637',-2.45
'0:08.641',-2.44
'0:08.645',-2.55
'0:08.648',-2.99
'0:08.652',-3.75
'0:08.656',-4.14
'0:08.660',-3.41
'0:08.664',-1.13
'0:08.668',2.92
'0:08.672',6.97
'0:08.676',9.85
'0:08.680',9.81
'0:08.684',6.92
'0:08.688',2.64
'0:08.691',-1.36
'0:08.695',-4.17
'0:08.699',-5.4
'0:08.703',-5.44
'0:08.707',-4.59
'0:08.711',-3.59
'0:08.715',-2.66
'0:08.719',-2.06
'0:08.723',-1.49
'0:08.727',-0.93
'0:08.730',-0.56
'0:08.734',-0.58
'0:08.738',-0.6
'0:08.742',-0.4
'0:08.746',-0.2
'0:08.750',-0.19
'0:08.754',-0.13
'0:08.758',-0.09
'0:08.762',0.02
'0:08.766',0.39
'0:08.770',0.69
'0:08.773',0.88
'0:08.777',1.12
'0:08.781',1.3
'0:08.785',1.44
'0:08.789',1.7
'0:08.793',2.09
'0:08.797',2.44
'0:08.801',2.64
'0:08.805',2.81
'0:08.809',2.87
'0:08.813',3
'0:08.816',2.81
'0:08.820',2.28
'0:08.824',1.71
'0:08.828',1.37
'0:08.832',0.94
'0:08.836',0.47
'0:08.840',0.06
'0:08.844',-0.21
'0:08.848',-0.51
'0:08.852',-0.75
'0:08.855',-0.92
'0:08.859',-1.14
'0:08.863',-1.26
'0:08.867',-1.28
'0:08.871',-1.31
'0:08.875',-1.29
'0:08.879',-1.19
'0:08.883',-1.14
'0:08.887',-1.11
'0:08.891',-1.01
'0:08.895',-0.97
'0:08.898',-0.93
'0:08.902',-0.73
'0:08.906',-0.51
'0:08.910',-0.38
'0:08.914',-0.34
'0:08.918',-0.43
'0:08.922',-0.7
'0:08.926',-1.14
'0:08.930',-1.78
'0:08.934',-2.28
'0:08.938',-2.65
'0:08.941',-3.14
'0:08.945',-3.48
'0:08.949',-3.81
'0:08.953',-3.94
'0:08.957',-3.97
'0:08.961',-4.09
'0:08.965',-4.23
'0:08.969',-4.3
'0:08.973',-4.28
'0:08.977',-4.26
'0:08.980',-4.16
'0:08.984',-4.04
'0:08.988',-3.89
'0:08.992',-3.92
'0:08.996',-4.48
'0:09.000',-5.18
'0:09.004',-5.58
'0:09.008',-5.15
'0:09.012',-3.51
'0:09.016',-0.36
'0:09.020',3.2
'0:09.023',6.17
'0:09.027',7.06
'0:09.031',5.4
'0:09.035',2.08
'0:09.039',-1.61
'0:09.043',-4.46
'0:09.047',-5.84
'0:09.051',-6.35
'0:09.055',-6.07
'0:09.059',-5.26
'0:09.063',-4.31
'0:09.066',-3.58
'0:09.070',-3.07
'0:09.074',-2.46
'0:09.078',-1.97
'0:09.082',-1.63
'0:09.086',-1.22
'0:09.090',-0.81
'0:09.094',-0.6
'0:09.098',-0.43
'0:09.102',-0.29
'0:09.105',-0.29
'0:09.109',-0.29
'0:09.113',-0.15
'0:09.117',0.13
'0:09.121',0.44
'0:09.125',0.88
'0:09.129',1.1
'0:09.133',1.29
'0:09.137',1.66
'0:09.141',1.91
'0:09.145',2.1
'0:09.148',2.4
'0:09.152',2.92
'0:09.156',3.02
'0:09.160',2.74
'0:09.164',2.42
'0:09.168',2.1
'0:09.172',2
'0:09.176',1.99
'0:09.180',1.8
'0:09.184',1.42
'0:09.188',0.95
'0:09.191',0.42
'0:09.195',-0.11
'0:09.199',-0.43
'0:09.203',-0.55
'0:09.207',-0.51
'0:09.211',-0.34
'0:09.215',-0.26
'0:09.219',-0.3
'0:09.223',-0.02
'0:09.227',0.41
'0:09.230',0.44
'0:09.234',0.3
'0:09.238',0.44
'0:09.242',0.74
'0:09.246',0.9
'0:09.250',1.08
'0:09.254',1.29
'0:09.258',1.51
'0:09.262',1.56
'0:09.266',1.34
'0:09.270',1.01
'0:09.273',0.78
'0:09.277',0.54
'0:09.281',0.25
'0:09.285',-0.13
'0:09.289',-0.53
'0:09.293',-0.99
'0:09.297',-1.48
'0:09.301',-1.77
'0:09.305',-1.77
'0:09.309',-1.6
'0:09.313',-1.53
'0:09.316',-1.73
'0:09.320',-1.9
'0:09.324',-1.85
'0:09.328',-1.88
'0:09.332',-2.01
'0:09.336',-1.97
'0:09.340',-1.92
'0:09.344',-2.38
'0:09.348',-3.09
'0:09.352',-3.52
'0:09.355',-3.33
'0:09.359',-2.13
'0:09.363',0.54
'0:09.367',4.26
'0:09.371',7.83
'0:09.375',9.66
'0:09.379',8.38
'0:09.383',5.21
'0:09.387',1.47
'0:09.391',-1.79
'0:09.395',-3.99
'0:09.398',-4.95
'0:09.402',-5.02
'0:09.406',-4.38
'0:09.410',-3.28
'0:09.414',-2.25
'0:09.418',-1.8
'0:09.422',-1.7
'0:09.426',-1.48
'0:09.430',-1.12
'0:09.434',-0.79
'0:09.438',-0.66
'0:09.441',-0.56
'0:09.445',-0.24
'0:09.449',-0.07
'0:09.453',-0.01
'0:09.457',0.2
'0:09.461',0.48
'0:09.465',0.56
'0:09.469',0.66
'0:09.473',0.76
'0:09.477',0.88
'0:09.480',1.24
'0:09.484',1.71
'0:09.488',2.15
'0:09.492',2.37
'0:09.496',2.54
'0:09.500',2.71
'0:09.504',2.93
'0:09.508',3.03
'0:09.512',2.67
'0:09.516',2.45
'0:09.520',2.08
'0:09.523',1.79
'0:09.527',1.74
'0:09.531',1.49
'0:09.535',0.71
'0:09.539',-0.18
'0:09.543',-0.62
'0:09.547',-0.8
'0:09.551',-0.99
'0:09.555',-1.17
'0:09.559',-1.31
'0:09.563',-1.32
'0:09.566',-1.04
'0:09.570',-0.53
'0:09.574',-0.31
'0:09.578',-0.31
'0:09.582',-0.21
'0:09.586',0
'0:09.590',0.37
'0:09.594',0.87
'0:09.598',1.42
'0:09.602',1.84
'0:09.605',1.56
'0:09.609',1.25
'0:09.613',1.04
'0:09.617',0.71
'0:09.621',0.35
'0:09.625',0.17
'0:09.629',0.12
'0:09.633',0.1
'0:09.637',-0.21
'0:09.641',-0.48
'0:09.645',-0.86
'0:09.648',-1.09
'0:09.652',-1.23
'0:09.656',-1.21
'0:09.660',-1.19
'0:09.664',-1.06
'0:09.668',-1.06
'0:09.672',-1.17
'0:09.676',-1.38
'0:09.680',-1.12
'0:09.684',-1.16
'0:09.688',-1.39
'0:09.691',-1.9
'0:09.695',-2.33
'0:09.699',-2.18
'0:09.703',-1.54
'0:09.707',-0.15
'0:09.711',2.94
'0:09.715',6.77
'0:09.719',9.72
'0:09.723',10.24
'0:09.727',8.31
'0:09.730',4.79
'0:09.734',1.05
'0:09.738',-1.83
'0:09.742',-2.09
'0:09.746',-2.09
'0:09.750',-2.09
'0:09.754',-2.09
'0:09.758',-2.09
'0:09.762',-2.09
'0:09.766',-2.09
'0:09.770',0.54
'0:09.773',1.05
'0:09.777',1.14
'0:09.781',1.07
'0:09.785',1.39
'0:09.789',1.43
'0:09.793',1.33
'0:09.797',1.49
'0:09.801',1.59
'0:09.805',1.73
'0:09.809',1.91
'0:09.813',1.81
'0:09.816',1.66
'0:09.820',1.78
'0:09.824',2.13
'0:09.828',2.68
'0:09.832',3.15
'0:09.836',3.38
'0:09.840',3.34
'0:09.844',3.11
'0:09.848',3.06
'0:09.852',3.29
'0:09.855',3.39
'0:09.859',3.19
'0:09.863',2.73
'0:09.867',2.44
'0:09.871',2.02
'0:09.875',1.7
'0:09.879',1.44
'0:09.883',1.2
'0:09.887',0.9
'0:09.891',0.58
'0:09.895',0.28
'0:09.898',0.1
'0:09.902',-0.06
'0:09.906',-0.04
'0:09.910',0.24
'0:09.914',0.51
'0:09.918',0.79
'0:09.922',1.06
'0:09.926',1.25
'0:09.930',1.31
'0:09.934',1.37
'0:09.938',1.6
'0:09.941',1.85
'0:09.945',1.9
'0:09.949',1.68
'0:09.953',1.27
'0:09.957',0.86
'0:09.961',0.65
'0:09.965',0.43
'0:09.969',0.24
'0:09.973',-0.12
'0:09.977',-0.49
'0:09.980',-0.79
'0:09.984',-0.89
'0:09.988',-1.07
'0:09.992',-1.21
'0:09.996',-1.22
'0:10.000',-1.17
'0:10.004',-1.02
'0:10.008',-0.95
'0:10.012',-0.85
'0:10.016',-0.88
'0:10.020',-1.24
'0:10.023',-1.58
'0:10.027',-1.71
'0:10.031',-2
'0:10.035',-2.68
'0:10.039',-3.4
'0:10.043',-3.47
'0:10.047',-2.47
'0:10.051',0.2
'0:10.055',3.85
'0:10.059',7.26
'0:10.063',9.11
'0:10.066',8.17
'0:10.070',5.13
'0:10.074',1.34
'0:10.078',-1.95
'0:10.082',-3.94
'0:10.086',-4.75
'0:10.090',-4.79
'0:10.094',-4.11
'0:10.098',-3.11
'0:10.102',-2.28
'0:10.105',-1.68
'0:10.109',-1.39
'0:10.113',-1.29
'0:10.117',-1.26
'0:10.121',-1.04
'0:10.125',-0.76
'0:10.129',-0.43
'0:10.133',-0.09
'0:10.137',-0.04
'0:10.141',-0.05
'0:10.145',0.06
'0:10.148',0.2
'0:10.152',0.37
'0:10.156',0.57
'0:10.160',0.7
'0:10.164',0.91
'0:10.168',1.37
'0:10.172',1.93
'0:10.176',2.22
'0:10.180',2.29
'0:10.184',2.5
'0:10.188',2.75
'0:10.191',3.13
'0:10.195',3.37
'0:10.199',3.26
'0:10.203',2.9
'0:10.207',2.42
'0:10.211',1.88
'0:10.215',1.24
'0:10.219',0.68
'0:10.223',0.25
'0:10.227',-0.14
'0:10.230',-0.46
'0:10.234',-0.56
'0:10.238',-0.45
'0:10.242',-0.66
'0:10.246',-1.06
'0:10.250',-1.04
'0:10.254',-0.75
'0:10.258',-0.46
'0:10.262',-0.41
'0:10.266',-0.39
'0:10.270',-0.26
'0:10.273',-0.02
'0:10.277',0.1
'0:10.281',0.25
'0:10.285',0.24
'0:10.289',-0.07
'0:10.293',-0.36
'0:10.297',-0.48
'0:10.301',-0.6
'0:10.305',-0.68
'0:10.309',-0.85
'0:10.313',-1.25
'0:10.316',-1.41
'0:10.320',-1.64
'0:10.324',-1.85
'0:10.328',-2.05
'0:10.332',-2.05
'0:10.336',-2.21
'0:10.340',-2.39
'0:10.344',-2.7
'0:10.348',-2.9
'0:10.352',-3.07
'0:10.355',-3.13
'0:10.359',-2.97
'0:10.363',-2.75
'0:10.367',-2.6
'0:10.371',-2.54
'0:10.375',-2.64
'0:10.379',-2.88
'0:10.383',-3.36
'0:10.387',-3.63
'0:10.391',-3.33
'0:10.395',-1.9
'0:10.398',0.93
'0:10.402',4.87
'0:10.406',8.51
'0:10.410',10.52
'0:10.414',9.65
'0:10.418',6.26
'0:10.422',1.83
'0:10.426',-2.13
'0:10.430',-4.65
'0:10.434',-5.78
'0:10.438',-5.67
'0:10.441',-4.89
'0:10.445',-3.89
'0:10.449',-2.96
'0:10.453',-2.35
'0:10.457',-1.95
'0:10.461',-1.77
'0:10.465',-1.63
'0:10.469',-1.33
'0:10.473',-0.91
'0:10.477',-0.58
'0:10.480',-0.31
'0:10.484',-0.12
'0:10.488',-0.02
'0:10.492',0.13
'0:10.496',0.3
'0:10.500',0.46
'0:10.504',0.48
'0:10.508',0.54
'0:10.512',0.84
'0:10.516',1.15
'0:10.520',1.49
'0:10.523',1.86
'0:10.527',2.22
'0:10.531',2.62
'0:10.535',2.91
'0:10.539',3.04
'0:10.543',2.94
'0:10.547',2.73
'0:10.551',2.36
'0:10.555',2
'0:10.559',1.55
'0:10.563',1.09
'0:10.566',0.81
'0:10.570',0.54
'0:10.574',0
'0:10.578',-0.71
'0:10.582',-1.22
'0:10.586',-1.43
'0:10.590',-1.56
'0:10.594',-1.82
'0:10.598',-1.94
'0:10.602',-1.91
'0:10.605',-1.61
'0:10.609',-1.35
'0:10.613',-1.22
'0:10.617',-1.11
'0:10.621',-1.05
'0:10.625',-0.97
'0:10.629',-0.63
'0:10.633',-0.16
'0:10.637',0.27
'0:10.641',0.18
'0:10.645',-0.05
'0:10.648',-0.33
'0:10.652',-0.73
'0:10.656',-1.12
'0:10.660',-1.41
'0:10.664',-1.5
'0:10.668',-1.61
'0:10.672',-2.07
'0:10.676',-2.66
'0:10.680',-3.14
'0:10.684',-3.43
'0:10.688',-3.57
'0:10.691',-3.62
'0:10.695',-3.34
'0:10.699',-3.24
'0:10.703',-3.51
'0:10.707',-4.11
'0:10.711',-4.19
'0:10.715',-3.7
'0:10.719',-3.34
'0:10.723',-3.44
'0:10.727',-4.04
'0:10.730',-4.78
'0:10.734',-4.88
'0:10.738',-4.4
'0:10.742',-3.05
'0:10.746',-0.38
'0:10.750',3
'0:10.754',6.35
'0:10.758',8.03
'0:10.762',6.71
'0:10.766',3.61
'0:10.770',0.08
'0:10.773',-3.38
'0:10.777',-5.65
'0:10.781',-6.43
'0:10.785',-6.08
'0:10.789',-5.11
'0:10.793',-4.06
'0:10.797',-3.34
'0:10.801',-3.06
'0:10.805',-2.77
'0:10.809',-2.32
'0:10.813',-1.74
'0:10.816',-1.08
'0:10.820',-0.58
'0:10.824',-0.24
'0:10.828',0.05
'0:10.832',0.25
'0:10.836',0.35
'0:10.840',0.43
'0:10.844',0.64
'0:10.848',0.74
'0:10.852',0.79
'0:10.855',1
'0:10.859',1.38
'0:10.863',1.75
'0:10.867',1.93
'0:10.871',2.23
'0:10.875',2.69
'0:10.879',3.1
'0:10.883',3.48
'0:10.887',3.51
'0:10.891',3.2
'0:10.895',2.85
'0:10.898',2.76
'0:10.902',2.63
'0:10.906',2.1
'0:10.910',1.44
'0:10.914',1.05
'0:10.918',0.83
'0:10.922',0.59
'0:10.926',0.33
'0:10.930',-0.05
'0:10.934',-0.55
'0:10.938',-0.56
'0:10.941',-0.14
'0:10.945',0.16
'0:10.949',0.17
'0:10.953',0.23
'0:10.957',0.42
'0:10.961',0.56
'0:10.965',0.74
'0:10.969',1.07
'0:10.973',1.49
'0:10.977',1.55
'0:10.980',1.52
'0:10.984',1.59
'0:10.988',1.49
'0:10.992',1.39
'0:10.996',1.34
'0:11.000',0.98
'0:11.004',0.56
'0:11.008',0.2
'0:11.012',-0.22
'0:11.016',-0.78
'0:11.020',-1.29
'0:11.023',-1.7
'0:11.027',-1.91
'0:11.031',-2.17
'0:11.035',-2.6
'0:11.039',-2.82
'0:11.043',-2.53
'0:11.047',-2.16
'0:11.051',-2.04
'0:11.055',-2.16
'0:11.059',-2.17
'0:11.063',-1.92
'0:11.066',-1.75
'0:11.070',-2.36
'0:11.074',-3.31
'0:11.078',-3.9
'0:11.082',-3.86
'0:11.086',-3.32
'0:11.090',-1.6
'0:11.094',1.65
'0:11.098',5.61
'0:11.102',8.6
'0:11.105',8.56
'0:11.109',6.21
'0:11.113',2.68
'0:11.117',-0.96
'0:11.121',-3.85
'0:11.125',-5.36
'0:11.129',-5.86
'0:11.133',-5.6
'0:11.137',-4.89
'0:11.141',-3.94
'0:11.145',-3.04
'0:11.148',-2.38
'0:11.152',-1.89
'0:11.156',-1.64
'0:11.160',-1.28
'0:11.164',-0.79
'0:11.168',-0.69
'0:11.172',-0.6
'0:11.176',-0.27
'0:11.180',-0.12
'0:11.184',-0.02
'0:11.188',-0.02
'0:11.191',0.11
'0:11.195',0.38
'0:11.199',0.64
'0:11.203',0.98
'0:11.207',1.33
'0:11.211',1.74
'0:11.215',2.22
'0:11.219',2.52
'0:11.223',2.74
'0:11.227',3.03
'0:11.230',3.22
'0:11.234',3.07
'0:11.238',2.78
'0:11.242',2.7
'0:11.246',2.73
'0:11.250',2.66
'0:11.254',2.26
'0:11.258',1.76
'0:11.262',1.47
'0:11.266',1.27
'0:11.270',1.04
'0:11.273',0.73
'0:11.277',0.29
'0:11.281',-0.02
'0:11.285',-0.04
'0:11.289',-0.02
'0:11.293',-0.01
'0:11.297',0.14
'0:11.301',0.25
'0:11.305',0.25
'0:11.309',0.25
'0:11.313',0.3
'0:11.316',0.42
'0:11.320',0.72
'0:11.324',1.05
'0:11.328',1.25
'0:11.332',1.3
'0:11.336',1.32
'0:11.340',1.22
'0:11.344',1
'0:11.348',0.83
'0:11.352',0.61
'0:11.355',0.15
'0:11.359',-0.17
'0:11.363',-0.46
'0:11.367',-0.92
'0:11.371',-1.29
'0:11.375',-1.54
'0:11.379',-1.7
'0:11.383',-1.82
'0:11.387',-1.89
'0:11.391',-2.02
'0:11.395',-2.09
'0:11.398',-2.07
'0:11.402',-1.99
'0:11.406',-1.95
'0:11.410',-1.95
'0:11.414',-2.07
'0:11.418',-2.43
'0:11.422',-3
'0:11.426',-3.41
'0:11.430',-3.2
'0:11.434',-1.64
'0:11.438',1.33
'0:11.441',4.98
'0:11.445',8.31
'0:11.449',9.49
'0:11.453',7.93
'0:11.457',4.35
'0:11.461',0.39
'0:11.465',-2.53
'0:11.469',-4.09
'0:11.473',-4.59
'0:11.477',-4.25
'0:11.480',-3.58
'0:11.484',-2.87
'0:11.488',-2.28
'0:11.492',-1.69
'0:11.496',-1.14
'0:11.500',-0.83
'0:11.504',-0.5
'0:11.508',-0.15
'0:11.512',0.09
'0:11.516',0.27
'0:11.520',0.54
'0:11.523',0.89
'0:11.527',1.03
'0:11.531',1.05
'0:11.535',1.2
'0:11.539',1.52
'0:11.543',1.66
'0:11.547',1.64
'0:11.551',1.83
'0:11.555',2.15
'0:11.559',2.41
'0:11.563',2.61
'0:11.566',2.78
'0:11.570',3
'0:11.574',3.07
'0:11.578',3.05
'0:11.582',3.17
'0:11.586',3.15
'0:11.590',3.02
'0:11.594',2.78
'0:11.598',2.7
'0:11.602',2.47
'0:11.605',2.05
'0:11.609',1.63
'0:11.613',1.03
'0:11.617',0.35
'0:11.621',-0.16
'0:11.625',-0.37
'0:11.629',-0.6
'0:11.633',-0.82
'0:11.637',-0.65
'0:11.641',-0.19
'0:11.645',0.14
'0:11.648',0.38
'0:11.652',0.66
'0:11.656',0.88
'0:11.660',1.05
'0:11.664',1.14
'0:11.668',1.4
'0:11.672',1.52
'0:11.676',1.73
'0:11.680',1.76
'0:11.684',1.59
'0:11.688',1.25
'0:11.691',0.84
'0:11.695',0.34
'0:11.699',-0.08
'0:11.703',-0.6
'0:11.707',-1.17
'0:11.711',-1.58
'0:11.715',-1.75
'0:11.719',-1.81
'0:11.723',-1.94
'0:11.727',-2
'0:11.730',-1.97
'0:11.734',-2.04
'0:11.738',-2.04
'0:11.742',-1.79
'0:11.746',-1.5
'0:11.750',-1.31
'0:11.754',-1.54
'0:11.758',-2.2
'0:11.762',-3.1
'0:11.766',-4.1
'0:11.770',-4.43
'0:11.773',-3.95
'0:11.777',-2.41
'0:11.781',0.72
'0:11.785',4.57
'0:11.789',8.14
'0:11.793',9.49
'0:11.797',8.25
'0:11.801',4.97
'0:11.805',0.85
'0:11.809',-2.12
'0:11.813',-3.82
'0:11.816',-4.6
'0:11.820',-4.54
'0:11.824',-3.83
'0:11.828',-3.06
'0:11.832',-2.5
'0:11.836',-2.01
'0:11.840',-1.78
'0:11.844',-1.52
'0:11.848',-1.04
'0:11.852',-0.73
'0:11.855',-0.38
'0:11.859',0.06
'0:11.863',0.37
'0:11.867',0.64
'0:11.871',0.88
'0:11.875',0.94
'0:11.879',1.25
'0:11.883',1.35
'0:11.887',1.47
'0:11.891',1.47
'0:11.895',1.46
'0:11.898',1.47
'0:11.902',1.47
'0:11.906',1.46
'0:11.910',1.47
'0:11.914',3.02
'0:11.918',2.94
'0:11.922',2.73
'0:11.926',2.56
'0:11.930',2.44
'0:11.934',2.37
'0:11.938',2.27
'0:11.941',1.94
'0:11.945',1.45
'0:11.949',1.19
'0:11.953',0.82
'0:11.957',0.46
'0:11.961',0.18
'0:11.965',-0.09
'0:11.969',-0.28
'0:11.973',-0.38
'0:11.977',-0.31
'0:11.980',-0.16
'0:11.984',-0.04
'0:11.988',0.04
'0:11.992',0.25
'0:11.996',0.44
'0:12.000',0.57
'0:12.004',0.76
'0:12.008',0.92
'0:12.012',1.03
'0:12.016',1.13
'0:12.020',1.19
'0:12.023',1.14
'0:12.027',1
'0:12.031',0.67
'0:12.035',0.09
'0:12.039',-0.44
'0:12.043',-0.88
'0:12.047',-1.24
'0:12.051',-1.54
'0:12.055',-1.88
'0:12.059',-2.22
'0:12.063',-2.54
'0:12.066',-2.85
'0:12.070',-3.09
'0:12.074',-3.16
'0:12.078',-3.09
'0:12.082',-3.07
'0:12.086',-2.99
'0:12.090',-2.85
'0:12.094',-2.67
'0:12.098',-2.57
'0:12.102',-2.95
'0:12.105',-3.81
'0:12.109',-4.56
'0:12.113',-4.55
'0:12.117',-3.52
'0:12.121',-0.92
'0:12.125',2.72
'0:12.129',6.48
'0:12.133',8.78
'0:12.137',8.13
'0:12.141',5.35
'0:12.145',1.47
'0:12.148',-1.99
'0:12.152',-4.17
'0:12.156',-5.17
'0:12.160',-5.11
'0:12.164',-4.5
'0:12.168',-3.76
'0:12.172',-2.96
'0:12.176',-2.23
'0:12.180',-1.77
'0:12.184',-1.43
'0:12.188',-1.14
'0:12.191',-0.94
'0:12.195',-0.89
'0:12.199',-0.8
'0:12.203',-0.62
'0:12.207',-0.43
'0:12.211',-0.11
'0:12.215',0.18
'0:12.219',0.42
'0:12.223',0.51
'0:12.227',0.52
'0:12.230',0.81
'0:12.234',1.18
'0:12.238',1.43
'0:12.242',1.79
'0:12.246',2.31
'0:12.250',2.82
'0:12.254',3.23
'0:12.258',3.56
'0:12.262',3.76
'0:12.266',3.91
'0:12.270',3.91
'0:12.273',3.44
'0:12.277',2.67
'0:12.281',2.09
'0:12.285',1.7
'0:12.289',1.27
'0:12.293',0.99
'0:12.297',0.35
'0:12.301',0.47
'0:12.305',0.45
'0:12.309',0.39
'0:12.313',0.27
'0:12.316',0.2
'0:12.320',0.4
'0:12.324',0.59
'0:12.328',0.58
'0:12.332',0.59
'0:12.336',0.74
'0:12.340',0.83
'0:12.344',0.93
'0:12.348',1.07
'0:12.352',1.05
'0:12.355',1.03
'0:12.359',1
'0:12.363',0.97
'0:12.367',0.68
'0:12.371',0.22
'0:12.375',-0.22
'0:12.379',-0.47
'0:12.383',-0.56
'0:12.387',-0.92
'0:12.391',-1.3
'0:12.395',-1.61
'0:12.398',-1.8
'0:12.402',-1.89
'0:12.406',-2.07
'0:12.410',-2.35
'0:12.414',-2.7
'0:12.418',-3
'0:12.422',-2.9
'0:12.426',-2.43
'0:12.430',-2.15
'0:12.434',-2.37
'0:12.438',-2.7
'0:12.441',-2.97
'0:12.445',-3.35
'0:12.449',-3.97
'0:12.453',-4.17
'0:12.457',-3.36
'0:12.461',-1.03
'0:12.465',2.85
'0:12.469',6.74
'0:12.473',9.55
'0:12.477',9.83
'0:12.480',7.26
'0:12.484',3
'0:12.488',-1.3
'0:12.492',-4.3
'0:12.496',-5.63
'0:12.500',-5.48
'0:12.504',-4.58
'0:12.508',-3.53
'0:12.512',-2.72
'0:12.516',-2.17
'0:12.520',-1.74
'0:12.523',-1.41
'0:12.527',-1.15
'0:12.531',-0.75
'0:12.535',-0.38
'0:12.539',-0.14
'0:12.543',0.01
'0:12.547',0.22
'0:12.551',0.49
'0:12.555',0.66
'0:12.559',0.69
'0:12.563',0.77
'0:12.566',0.81
'0:12.570',1.02
'0:12.574',1.25
'0:12.578',1.47
'0:12.582',1.81
'0:12.586',2.31
'0:12.590',2.96
'0:12.594',3.5
'0:12.598',3.7
'0:12.602',3.72
'0:12.605',3.52
'0:12.609',3.26
'0:12.613',3.02
'0:12.617',2.73
'0:12.621',2.28
'0:12.625',1.77
'0:12.629',1.25
'0:12.633',0.83
'0:12.637',0.36
'0:12.641',-0.1
'0:12.645',-0.44
'0:12.648',-0.66
'0:12.652',-0.8
'0:12.656',-0.94
'0:12.660',-0.99
'0:12.664',-0.97
'0:12.668',-0.8
'0:12.672',-0.42
'0:12.676',-0.04
'0:12.680',0
'0:12.684',-0.43
'0:12.688',-0.75
'0:12.691',-0.8
'0:12.695',-0.69
'0:12.699',-0.54
'0:12.703',-0.46
'0:12.707',-0.53
'0:12.711',-0.73
'0:12.715',-1.06
'0:12.719',-1.37
'0:12.723',-1.65
'0:12.727',-1.67
'0:12.730',-1.68
'0:12.734',-2.2
'0:12.738',-2.93
'0:12.742',-3.39
'0:12.746',-3.91
'0:12.750',-4.29
'0:12.754',-4.35
'0:12.758',-4.25
'0:12.762',-3.98
'0:12.766',-3.87
'0:12.770',-3.9
'0:12.773',-3.69
'0:12.777',-3.38
'0:12.781',-3.26
'0:12.785',-3.56
'0:12.789',-4.43
'0:12.793',-5.41
'0:12.797',-5.77
'0:12.801',-5.31
'0:12.805',-3.61
'0:12.809',-0.43
'0:12.813',3.62
'0:12.816',7.08
'0:12.820',8.19
'0:12.824',6.29
'0:12.828',2.31
'0:12.832',-2.17
'0:12.836',-5.41
'0:12.840',-6.96
'0:12.844',-7.12
'0:12.848',-6.44
'0:12.852',-5.61
'0:12.855',-4.66
'0:12.859',-3.85
'0:12.863',-3.03
'0:12.867',-2.5
'0:12.871',-2.26
'0:12.875',-2.26
'0:12.879',-2.26
'0:12.883',-2.26
'0:12.887',-2.26
'0:12.891',-1.24
'0:12.895',-0.85
'0:12.898',-0.33
'0:12.902',0.04
'0:12.906',0.22
'0:12.910',0.32
'0:12.914',0.62
'0:12.918',0.94
'0:12.922',1.17
'0:12.926',1.34
'0:12.930',1.75
'0:12.934',2.22
'0:12.938',2.59
'0:12.941',2.73
'0:12.945',2.82
'0:12.949',2.9
'0:12.953',3.14
'0:12.957',3.32
'0:12.961',3.07
'0:12.965',2.5
'0:12.969',1.88
'0:12.973',1.66
'0:12.977',1.44
'0:12.980',1.07
'0:12.984',0.48
'0:12.988',0.22
'0:12.992',0.33
'0:12.996',0.34
'0:13.000',-0.12
'0:13.004',-0.31
'0:13.008',-0.19
'0:13.012',-0.07
'0:13.016',-0.04
'0:13.020',0.27
'0:13.023',0.89
'0:13.027',1.08
'0:13.031',1.11
'0:13.035',1.22
'0:13.039',1.24
'0:13.043',1.15
'0:13.047',1.02
'0:13.051',0.98
'0:13.055',1
'0:13.059',0.82
'0:13.063',0.3
'0:13.066',-0.02
'0:13.070',0.13
'0:13.074',0.02
'0:13.078',-0.64
'0:13.082',-1.24
'0:13.086',-1.36
'0:13.090',-1.47
'0:13.094',-1.7
'0:13.098',-1.87
'0:13.102',-2.05
'0:13.105',-2.29
'0:13.109',-2.21
'0:13.113',-1.99
'0:13.117',-1.65
'0:13.121',-1.37
'0:13.125',-1.68
'0:13.129',-2.3
'0:13.133',-2.95
'0:13.137',-3.62
'0:13.141',-4.07
'0:13.145',-3.85
'0:13.148',-2.39
'0:13.152',0.51
'0:13.156',4.31
'0:13.160',8.07
'0:13.164',9.76
'0:13.168',8.45
'0:13.172',4.8
'0:13.176',0.62
'0:13.180',-2.45
'0:13.184',-4.26
'0:13.188',-4.78
'0:13.191',-4.12
'0:13.195',-3.25
'0:13.199',-2.72
'0:13.203',-2.43
'0:13.207',-2.08
'0:13.211',-1.56
'0:13.215',-0.89
'0:13.219',-0.7
'0:13.223',-0.3
'0:13.227',0.2
'0:13.230',0.52
'0:13.234',0.69
'0:13.238',0.7
'0:13.242',0.59
'0:13.246',0.86
'0:13.250',1
'0:13.254',0.94
'0:13.258',1.24
'0:13.262',1.9
'0:13.266',2.32
'0:13.270',2.29
'0:13.273',2.27
'0:13.277',2.51
'0:13.281',3.38
'0:13.285',4.29
'0:13.289',4.55
'0:13.293',4.16
'0:13.297',3.8
'0:13.301',3.39
'0:13.305',3.21
'0:13.309',2.97
'0:13.313',2.4
'0:13.316',1.9
'0:13.320',1.66
'0:13.324',1.51
'0:13.328',1.27
'0:13.332',1.15
'0:13.336',1.01
'0:13.340',0.68
'0:13.344',0.27
'0:13.348',0.08
'0:13.352',0.23
'0:13.355',0.45
'0:13.359',0.05
'0:13.363',0.02
'0:13.367',0.62
'0:13.371',1.06
'0:13.375',1.3
'0:13.379',1.63
'0:13.383',1.9
'0:13.387',1.66
'0:13.391',1.58
'0:13.395',1.46
'0:13.398',1.35
'0:13.402',1.36
'0:13.406',0.62
'0:13.410',-0.35
'0:13.414',-0.76
'0:13.418',-0.67
'0:13.422',-0.66
'0:13.426',-1.03
'0:13.430',-1.82
'0:13.434',-2.59
'0:13.438',-2.67
'0:13.441',-2.31
'0:13.445',-2.22
'0:13.449',-2.58
'0:13.453',-2.97
'0:13.457',-3.09
'0:13.461',-3
'0:13.465',-2.98
'0:13.469',-3.19
'0:13.473',-3.43
'0:13.477',-3.69
'0:13.480',-4.43
'0:13.484',-5.17
'0:13.488',-4.95
'0:13.492',-3.22
'0:13.496',-0.06
'0:13.500',4.13
'0:13.504',8.05
'0:13.508',9.14
'0:13.512',7.41
'0:13.516',3.52
'0:13.520',-0.95
'0:13.523',-4.41
'0:13.527',-6.49
'0:13.531',-7.15
'0:13.535',-6.67
'0:13.539',-5.76
'0:13.543',-5.02
'0:13.547',-4.37
'0:13.551',-3.79
'0:13.555',-3.23
'0:13.559',-2.76
'0:13.563',-2.5
'0:13.566',-2.03
'0:13.570',-1.51
'0:13.574',-0.97
'0:13.578',-0.6
'0:13.582',-0.43
'0:13.586',-0.45
'0:13.590',-0.26
'0:13.594',-0.15
'0:13.598',-0.16
'0:13.602',0.09
'0:13.605',0.52
'0:13.609',0.89
'0:13.613',1.05
'0:13.617',1.15
'0:13.621',1.35
'0:13.625',1.94
'0:13.629',2.47
'0:13.633',2.89
'0:13.637',3.21
'0:13.641',3.37
'0:13.645',3.29
'0:13.648',2.99
'0:13.652',2.65
'0:13.656',2.21
'0:13.660',1.91
'0:13.664',1.7
'0:13.668',1.27
'0:13.672',0.76
'0:13.676',0.29
'0:13.680',-0.04
'0:13.684',-0.29
'0:13.688',-0.53
'0:13.691',-0.51
'0:13.695',-0.38
'0:13.699',-0.13
'0:13.703',0.09
'0:13.707',0.42
'0:13.711',0.89
'0:13.715',1.11
'0:13.719',1.2
'0:13.723',1.42
'0:13.727',1.69
'0:13.730',1.81
'0:13.734',1.86
'0:13.738',1.91
'0:13.742',1.74
'0:13.746',1.35
'0:13.750',0.82
'0:13.754',0.45
'0:13.758',0.06
'0:13.762',-0.41
'0:13.766',-0.75
'0:13.770',-0.85
'0:13.773',-1.07
'0:13.777',-1.26
'0:13.781',-1.34
'0:13.785',-1.64
'0:13.789',-1.92
'0:13.793',-2.07
'0:13.797',-1.96
'0:13.801',-1.65
'0:13.805',-1.61
'0:13.809',-1.67
'0:13.813',-1.73
'0:13.816',-2.07
'0:13.820',-2.59
'0:13.824',-3.16
'0:13.828',-3.3
'0:13.832',-2.94
'0:13.836',-1.62
'0:13.840',1.08
'0:13.844',4.42
'0:13.848',7.42
'0:13.852',8.47
'0:13.855',7.32
'0:13.859',4.33
'0:13.863',0.84
'0:13.867',-1.84
'0:13.871',-3.27
'0:13.875',-3.78
'0:13.879',-3.54
'0:13.883',-2.73
'0:13.887',-1.88
'0:13.891',-1.19
'0:13.895',-0.57
'0:13.898',-0.12
'0:13.902',0.42
'0:13.906',0.76
'0:13.910',0.92
'0:13.914',1.15
'0:13.918',1.24
'0:13.922',1.14
'0:13.926',1.23
'0:13.930',1.52
'0:13.934',1.89
'0:13.938',2.04
'0:13.941',1.96
'0:13.945',1.97
'0:13.949',2.38
'0:13.953',2.54
'0:13.957',2.53
'0:13.961',2.54
'0:13.965',3.48
'0:13.969',3.91
'0:13.973',4.26
'0:13.977',4.23
'0:13.980',3.9
'0:13.984',3.8
'0:13.988',3.49
'0:13.992',3.23
'0:13.996',2.84
'0:14.000',2.35
'0:14.004',1.91
'0:14.008',1.48
'0:14.012',0.98
'0:14.016',0.85
'0:14.020',0.83
'0:14.023',0.8
'0:14.027',0.32
'0:14.031',0.03
'0:14.035',0.24
'0:14.039',0.75
'0:14.043',1.34
'0:14.047',1.68
'0:14.051',1.64
'0:14.055',1.53
'0:14.059',1.42
'0:14.063',1.61
'0:14.066',1.62
'0:14.070',1.32
'0:14.074',1.04
'0:14.078',0.68
'0:14.082',0.44
'0:14.086',0.26
'0:14.090',-0.08
'0:14.094',-0.39
'0:14.098',-0.81
'0:14.102',-1.05
'0:14.105',-1.34
'0:14.109',-1.71
'0:14.113',-2.02
'0:14.117',-2.07
'0:14.121',-2.12
'0:14.125',-2.42
'0:14.129',-2.68
'0:14.133',-2.67
'0:14.137',-2.45
'0:14.141',-2.4
'0:14.145',-2.43
'0:14.148',-2.41
'0:14.152',-2.36
'0:14.156',-2.8
'0:14.160',-3.8
'0:14.164',-4.59
'0:14.168',-4.82
'0:14.172',-4.06
'0:14.176',-1.86
'0:14.180',1.52
'0:14.184',5.21
'0:14.188',8.06
'0:14.191',8.33
'0:14.195',6.1
'0:14.199',2.48
'0:14.203',-1.08
'0:14.207',-3.63
'0:14.211',-4.88
'0:14.215',-5.02
'0:14.219',-4.38
'0:14.223',-3.46
'0:14.227',-2.71
'0:14.230',-2.07
'0:14.234',-1.74
'0:14.238',-1.53
'0:14.242',-1.31
'0:14.246',-1.27
'0:14.250',-1.21
'0:14.254',-0.97
'0:14.258',-0.71
'0:14.262',-0.47
'0:14.266',-0.31
'0:14.270',-0.07
'0:14.273',0.09
'0:14.277',0.21
'0:14.281',0.52
'0:14.285',0.9
'0:14.289',1.21
'0:14.293',1.56
'0:14.297',1.99
'0:14.301',2.4
'0:14.305',2.74
'0:14.309',2.94
'0:14.313',3.18
'0:14.316',3.22
'0:14.320',2.98
'0:14.324',2.75
'0:14.328',2.7
'0:14.332',2.46
'0:14.336',2.09
'0:14.340',1.67
'0:14.344',1.27
'0:14.348',0.77
'0:14.352',0.41
'0:14.355',0.15
'0:14.359',-0.08
'0:14.363',-0.24
'0:14.367',-0.38
'0:14.371',-0.53
'0:14.375',-0.57
'0:14.379',-0.3
'0:14.383',0.12
'0:14.387',0.33
'0:14.391',0.23
'0:14.395',0.2
'0:14.398',0.32
'0:14.402',0.45
'0:14.406',0.52
'0:14.410',0.61
'0:14.414',0.56
'0:14.418',0.45
'0:14.422',0.36
'0:14.426',0.12
'0:14.430',-0.2
'0:14.434',-0.58
'0:14.438',-0.81
'0:14.441',-0.93
'0:14.445',-1.21
'0:14.449',-1.54
'0:14.453',-1.81
'0:14.457',-2.2
'0:14.461',-2.56
'0:14.465',-2.65
'0:14.469',-2.63
'0:14.473',-2.63
'0:14.477',-2.54
'0:14.480',-2.53
'0:14.484',-2.55
'0:14.488',-2.55
'0:14.492',-2.58
'0:14.496',-2.79
'0:14.500',-3.22
'0:14.504',-3.79
'0:14.508',-4.26
'0:14.512',-4.17
'0:14.516',-3
'0:14.520',-0.14
'0:14.523',3.83
'0:14.527',6.99
'0:14.531',9.43
'0:14.535',6.45
'0:14.539',2.23
'0:14.543',-1.77
'0:14.547',-4.32
'0:14.551',-5.33
'0:14.555',-5.27
'0:14.559',-4.64
'0:14.563',-3.75
'0:14.566',-3.02
'0:14.570',-2.61
'0:14.574',-2.25
'0:14.578',-1.86
'0:14.582',-1.61
'0:14.586',-1.53
'0:14.590',-1.31
'0:14.594',-1.32
'0:14.598',-1.31
'0:14.602',-1.31
'0:14.605',-1.31
'0:14.609',-1.31
'0:14.613',-1.31
'0:14.617',0.35
'0:14.621',0.4
'0:14.625',0.54
'0:14.629',0.8
'0:14.633',1.16
'0:14.637',1.53
'0:14.641',1.92
'0:14.645',2.44
'0:14.648',2.92
'0:14.652',3.27
'0:14.656',3.54
'0:14.660',3.67
'0:14.664',3.63
'0:14.668',3.52
'0:14.672',3.29
'0:14.676',2.86
'0:14.680',2.23
'0:14.684',1.65
'0:14.688',1.18
'0:14.691',0.84
'0:14.695',0.42
'0:14.699',-0.09
'0:14.703',-0.55
'0:14.707',-0.7
'0:14.711',-0.78
'0:14.715',-0.72
'0:14.719',-0.52
'0:14.723',-0.35
'0:14.727',-0.23
'0:14.730',-0.08
'0:14.734',-0.04
'0:14.738',-0.04
'0:14.742',0.01
'0:14.746',-0.06
'0:14.750',-0.18
'0:14.754',-0.23
'0:14.758',-0.32
'0:14.762',-0.64
'0:14.766',-1.01
'0:14.770',-1.34
'0:14.773',-1.58
'0:14.777',-1.75
'0:14.781',-1.97
'0:14.785',-2.33
'0:14.789',-2.81
'0:14.793',-3.17
'0:14.797',-3.41
'0:14.801',-3.53
'0:14.805',-3.61
'0:14.809',-3.72
'0:14.813',-3.77
'0:14.816',-3.67
'0:14.820',-3.63
'0:14.824',-3.7
'0:14.828',-3.9
'0:14.832',-4.1
'0:14.836',-4.37
'0:14.840',-4.83
'0:14.844',-5.15
'0:14.848',-5.31
'0:14.852',-5.17
'0:14.855',-4.27
'0:14.859',-1.58
'0:14.863',2.38
'0:14.867',6.19
'0:14.871',8.04
'0:14.875',6.84
'0:14.879',3.57
'0:14.883',-0.36
'0:14.887',-3.91
'0:14.891',-6.14
'0:14.895',-6.94
'0:14.898',-6.68
'0:14.902',-6.08
'0:14.906',-5.3
'0:14.910',-4.59
'0:14.914',-3.98
'0:14.918',-3.33
'0:14.922',-2.68
'0:14.926',-2.14
'0:14.930',-1.89
'0:14.934',-1.76
'0:14.938',-1.49
'0:14.941',-0.96
'0:14.945',-0.42
'0:14.949',-0.37
'0:14.953',-0.55
'0:14.957',-0.47
'0:14.961',-0.2
'0:14.965',0.16
'0:14.969',0.51
'0:14.973',0.82
'0:14.977',1.14
'0:14.980',1.64
'0:14.984',2.62
'0:14.988',3.13
'0:14.992',3.2
'0:14.996',3.52
'0:15.000',3.82
'0:15.004',3.6
'0:15.008',3.11
'0:15.012',2.83
'0:15.016',2.59
'0:15.020',2.12
'0:15.023',1.5
'0:15.027',1.06
'0:15.031',0.89
'0:15.035',0.7
'0:15.039',0.76
'0:15.043',0.69
'0:15.047',0.46
'0:15.051',0.24
'0:15.055',-0.02
'0:15.059',-0.04
'0:15.063',0.18
'0:15.066',0.33
'0:15.070',0.43
'0:15.074',0.49
'0:15.078',0.57
'0:15.082',0.59
'0:15.086',0.58
'0:15.090',1.1
'0:15.094',1.82
'0:15.098',1.78
'0:15.102',1.54
'0:15.105',1.56
'0:15.109',1.5
'0:15.113',1.24
'0:15.117',0.56
'0:15.121',0.14
'0:15.125',-0.31
'0:15.129',-0.7
'0:15.133',-0.88
'0:15.137',-0.92
'0:15.141',-0.96
'0:15.145',-1.51
'0:15.148',-1.71
'0:15.152',-1.4
'0:15.156',-1.51
'0:15.160',-1.74
'0:15.164',-1.71
'0:15.168',-2.04
'0:15.172',-2.22
'0:15.176',-1.62
'0:15.180',-1.55
'0:15.184',-2.4
'0:15.188',-3.61
'0:15.191',-4.28
'0:15.195',-3.66
'0:15.199',-1.9
'0:15.203',1.14
'0:15.207',4.91
'0:15.211',8.42
'0:15.215',9.47
'0:15.219',7.6
'0:15.223',4.29
'0:15.227',0.51
'0:15.230',-2.67
'0:15.234',-4.67
'0:15.238',-5.22
'0:15.242',-4.73
'0:15.246',-4.18
'0:15.250',-3.79
'0:15.254',-3.09
'0:15.258',-2.19
'0:15.262',-1.59
'0:15.266',-1.07
'0:15.270',-0.32
'0:15.273',-0.22
'0:15.277',-0.42
'0:15.281',-0.42
'0:15.285',-0.04
'0:15.289',0.16
'0:15.293',0.45
'0:15.297',0.52
'0:15.301',0.44
'0:15.305',0.38
'0:15.309',0.56
'0:15.313',1
'0:15.316',1.55
'0:15.320',2.2
'0:15.324',2.71
'0:15.328',2.66
'0:15.332',2.64
'0:15.336',3.05
'0:15.340',3.58
'0:15.344',3.87
'0:15.348',3.54
'0:15.352',2.92
'0:15.355',2.76
'0:15.359',2.7
'0:15.363',2.32
'0:15.367',1.78
'0:15.371',1.32
'0:15.375',0.94
'0:15.379',0.66
'0:15.383',0.41
'0:15.387',0.34
'0:15.391',0.32
'0:15.395',0.05
'0:15.398',-0.11
'0:15.402',-0.21
'0:15.406',-0.07
'0:15.410',0.24
'0:15.414',0.54
'0:15.418',0.71
'0:15.422',0.69
'0:15.426',0.74
'0:15.430',1
'0:15.434',1.21
'0:15.438',1.25
'0:15.441',1.23
'0:15.445',1.25
'0:15.449',1.14
'0:15.453',0.82
'0:15.457',0.35
'0:15.461',0.05
'0:15.465',-0.25
'0:15.469',-0.56
'0:15.473',-0.76
'0:15.477',-0.94
'0:15.480',-1.26
'0:15.484',-1.51
'0:15.488',-1.6
'0:15.492',-1.58
'0:15.496',-1.48
'0:15.500',-1.43
'0:15.504',-1.48
'0:15.508',-1.61
'0:15.512',-1.61
'0:15.516',-1.5
'0:15.520',-1.43
'0:15.523',-1.72
'0:15.527',-2.64
'0:15.531',-3.57
'0:15.535',-3.84
'0:15.539',-3.19
'0:15.543',-1.12
'0:15.547',2.35
'0:15.551',6.19
'0:15.555',9.32
'0:15.559',9.85
'0:15.563',7.76
'0:15.566',3.97
'0:15.570',0.16
'0:15.574',-2.43
'0:15.578',-3.69
'0:15.582',-3.99
'0:15.586',-3.7
'0:15.590',-3.1
'0:15.594',-2.36
'0:15.598',-1.73
'0:15.602',-1.1
'0:15.605',-0.49
'0:15.609',-0.18
'0:15.613',-0.12
'0:15.617',-0.04
'0:15.621',0.02
'0:15.625',0.11
'0:15.629',0.34
'0:15.633',0.68
'0:15.637',1.05
'0:15.641',1.24
'0:15.645',1.37
'0:15.648',1.44
'0:15.652',1.62
'0:15.656',2
'0:15.660',2.29
'0:15.664',2.45
'0:15.668',2.69
'0:15.672',3.09
'0:15.676',3.48
'0:15.680',3.58
'0:15.684',3.34
'0:15.688',3.15
'0:15.691',3.1
'0:15.695',2.97
'0:15.699',2.78
'0:15.703',2.51
'0:15.707',2.36
'0:15.711',2.14
'0:15.715',1.9
'0:15.719',1.57
'0:15.723',1.25
'0:15.727',0.96
'0:15.730',0.86
'0:15.734',0.83
'0:15.738',0.69
'0:15.742',0.7
'0:15.746',0.87
'0:15.750',1.19
'0:15.754',1.63
'0:15.758',1.63
'0:15.762',1.52
'0:15.766',1.72
'0:15.770',1.86
'0:15.773',1.95
'0:15.777',1.81
'0:15.781',1.76
'0:15.785',1.68
'0:15.789',1.46
'0:15.793',1.35
'0:15.797',1.46
'0:15.801',1.42
'0:15.805',0.86
'0:15.809',-0.09
'0:15.813',-0.79
'0:15.816',-1.25
'0:15.820',-1.3
'0:15.824',-1.24
'0:15.828',-1.31
'0:15.832',-1.36
'0:15.836',-1.46
'0:15.840',-1.48
'0:15.844',-1.42
'0:15.848',-1.36
'0:15.852',-1.28
'0:15.855',-1.24
'0:15.859',-1.33
'0:15.863',-1.96
'0:15.867',-3.08
'0:15.871',-3.88
'0:15.875',-3.89
'0:15.879',-2.71
'0:15.883',0.19
'0:15.887',4.31
'0:15.891',8.25
'0:15.895',10.73
'0:15.898',9.86
'0:15.902',6.3
'0:15.906',1.82
'0:15.910',-2.02
'0:15.914',-4.26
'0:15.918',-4.99
'0:15.922',-4.82
'0:15.926',-4.15
'0:15.930',-3.2
'0:15.934',-2.67
'0:15.938',-2.21
'0:15.941',-1.75
'0:15.945',-1.56
'0:15.949',-1.4
'0:15.953',-1.14
'0:15.957',-0.96
'0:15.961',-0.87
'0:15.965',-0.92
'0:15.969',-0.84
'0:15.973',-0.72
'0:15.977',-0.65
'0:15.980',-0.45
'0:15.984',-0.25
'0:15.988',-0.12
'0:15.992',0.07
'0:15.996',0.43
'0:16.000',0.86
'0:16.004',1.53
'0:16.008',2.12
'0:16.012',2.44
'0:16.016',2.8
'0:16.020',2.99
'0:16.023',2.99
'0:16.027',2.73
'0:16.031',2.64
'0:16.035',2.53
'0:16.039',2.17
'0:16.043',1.47
'0:16.047',1.01
'0:16.051',0.65
'0:16.055',0.49
'0:16.059',0.23
'0:16.063',-0.22
'0:16.066',-0.53
'0:16.070',-0.78
'0:16.074',-0.81
'0:16.078',-0.73
'0:16.082',-0.68
'0:16.086',-0.83
'0:16.090',-0.9
'0:16.094',-0.77
'0:16.098',-0.54
'0:16.102',-0.41
'0:16.105',-0.54
'0:16.109',-0.59
'0:16.113',-0.51
'0:16.117',-0.16
'0:16.121',-0.05
'0:16.125',-0.07
'0:16.129',-0.53
'0:16.133',-1.01
'0:16.137',-1.21
'0:16.141',-1.22
'0:16.145',-1.21
'0:16.148',-1.51
'0:16.152',-2.07
'0:16.156',-2.53
'0:16.160',-2.94
'0:16.164',-3.48
'0:16.168',-3.63
'0:16.172',-3.87
'0:16.176',-3.66
'0:16.180',-3.31
'0:16.184',-2.98
'0:16.188',-2.49
'0:16.191',-2.18
'0:16.195',-2.16
'0:16.199',-2.33
'0:16.203',-2.66
'0:16.207',-2.8
'0:16.211',-3.32
'0:16.215',-3.54
'0:16.219',-3.05
'0:16.223',-1.52
'0:16.227',1.55
'0:16.230',5.06
'0:16.234',8.17
'0:16.238',9.78
'0:16.242',8.56
'0:16.246',5.04
'0:16.250',1.06
'0:16.254',-2.3
'0:16.258',-4.36
'0:16.262',-4.68
'0:16.266',-4.19
'0:16.270',-4.16
'0:16.273',-3.99
'0:16.277',-3.32
'0:16.281',-2.6
'0:16.285',-2.17
'0:16.289',-1.87
'0:16.293',-1.62
'0:16.297',-1.22
'0:16.301',-0.84
'0:16.305',-0.73
'0:16.309',-0.67
'0:16.313',-0.32
'0:16.316',-0.07
'0:16.320',-0.05
'0:16.324',-0.15
'0:16.328',-0.17
'0:16.332',0.09
'0:16.336',0.51
'0:16.340',0.92
'0:16.344',1.39
'0:16.348',1.7
'0:16.352',1.89
'0:16.355',2.15
'0:16.359',2.44
'0:16.363',2.9
'0:16.367',3.15
'0:16.371',2.95
'0:16.375',2.5
'0:16.379',2.3
'0:16.383',2.02
'0:16.387',1.51
'0:16.391',1.06
'0:16.395',0.76
'0:16.398',0.43
'0:16.402',0.11
'0:16.406',-0.26
'0:16.410',-0.55
'0:16.414',-0.83
'0:16.418',-0.98
'0:16.422',-1.11
'0:16.426',-1.08
'0:16.430',-0.91
'0:16.434',-0.67
'0:16.438',-0.58
'0:16.441',-0.6
'0:16.445',-0.64
'0:16.449',-0.63
'0:16.453',-0.67
'0:16.457',-0.75
'0:16.461',-0.75
'0:16.465',-0.75
'0:16.469',-1.04
'0:16.473',-1.45
'0:16.477',-1.75
'0:16.480',-2.03
'0:16.484',-2.22
'0:16.488',-2.39
'0:16.492',-2.68
'0:16.496',-3.06
'0:16.500',-3.48
'0:16.504',-3.79
'0:16.508',-4.1
'0:16.512',-4.21
'0:16.516',-4.27
'0:16.520',-4.36
'0:16.523',-4.31
'0:16.527',-4.27
'0:16.531',-4.23
'0:16.535',-4.16
'0:16.539',-4.16
'0:16.543',-4.14
'0:16.547',-4.46
'0:16.551',-5.14
'0:16.555',-5.68
'0:16.559',-5.74
'0:16.563',-4.93
'0:16.566',-2.61
'0:16.570',1.05
'0:16.574',4.92
'0:16.578',7.51
'0:16.582',7.24
'0:16.586',5.3
'0:16.590',-0.05
'0:16.594',-5.39
'0:16.598',-6.66
'0:16.602',-6.83
'0:16.605',-6.31
'0:16.609',-5.34
'0:16.613',-4.32
'0:16.617',-3.45
'0:16.621',-2.59
'0:16.625',-1.99
'0:16.629',-1.56
'0:16.633',-1.23
'0:16.637',-0.93
'0:16.641',-0.76
'0:16.645',-0.75
'0:16.648',-0.65
'0:16.652',-0.41
'0:16.656',-0.07
'0:16.660',0.14
'0:16.664',0.41
'0:16.668',0.8
'0:16.672',1.11
'0:16.676',1.44
'0:16.680',1.79
'0:16.684',2.05
'0:16.688',2.32
'0:16.691',2.57
'0:16.695',2.93
'0:16.699',3.41
'0:16.703',3.9
'0:16.707',3.97
'0:16.711',3.51
'0:16.715',2.88
'0:16.719',2.37
'0:16.723',2.22
'0:16.727',2.2
'0:16.730',2.03
'0:16.734',1.58
'0:16.738',1.24
'0:16.742',0.98
'0:16.746',0.63
'0:16.750',0.3
'0:16.754',0.18
'0:16.758',0.28
'0:16.762',0.52
'0:16.766',0.69
'0:16.770',0.74
'0:16.773',0.77
'0:16.777',1
'0:16.781',1.07
'0:16.785',1.19
'0:16.789',1.58
'0:16.793',1.86
'0:16.797',1.95
'0:16.801',2.01
'0:16.805',2.18
'0:16.809',1.98
'0:16.813',1.39
'0:16.816',0.95
'0:16.820',0.81
'0:16.824',0.62
'0:16.828',0.3
'0:16.832',-0.11
'0:16.836',-0.45
'0:16.840',-0.74
'0:16.844',-0.93
'0:16.848',-1.2
'0:16.852',-1.36
'0:16.855',-1.49
'0:16.859',-1.8
'0:16.863',-2.02
'0:16.867',-2.19
'0:16.871',-1.95
'0:16.875',-1.51
'0:16.879',-1.34
'0:16.883',-1.69
'0:16.887',-2.47
'0:16.891',-3.3
'0:16.895',-3.68
'0:16.898',-3.55
'0:16.902',-2.25
'0:16.906',0.56
'0:16.910',4.1
'0:16.914',7.57
'0:16.918',9.35
'0:16.922',8.28
'0:16.926',4.97
'0:16.930',1.14
'0:16.934',-2.15
'0:16.938',-4.08
'0:16.941',-4.74
'0:16.945',-4.57
'0:16.949',-4.03
'0:16.953',-3.63
'0:16.957',-3.15
'0:16.961',-2.43
'0:16.965',-1.88
'0:16.969',-1.29
'0:16.973',-0.71
'0:16.977',-0.53
'0:16.980',-0.74
'0:16.984',-0.61
'0:16.988',-0.04
'0:16.992',0.43
'0:16.996',0.66
'0:17.000',0.52
'0:17.004',0.21
'0:17.008',0.14
'0:17.012',0.46
'0:17.016',0.79
'0:17.020',1.16
'0:17.023',1.76
'0:17.027',2.09
'0:17.031',2.26
'0:17.035',2.66
'0:17.039',3.06
'0:17.043',3.16
'0:17.047',2.99
'0:17.051',2.95
'0:17.055',3.11
'0:17.059',3.01
'0:17.063',2.42
'0:17.066',1.89
'0:17.070',1.55
'0:17.074',1.46
'0:17.078',1.31
'0:17.082',1.03
'0:17.086',0.68
'0:17.090',0.54
'0:17.094',0.36
'0:17.098',0.08
'0:17.102',-0.07
'0:17.105',-0.03
'0:17.109',0.18
'0:17.113',0.37
'0:17.117',0.61
'0:17.121',0.58
'0:17.125',0.51
'0:17.129',0.68
'0:17.133',1.19
'0:17.137',1.44
'0:17.141',1.25
'0:17.145',1.04
'0:17.148',0.98
'0:17.152',0.99
'0:17.156',0.83
'0:17.160',0.82
'0:17.164',0.45
'0:17.168',-0.01
'0:17.172',-0.37
'0:17.176',-0.96
'0:17.180',-1.18
'0:17.184',-1.5
'0:17.188',-1.71
'0:17.191',-1.98
'0:17.195',-1.97
'0:17.199',-1.95
'0:17.203',-1.93
'0:17.207',-1.63
'0:17.211',-1.17
'0:17.215',-1.15
'0:17.219',-1.37
'0:17.223',-1.6
'0:17.227',-2.06
'0:17.230',-2.86
'0:17.234',-3.5
'0:17.238',-3.56
'0:17.242',-2.48
'0:17.246',0.07
'0:17.250',3.43
'0:17.254',7.26
'0:17.258',9.9
'0:17.262',9.64
'0:17.266',6.88
'0:17.270',2.8
'0:17.273',-0.98
'0:17.277',-3.37
'0:17.281',-4.18
'0:17.285',-4.21
'0:17.289',-3.81
'0:17.293',-3.3
'0:17.297',-2.74
'0:17.301',-2.19
'0:17.305',-1.45
'0:17.309',-0.66
'0:17.313',-0.06
'0:17.316',0.52
'0:17.320',0.95
'0:17.324',1.23
'0:17.328',1.11
'0:17.332',0.63
'0:17.336',0.59
'0:17.340',0.72
'0:17.344',1
'0:17.348',0.89
'0:17.352',0.91
'0:17.355',1.35
'0:17.359',1.83
'0:17.363',2.24
'0:17.367',2.57
'0:17.371',2.76
'0:17.375',3.07
'0:17.379',3.37
'0:17.383',3.73
'0:17.387',3.91
'0:17.391',3.87
'0:17.395',3.14
'0:17.398',2.69
'0:17.402',2.43
'0:17.406',2.24
'0:17.410',2.22
'0:17.414',2.1
'0:17.418',1.67
'0:17.422',1.19
'0:17.426',0.67
'0:17.430',0.33
'0:17.434',0
'0:17.438',0.02
'0:17.441',0.19
'0:17.445',0.23
'0:17.449',0.22
'0:17.453',0.42
'0:17.457',0.65
'0:17.461',0.84
'0:17.465',1.04
'0:17.469',1.33
'0:17.473',1.55
'0:17.477',1.55
'0:17.480',1.31
'0:17.484',1.25
'0:17.488',1.35
'0:17.492',1.17
'0:17.496',0.58
'0:17.500',0.28
'0:17.504',0.25
'0:17.508',0.04
'0:17.512',-0.51
'0:17.516',-1.08
'0:17.520',-1.47
'0:17.523',-1.77
'0:17.527',-2.21
'0:17.531',-2.32
'0:17.535',-2.23
'0:17.539',-2.17
'0:17.543',-2.18
'0:17.547',-2.13
'0:17.551',-1.86
'0:17.555',-1.66
'0:17.559',-1.55
'0:17.563',-1.65
'0:17.566',-2.27
'0:17.570',-3.28
'0:17.574',-4.07
'0:17.578',-4.12
'0:17.582',-3.08
'0:17.586',-0.35
'0:17.590',3.42
'0:17.594',7.09
'0:17.598',9.21
'0:17.602',8.58
'0:17.605',5.77
'0:17.609',1.93
'0:17.613',-1.47
'0:17.617',-3.56
'0:17.621',-4.39
'0:17.625',-4.26
'0:17.629',-3.71
'0:17.633',-2.98
'0:17.637',-2.4
'0:17.641',-1.87
'0:17.645',-1.34
'0:17.648',-0.99
'0:17.652',-0.74
'0:17.656',-0.5
'0:17.660',-0.36
'0:17.664',-0.36
'0:17.668',-0.28
'0:17.672',-0.13
'0:17.676',0.11
'0:17.680',0.28
'0:17.684',0.42
'0:17.688',0.62
'0:17.691',0.8
'0:17.695',1.01
'0:17.699',1.21
'0:17.703',1.47
'0:17.707',1.8
'0:17.711',2.19
'0:17.715',2.47
'0:17.719',2.67
'0:17.723',2.84
'0:17.727',3.03
'0:17.730',3.19
'0:17.734',3.2
'0:17.738',3.05
'0:17.742',2.77
'0:17.746',2.42
'0:17.750',2.01
'0:17.754',1.64
'0:17.758',1.23
'0:17.762',0.77
'0:17.766',0.39
'0:17.770',0.28
'0:17.773',0.18
'0:17.777',0.05
'0:17.781',-0.02
'0:17.785',0.03
'0:17.789',0.14
'0:17.793',0.4
'0:17.797',0.66
'0:17.801',0.74
'0:17.805',0.59
'0:17.809',0.61
'0:17.813',0.75
'0:17.816',0.76
'0:17.820',0.7
'0:17.824',0.46
'0:17.828',0.27
'0:17.832',0.07
'0:17.836',-0.33
'0:17.840',-0.69
'0:17.844',-0.98
'0:17.848',-1.31
'0:17.852',-1.7
'0:17.855',-1.95
'0:17.859',-2.2
'0:17.863',-2.3
'0:17.867',-2.37
'0:17.871',-2.4
'0:17.875',-2.62
'0:17.879',-2.8
'0:17.883',-2.85
'0:17.887',-2.77
'0:17.891',-2.69
'0:17.895',-2.47
'0:17.898',-2.42
'0:17.902',-2.73
'0:17.906',-3.51
'0:17.910',-4.36
'0:17.914',-4.71
'0:17.918',-4.15
'0:17.922',-2.18
'0:17.926',1.5
'0:17.930',5.65
'0:17.934',9.05
'0:17.938',9.9
'0:17.941',7.71
'0:17.945',3.7
'0:17.949',-0.46
'0:17.953',-3.53
'0:17.957',-5.01
'0:17.961',-5.3
'0:17.965',-4.99
'0:17.969',-4.29
'0:17.973',-3.49
'0:17.977',-2.77
'0:17.980',-2.29
'0:17.984',-2.26
'0:17.988',-2.26
'0:17.992',-2.26
'0:17.996',-2.26
'0:18.000',-2.26
'0:18.004',-2.26
'0:18.008',-2.26
'0:18.012',-0.69
'0:18.016',-0.15
'0:18.020',-0.02
'0:18.023',0.04
'0:18.027',0.09
'0:18.031',0.22
'0:18.035',0.48
'0:18.039',0.76
'0:18.043',1.07
'0:18.047',1.48
'0:18.051',2.03
'0:18.055',2.57
'0:18.059',2.91
'0:18.063',3.19
'0:18.066',3.38
'0:18.070',3.3
'0:18.074',3.11
'0:18.078',2.86
'0:18.082',2.51
'0:18.086',1.93
'0:18.090',1.33
'0:18.094',0.86
'0:18.098',0.47
'0:18.102',0.06
'0:18.105',-0.36
'0:18.109',-0.64
'0:18.113',-0.7
'0:18.117',-0.67
'0:18.121',-0.58
'0:18.125',-0.42
'0:18.129',-0.17
'0:18.133',0.15
'0:18.137',0.33
'0:18.141',0.4
'0:18.145',0.4
'0:18.148',0.44
'0:18.152',0.4
'0:18.156',0.4
'0:18.160',0.25
'0:18.164',-0.05
'0:18.168',-0.32
'0:18.172',-0.52
'0:18.176',-0.73
'0:18.180',-1.02
'0:18.184',-1.32
'0:18.188',-1.71
'0:18.191',-2.19
'0:18.195',-2.54
'0:18.199',-2.65
'0:18.203',-2.7
'0:18.207',-2.8
'0:18.211',-3.03
'0:18.215',-3.2
'0:18.219',-3.32
'0:18.223',-3.47
'0:18.227',-3.57
'0:18.230',-3.5
'0:18.234',-3.33
'0:18.238',-3.19
'0:18.242',-3.38
'0:18.246',-3.91
'0:18.250',-4.53
'0:18.254',-5.01
'0:18.258',-4.78
'0:18.262',-3.36
'0:18.266',-0.5
'0:18.270',3.12
'0:18.273',6.45
'0:18.277',8.05
'0:18.281',6.8
'0:18.285',3.43
'0:18.289',-0.72
'0:18.293',-4.2
'0:18.297',-6.32
'0:18.301',-6.98
'0:18.305',-6.67
'0:18.309',-5.82
'0:18.313',-4.88
'0:18.316',-4.16
'0:18.320',-3.77
'0:18.324',-3.44
'0:18.328',-2.97
'0:18.332',-2.58
'0:18.336',-2.41
'0:18.340',-2.23
'0:18.344',-2.05
'0:18.348',-1.91
'0:18.352',-1.66
'0:18.355',-1.37
'0:18.359',-1.31
'0:18.363',-1.31
'0:18.367',-1.31
'0:18.371',-1.31
'0:18.375',0.15
'0:18.379',0.7
'0:18.383',0.91
'0:18.387',1.22
'0:18.391',1.37
'0:18.395',1.4
'0:18.398',1.61
'0:18.402',1.97
'0:18.406',2.12
'0:18.410',2.03
'0:18.414',1.9
'0:18.418',1.52
'0:18.422',1.08
'0:18.426',1.04
'0:18.430',1.29
'0:18.434',0.83
'0:18.438',-0.08
'0:18.441',-0.58
'0:18.445',-0.81
'0:18.449',-0.89
'0:18.453',-0.74
'0:18.457',-0.54
'0:18.461',-0.31
'0:18.465',-0.15
'0:18.469',0.18
'0:18.473',0.25
'0:18.477',0.27
'0:18.480',0.39
'0:18.484',0.43
'0:18.488',0.8
'0:18.492',1.25
'0:18.496',1.35
'0:18.500',1.05
'0:18.504',0.79
'0:18.508',0.7
'0:18.512',0.58
'0:18.516',0.23
'0:18.520',-0.13
'0:18.523',-0.21
'0:18.527',-0.45
'0:18.531',-0.79
'0:18.535',-1.18
'0:18.539',-1.55
'0:18.543',-1.76
'0:18.547',-1.82
'0:18.551',-2.04
'0:18.555',-2.43
'0:18.559',-2.58
'0:18.563',-2.5
'0:18.566',-2.44
'0:18.570',-2.3
'0:18.574',-2.15
'0:18.578',-2.07
'0:18.582',-2.29
'0:18.586',-2.87
'0:18.590',-3.5
'0:18.594',-3.78
'0:18.598',-3.58
'0:18.602',-1.79
'0:18.605',1.77
'0:18.609',5.81
'0:18.613',9.08
'0:18.617',9.8
'0:18.621',7.65
'0:18.625',3.57
'0:18.629',-0.69
'0:18.633',-3.36
'0:18.637',-4.57
'0:18.641',-4.78
'0:18.645',-4.33
'0:18.648',-3.55
'0:18.652',-2.62
'0:18.656',-1.89
'0:18.660',-1.22
'0:18.664',-0.52
'0:18.668',-0.26
'0:18.672',-0.22
'0:18.676',-0.08
'0:18.680',0.11
'0:18.684',0.1
'0:18.688',0.23
'0:18.691',0.51
'0:18.695',0.91
'0:18.699',1.3
'0:18.703',1.39
'0:18.707',1.44
'0:18.711',1.47
'0:18.715',1.54
'0:18.719',1.74
'0:18.723',2
'0:18.727',2.28
'0:18.730',2.76
'0:18.734',3.24
'0:18.738',3.52
'0:18.742',3.62
'0:18.746',3.44
'0:18.750',3.26
'0:18.754',3.15
'0:18.758',3.04
'0:18.762',2.97
'0:18.766',2.69
'0:18.770',2.11
'0:18.773',1.64
'0:18.777',1.49
'0:18.781',1
'0:18.785',0.7
'0:18.789',0.34
'0:18.793',0.15
'0:18.797',0.32
'0:18.801',0.49
'0:18.805',0.49
'0:18.809',0.58
'0:18.813',0.83
'0:18.816',1.18
'0:18.820',1.39
'0:18.824',1.37
'0:18.828',1.45
'0:18.832',1.7
'0:18.836',1.9
'0:18.840',1.91
'0:18.844',1.77
'0:18.848',1.6
'0:18.852',1.39
'0:18.855',0.98
'0:18.859',0.57
'0:18.863',0.14
'0:18.867',-0.31
'0:18.871',-0.59
'0:18.875',-0.71
'0:18.879',-0.92
'0:18.883',-1.31
'0:18.887',-1.66
'0:18.891',-1.89
'0:18.895',-1.96
'0:18.898',-1.92
'0:18.902',-1.81
'0:18.906',-1.68
'0:18.910',-1.72
'0:18.914',-1.76
'0:18.918',-1.77
'0:18.922',-1.99
'0:18.926',-2.64
'0:18.930',-3.47
'0:18.934',-3.86
'0:18.938',-3.41
'0:18.941',-1.55
'0:18.945',1.71
'0:18.949',3.62
'0:18.953',7.24
'0:18.957',7.29
'0:18.961',7.29
'0:18.965',4.46
'0:18.969',0.47
'0:18.973',-2.58
'0:18.977',-4.32
'0:18.980',-4.96
'0:18.984',-4.74
'0:18.988',-4.01
'0:18.992',-3.07
'0:18.996',-2.2
'0:19.000',-1.55
'0:19.004',-1.08
'0:19.008',-0.68
'0:19.012',-0.47
'0:19.016',-0.35
'0:19.020',-0.09
'0:19.023',0.22
'0:19.027',0.45
'0:19.031',0.54
'0:19.035',0.76
'0:19.039',1.04
'0:19.043',1.23
'0:19.047',1.38
'0:19.051',1.52
'0:19.055',1.56
'0:19.059',1.56
'0:19.063',1.62
'0:19.066',1.97
'0:19.070',2.41
'0:19.074',2.78
'0:19.078',3.1
'0:19.082',3.27
'0:19.086',3.11
'0:19.090',2.94
'0:19.094',2.78
'0:19.098',2.69
'0:19.102',2.48
'0:19.105',2.12
'0:19.109',1.79
'0:19.113',1.42
'0:19.117',0.97
'0:19.121',0.54
'0:19.125',0.27
'0:19.129',0.06
'0:19.133',-0.14
'0:19.137',-0.13
'0:19.141',-0.02
'0:19.145',0.1
'0:19.148',0.4
'0:19.152',0.75
'0:19.156',0.96
'0:19.160',1.18
'0:19.164',1.4
'0:19.168',1.51
'0:19.172',1.51
'0:19.176',1.45
'0:19.180',1.2
'0:19.184',0.83
'0:19.188',0.47
'0:19.191',0.26
'0:19.195',0.09
'0:19.199',-0.17
'0:19.203',-0.53
'0:19.207',-0.94
'0:19.211',-1.25
'0:19.215',-1.42
'0:19.219',-1.59
'0:19.223',-1.78
'0:19.227',-1.92
'0:19.230',-2.1
'0:19.234',-2.24
'0:19.238',-2.24
'0:19.242',-2.31
'0:19.246',-2.2
'0:19.250',-2.04
'0:19.254',-2.04
'0:19.258',-2.36
'0:19.262',-3.24
'0:19.266',-4.2
'0:19.270',-4.78
'0:19.273',-4.43
'0:19.277',-2.46
'0:19.281',1.16
'0:19.285',5.08
'0:19.289',8.43
'0:19.293',9.48
'0:19.297',7.7
'0:19.301',3.78
'0:19.305',-0.45
'0:19.309',-3.57
'0:19.313',-5.13
'0:19.316',-5.37
'0:19.320',-4.8
'0:19.324',-3.91
'0:19.328',-3.11
'0:19.332',-2.61
'0:19.336',-2.21
'0:19.340',-2.03
'0:19.344',-1.86
'0:19.348',-1.57
'0:19.352',-1.29
'0:19.355',-1.32
'0:19.359',-1.34
'0:19.363',-1.16
'0:19.367',-0.99
'0:19.371',-0.79
'0:19.375',-0.57
'0:19.379',-0.3
'0:19.383',0.06
'0:19.387',0.29
'0:19.391',0.42
'0:19.395',0.5
'0:19.398',0.89
'0:19.402',1.41
'0:19.406',1.71
'0:19.410',1.96
'0:19.414',2.11
'0:19.418',2.31
'0:19.422',2.49
'0:19.426',2.43
'0:19.430',2.26
'0:19.434',1.83
'0:19.438',1.45
'0:19.441',0.99
'0:19.445',0.81
'0:19.449',0.74
'0:19.453',0.58
'0:19.457',0.34
'0:19.461',0.23
'0:19.465',0.39
'0:19.469',0.09
'0:19.473',-0.36
'0:19.477',-0.58
'0:19.480',-0.57
'0:19.484',-0.34
'0:19.488',0.15
'0:19.492',0.64
'0:19.496',0.97
'0:19.500',0.98
'0:19.504',0.87
'0:19.508',0.81
'0:19.512',0.99
'0:19.516',0.86
'0:19.520',0.52
'0:19.523',0.37
'0:19.527',0.54
