'0:00.000',5.95
'0:00.004',6.18
'0:00.008',2.94
'0:00.012',-2.84
'0:00.016',-8.01
'0:00.020',-11.09
'0:00.023',-12.24
'0:00.027',-11.91
'0:00.031',-10.76
'0:00.035',-9.62
'0:00.039',-8.44
'0:00.043',-6.77
'0:00.047',-4.81
'0:00.051',-2.95
'0:00.055',-1.2
'0:00.059',0.11
'0:00.063',1.1
'0:00.066',2.2
'0:00.070',3.15
'0:00.074',3.83
'0:00.078',4.37
'0:00.082',4.68
'0:00.086',4.76
'0:00.090',4.88
'0:00.094',4.77
'0:00.098',4.41
'0:00.102',4.51
'0:00.105',4.84
'0:00.109',4.99
'0:00.113',4.82
'0:00.117',4.64
'0:00.121',4.76
'0:00.125',5.26
'0:00.129',5.56
'0:00.133',5.64
'0:00.137',5.73
'0:00.141',5.89
'0:00.145',5.99
'0:00.148',5.82
'0:00.152',5.34
'0:00.156',4.95
'0:00.160',4.67
'0:00.164',4.36
'0:00.168',3.94
'0:00.172',3.29
'0:00.176',2.66
'0:00.180',2.21
'0:00.184',1.77
'0:00.188',1.29
'0:00.191',1.28
'0:00.195',1.57
'0:00.199',1.41
'0:00.203',0.74
'0:00.207',0.04
'0:00.211',-0.43
'0:00.215',-0.49
'0:00.219',-0.73
'0:00.223',-1.22
'0:00.227',-1.71
'0:00.230',-2.04
'0:00.234',-2.44
'0:00.238',-2.87
'0:00.242',-3.29
'0:00.246',-3.39
'0:00.250',-3.51
'0:00.254',-3.65
'0:00.258',-3.36
'0:00.262',-3.19
'0:00.266',-3.25
'0:00.270',-3.27
'0:00.273',-3.45
'0:00.277',-3.3
'0:00.281',-3.09
'0:00.285',-2.82
'0:00.289',-1.91
'0:00.293',-0.75
'0:00.297',1.26
'0:00.301',4.38
'0:00.305',7.53
'0:00.309',10.27
'0:00.313',11.01
'0:00.316',7.66
'0:00.320',0.84
'0:00.324',-5.22
'0:00.328',-8.7
'0:00.332',-10.27
'0:00.336',-10.75
'0:00.340',-10.47
'0:00.344',-10.01
'0:00.348',-9.34
'0:00.352',-7.83
'0:00.355',-6.05
'0:00.359',-4.36
'0:00.363',-2.74
'0:00.367',-1.29
'0:00.371',-0.34
'0:00.375',0.34
'0:00.379',0.91
'0:00.383',1.18
'0:00.387',1.48
'0:00.391',1.92
'0:00.395',2.37
'0:00.398',2.73
'0:00.402',3.12
'0:00.406',3.09
'0:00.410',2.68
'0:00.414',2.66
'0:00.418',2.73
'0:00.422',2.84
'0:00.426',3.12
'0:00.430',3.34
'0:00.434',3.49
'0:00.438',3.6
'0:00.441',3.45
'0:00.445',3.41
'0:00.449',3.34
'0:00.453',3.09
'0:00.457',2.94
'0:00.461',2.85
'0:00.465',2.85
'0:00.469',2.82
'0:00.473',2.8
'0:00.477',2.53
'0:00.480',2.08
'0:00.484',1.76
'0:00.488',1.57
'0:00.492',1.31
'0:00.496',1.04
'0:00.500',0.81
'0:00.504',0.57
'0:00.508',0.17
'0:00.512',-0.15
'0:00.516',-0.39
'0:00.520',-0.51
'0:00.523',-0.84
'0:00.527',-1.4
'0:00.531',-1.65
'0:00.535',-1.78
'0:00.539',-2.13
'0:00.543',-2.66
'0:00.547',-3.12
'0:00.551',-3.41
'0:00.555',-3.51
'0:00.559',-3.73
'0:00.563',-4.01
'0:00.566',-4.13
'0:00.570',-4.08
'0:00.574',-4.02
'0:00.578',-4.22
'0:00.582',-4.46
'0:00.586',-4.62
'0:00.590',-4.67
'0:00.594',-4.35
'0:00.598',-3.42
'0:00.602',-1.96
'0:00.605',-0.37
'0:00.609',1.31
'0:00.613',3.41
'0:00.617',5.91
'0:00.621',7.52
'0:00.625',5.78
'0:00.629',0.67
'0:00.633',-4.66
'0:00.637',-8.42
'0:00.641',-10.23
'0:00.645',-10.56
'0:00.648',-10.25
'0:00.652',-9.89
'0:00.656',-9.48
'0:00.660',-7.89
'0:00.664',-5.63
'0:00.668',-3.67
'0:00.672',-2.53
'0:00.676',-1.82
'0:00.680',-0.92
'0:00.684',0.11
'0:00.688',0.85
'0:00.691',1
'0:00.695',1
'0:00.699',1.5
'0:00.703',2.25
'0:00.707',2.81
'0:00.711',2.63
'0:00.715',2.27
'0:00.719',2.54
'0:00.723',3
'0:00.727',3.29
'0:00.730',3.16
'0:00.734',2.83
'0:00.738',3.55
'0:00.742',4.9
'0:00.746',5.74
'0:00.750',5.77
'0:00.754',5.56
'0:00.758',5.77
'0:00.762',5.9
'0:00.766',6.01
'0:00.770',6.22
'0:00.773',6.61
'0:00.777',7.06
'0:00.781',6.86
'0:00.785',6.1
'0:00.789',5.18
'0:00.793',4.3
'0:00.797',3.56
'0:00.801',3.1
'0:00.805',2.67
'0:00.809',2.24
'0:00.813',1.54
'0:00.816',0.85
'0:00.820',0.49
'0:00.824',0.51
'0:00.828',0.56
'0:00.832',0.34
'0:00.836',-0.15
'0:00.840',-0.43
'0:00.844',-0.31
'0:00.848',-0.62
'0:00.852',-1.17
'0:00.855',-1.26
'0:00.859',-1.17
'0:00.863',-1.63
'0:00.867',-1.79
'0:00.871',-1.64
'0:00.875',-1.36
'0:00.879',-1.34
'0:00.883',-1.53
'0:00.887',-1.43
'0:00.891',-1.54
'0:00.895',-1.7
'0:00.898',-1.75
'0:00.902',-1.63
'0:00.906',-0.86
'0:00.910',1.09
'0:00.914',3.43
'0:00.918',5.55
'0:00.922',7.43
'0:00.926',7.49
'0:00.930',3.65
'0:00.934',-2.16
'0:00.938',-6.81
'0:00.941',-9.55
'0:00.945',-10.51
'0:00.949',-10.94
'0:00.953',-10.92
'0:00.957',-10.19
'0:00.961',-8.99
'0:00.965',-7.3
'0:00.969',-5.47
'0:00.973',-3.74
'0:00.977',-2.18
'0:00.980',-0.97
'0:00.984',-0.21
'0:00.988',0.26
'0:00.992',0.89
'0:00.996',1.38
'0:01.000',1.58
'0:01.004',1.64
'0:01.008',1.68
'0:01.012',1.81
'0:01.016',1.88
'0:01.020',2.09
'0:01.023',2.21
'0:01.027',2.32
'0:01.031',2.56
'0:01.035',2.46
'0:01.039',2.61
'0:01.043',2.91
'0:01.047',3.13
'0:01.051',3.41
'0:01.055',3.85
'0:01.059',4.36
'0:01.063',4.63
'0:01.066',4.63
'0:01.070',4.38
'0:01.074',4.42
'0:01.078',4.87
'0:01.082',5.26
'0:01.086',5.17
'0:01.090',4.45
'0:01.094',3.83
'0:01.098',3.7
'0:01.102',3.37
'0:01.105',3.08
'0:01.109',2.52
'0:01.113',1.98
'0:01.117',1.9
'0:01.121',2.1
'0:01.125',2.17
'0:01.129',2.04
'0:01.133',1.31
'0:01.137',0.59
'0:01.141',0.59
'0:01.145',0.78
'0:01.148',0.5
'0:01.152',-0.18
'0:01.156',-0.59
'0:01.160',-0.77
'0:01.164',-1.08
'0:01.168',-1.83
'0:01.172',-2.36
'0:01.176',-2.24
'0:01.180',-2.14
'0:01.184',-2.34
'0:01.188',-2.53
'0:01.191',-2.47
'0:01.195',-2.34
'0:01.199',-2.49
'0:01.203',-2.92
'0:01.207',-2.79
'0:01.211',-2.04
'0:01.215',-0.91
'0:01.219',1
'0:01.223',3.7
'0:01.227',6.7
'0:01.230',9.49
'0:01.234',10.94
'0:01.238',9.16
'0:01.242',3.22
'0:01.246',-3.58
'0:01.250',-8.28
'0:01.254',-10.66
'0:01.258',-11.74
'0:01.262',-12.3
'0:01.266',-12.34
'0:01.270',-11.71
'0:01.273',-10.43
'0:01.277',-8.71
'0:01.281',-6.96
'0:01.285',-5.37
'0:01.289',-4.08
'0:01.293',-3.16
'0:01.297',-2.4
'0:01.301',-1.66
'0:01.305',-1.26
'0:01.309',-1.14
'0:01.313',-0.99
'0:01.316',-0.78
'0:01.320',-0.58
'0:01.324',-0.48
'0:01.328',-0.34
'0:01.332',-0.15
'0:01.336',-0.03
'0:01.340',0.11
'0:01.344',0.42
'0:01.348',0.77
'0:01.352',1.05
'0:01.355',1.23
'0:01.359',1.32
'0:01.363',1.61
'0:01.367',1.89
'0:01.371',1.96
'0:01.375',2.02
'0:01.379',2.66
'0:01.383',3.24
'0:01.387',3.1
'0:01.391',2.9
'0:01.395',2.74
'0:01.398',2.73
'0:01.402',2.58
'0:01.406',2.39
'0:01.410',2.07
'0:01.414',1.7
'0:01.418',1.19
'0:01.422',0.61
'0:01.426',0.17
'0:01.430',-0.35
'0:01.434',-0.65
'0:01.438',-0.97
'0:01.441',-0.78
'0:01.445',-0.24
'0:01.449',-0.24
'0:01.453',-0.83
'0:01.457',-1.46
'0:01.461',-1.44
'0:01.465',-1.78
'0:01.469',-2.42
'0:01.473',-3.27
'0:01.477',-4.09
'0:01.480',-3.79
'0:01.484',-2.87
'0:01.488',-2.22
'0:01.492',-2.17
'0:01.496',-2.07
'0:01.500',-2.05
'0:01.504',-2.76
'0:01.508',-3.21
'0:01.512',-2.64
'0:01.516',-1.92
'0:01.520',-1.22
'0:01.523',-0.4
'0:01.527',1.19
'0:01.531',3.47
'0:01.535',6.04
'0:01.539',7.05
'0:01.543',5.2
'0:01.547',0.31
'0:01.551',-5.59
'0:01.555',-9.59
'0:01.559',-11.11
'0:01.563',-11.27
'0:01.566',-10.46
'0:01.570',-9.69
'0:01.574',-9.2
'0:01.578',-8.05
'0:01.582',-5.66
'0:01.586',-2.73
'0:01.590',-0.11
'0:01.594',1.17
'0:01.598',1.1
'0:01.602',0.91
'0:01.605',1.19
'0:01.609',2.2
'0:01.613',2.56
'0:01.617',2.49
'0:01.621',2.53
'0:01.625',3.05
'0:01.629',4.62
'0:01.633',5.26
'0:01.637',5.19
'0:01.641',5.4
'0:01.645',5.45
'0:01.648',5.49
'0:01.652',5.45
'0:01.656',5.24
'0:01.660',5.03
'0:01.664',5.04
'0:01.668',5.02
'0:01.672',4.68
'0:01.676',4.46
'0:01.680',4.71
'0:01.684',5.15
'0:01.688',5.47
'0:01.691',5.63
'0:01.695',5.5
'0:01.699',5.17
'0:01.703',4.72
'0:01.707',4.15
'0:01.711',3.77
'0:01.715',3.71
'0:01.719',3.83
'0:01.723',3.48
'0:01.727',2.8
'0:01.730',2.47
'0:01.734',2.38
'0:01.738',2.04
'0:01.742',1.5
'0:01.746',1.04
'0:01.750',0.63
'0:01.754',0.42
'0:01.758',0.31
'0:01.762',0.1
'0:01.766',-0.05
'0:01.770',-0.34
'0:01.773',-0.69
'0:01.777',-1.14
'0:01.781',-1.3
'0:01.785',-1.54
'0:01.789',-1.85
'0:01.793',-1.9
'0:01.797',-2.29
'0:01.801',-2.68
'0:01.805',-2.82
'0:01.809',-2.75
'0:01.813',-2.71
'0:01.816',-2.36
'0:01.820',-1.6
'0:01.824',-0.72
'0:01.828',0.45
'0:01.832',1.99
'0:01.836',4.12
'0:01.840',6.63
'0:01.844',8.85
'0:01.848',9.38
'0:01.852',6.54
'0:01.855',0.8
'0:01.859',-4.77
'0:01.863',-8.55
'0:01.867',-10.41
'0:01.871',-10.67
'0:01.875',-10.17
'0:01.879',-9.29
'0:01.883',-8.1
'0:01.887',-6.63
'0:01.891',-4.97
'0:01.895',-3.23
'0:01.898',-1.85
'0:01.902',-0.76
'0:01.906',0.3
'0:01.910',0.98
'0:01.914',1.32
'0:01.918',1.55
'0:01.922',1.66
'0:01.926',1.87
'0:01.930',1.81
'0:01.934',1.88
'0:01.938',1.95
'0:01.941',1.98
'0:01.945',1.95
'0:01.949',2.04
'0:01.953',2.02
'0:01.957',2.36
'0:01.961',2.44
'0:01.965',2.44
'0:01.969',2.49
'0:01.973',2.35
'0:01.977',2.39
'0:01.980',2.83
'0:01.984',3.22
'0:01.988',3.11
'0:01.992',2.75
'0:01.996',2.49
'0:02.000',2.51
'0:02.004',2.71
'0:02.008',2.74
'0:02.012',2.29
'0:02.016',2
'0:02.020',2.06
'0:02.023',1.69
'0:02.027',1.29
'0:02.031',0.88
'0:02.035',0.55
'0:02.039',0.11
'0:02.043',-0.29
'0:02.047',-0.68
'0:02.051',-0.62
'0:02.055',-0.44
'0:02.059',-0.61
'0:02.063',-0.77
'0:02.066',-1.5
'0:02.070',-2.07
'0:02.074',-2.56
'0:02.078',-2.77
'0:02.082',-2.96
'0:02.086',-3.27
'0:02.090',-3.39
'0:02.094',-3.34
'0:02.098',-3.37
'0:02.102',-3.47
'0:02.105',-3.61
'0:02.109',-3.73
'0:02.113',-3.72
'0:02.117',-3.61
'0:02.121',-3.6
'0:02.125',-3.61
'0:02.129',-3.28
'0:02.133',-2.29
'0:02.137',-0.36
'0:02.141',2.32
'0:02.145',5.39
'0:02.148',8.48
'0:02.152',11.01
'0:02.156',11.62
'0:02.160',8.38
'0:02.164',1.31
'0:02.168',-5.33
'0:02.172',-9.4
'0:02.176',-11.65
'0:02.180',-12.84
'0:02.184',-13.27
'0:02.188',-12.95
'0:02.191',-11.97
'0:02.195',-10.35
'0:02.199',-8.13
'0:02.203',-6.15
'0:02.207',-4.76
'0:02.211',-3.76
'0:02.215',-2.61
'0:02.219',-1.43
'0:02.223',-0.84
'0:02.227',-0.28
'0:02.230',0.47
'0:02.234',0.83
'0:02.238',1.24
'0:02.242',1.6
'0:02.246',0.93
'0:02.250',-0.5
'0:02.254',-0.92
'0:02.258',-0.14
'0:02.262',0.56
'0:02.266',0.93
'0:02.270',1.63
'0:02.273',2.94
'0:02.277',3.9
'0:02.281',4.09
'0:02.285',3.72
'0:02.289',2.67
'0:02.293',1.98
'0:02.297',2.77
'0:02.301',4.11
'0:02.305',4.98
'0:02.309',5.21
'0:02.313',5.1
'0:02.316',4.25
'0:02.320',3.25
'0:02.324',1.99
'0:02.328',1.57
'0:02.332',1.91
'0:02.336',1.82
'0:02.340',1.44
'0:02.344',0.82
'0:02.348',0.28
'0:02.352',0.72
'0:02.355',1.19
'0:02.359',0.59
'0:02.363',-0.27
'0:02.367',-0.9
'0:02.371',-0.65
'0:02.375',-0.05
'0:02.379',-0.15
'0:02.383',-1.09
'0:02.387',-2.04
'0:02.391',-3.25
'0:02.395',-3.39
'0:02.398',-2.68
'0:02.402',-2.62
'0:02.406',-2.19
'0:02.410',-1.92
'0:02.414',-1.98
'0:02.418',-2.06
'0:02.422',-1.45
'0:02.426',-0.96
'0:02.430',-1.61
'0:02.434',-2.14
'0:02.438',-1.77
'0:02.441',-0.74
'0:02.445',0.58
'0:02.449',2.18
'0:02.453',3.93
'0:02.457',6.16
'0:02.461',7.37
'0:02.465',5.55
'0:02.469',0.64
'0:02.473',-4.96
'0:02.477',-9.19
'0:02.480',-11.62
'0:02.484',-11.78
'0:02.488',-10.4
'0:02.492',-8.89
'0:02.496',-7.46
'0:02.500',-5.77
'0:02.504',-3.84
'0:02.508',-2.21
'0:02.512',-0.99
'0:02.516',-0.08
'0:02.520',0.59
'0:02.523',1.22
'0:02.527',1.75
'0:02.531',2.08
'0:02.535',2.27
'0:02.539',2.45
'0:02.543',2.91
'0:02.547',3.47
'0:02.551',3.93
'0:02.555',4.21
'0:02.559',4.32
'0:02.563',4.42
'0:02.566',4.47
'0:02.570',4.41
'0:02.574',4.09
'0:02.578',3.97
'0:02.582',3.9
'0:02.586',4.01
'0:02.590',4.12
'0:02.594',4.48
'0:02.598',4.68
'0:02.602',5.3
'0:02.605',6
'0:02.609',6.38
'0:02.613',6.18
'0:02.617',5.63
'0:02.621',5.36
'0:02.625',5.19
'0:02.629',4.97
'0:02.633',4.63
'0:02.637',4.34
'0:02.641',3.82
'0:02.645',3.38
'0:02.648',3.16
'0:02.652',3.04
'0:02.656',2.46
'0:02.660',2
'0:02.664',1.85
'0:02.668',1.56
'0:02.672',1.6
'0:02.676',1.52
'0:02.680',0.81
'0:02.684',0.22
'0:02.688',-0.47
'0:02.691',-1.02
'0:02.695',-1.24
'0:02.699',-1.73
'0:02.703',-2.22
'0:02.707',-2.44
'0:02.711',-2.68
'0:02.715',-2.93
'0:02.719',-2.85
'0:02.723',-2.85
'0:02.727',-2.78
'0:02.730',-2.91
'0:02.734',-3.17
'0:02.738',-3.37
'0:02.742',-3.33
'0:02.746',-2.64
'0:02.750',-1.34
'0:02.754',0.65
'0:02.758',3.31
'0:02.762',6.21
'0:02.766',8.13
'0:02.770',7.32
'0:02.773',2.56
'0:02.777',-3.83
'0:02.781',-8.76
'0:02.785',-11.39
'0:02.789',-12.3
'0:02.793',-12.24
'0:02.797',-11.76
'0:02.801',-11.15
'0:02.805',-10.09
'0:02.809',-8.29
'0:02.813',-5.98
'0:02.816',-3.94
'0:02.820',-2.57
'0:02.824',-1.68
'0:02.828',-0.93
'0:02.832',-0.4
'0:02.836',0.06
'0:02.840',0.44
'0:02.844',0.81
'0:02.848',1.01
'0:02.852',1.28
'0:02.855',1.75
'0:02.859',1.86
'0:02.863',1.01
'0:02.867',0.91
'0:02.871',1.1
'0:02.875',0.89
'0:02.879',0.9
'0:02.883',1.03
'0:02.887',1.09
'0:02.891',0.72
'0:02.895',1.08
'0:02.898',1.65
'0:02.902',1.62
'0:02.906',1.16
'0:02.910',0.92
'0:02.914',1.2
'0:02.918',1.6
'0:02.922',1.8
'0:02.926',1.85
'0:02.930',1.48
'0:02.934',1.12
'0:02.938',0.92
'0:02.941',0.8
'0:02.945',0.63
'0:02.949',0.37
'0:02.953',0.2
'0:02.957',0.2
'0:02.961',0.1
'0:02.965',-0.2
'0:02.969',-0.43
'0:02.973',-0.41
'0:02.977',-0.34
'0:02.980',-0.4
'0:02.984',-0.89
'0:02.988',-1.13
'0:02.992',-0.5
'0:02.996',-0.24
'0:03.000',-0.76
'0:03.004',-1.15
'0:03.008',-1.56
'0:03.012',-1.85
'0:03.016',-2.25
'0:03.020',-2.9
'0:03.023',-2.77
'0:03.027',-2.38
'0:03.031',-1.9
'0:03.035',-1.71
'0:03.039',-2.12
'0:03.043',-2.46
'0:03.047',-2.47
'0:03.051',-1.72
'0:03.055',-0.5
'0:03.059',0.92
'0:03.063',3.4
'0:03.066',6.64
'0:03.070',9.49
'0:03.074',10.92
'0:03.078',9.29
'0:03.082',3.97
'0:03.086',-2.59
'0:03.090',-7.56
'0:03.094',-10.18
'0:03.098',-10.64
'0:03.102',-10.17
'0:03.105',-9.83
'0:03.109',-9.43
'0:03.113',-8.03
'0:03.117',-6.07
'0:03.121',-3.74
'0:03.125',-1.58
'0:03.129',0.54
'0:03.133',1.69
'0:03.137',2.29
'0:03.141',2.51
'0:03.145',2.39
'0:03.148',2.04
'0:03.152',1.84
'0:03.156',2.2
'0:03.160',2.63
'0:03.164',2.39
'0:03.168',2.11
'0:03.172',2.44
'0:03.176',2.84
'0:03.180',3.14
'0:03.184',2.88
'0:03.188',2.46
'0:03.191',2.89
'0:03.195',3.56
'0:03.199',3.53
'0:03.203',3.52
'0:03.207',3.73
'0:03.211',3.82
'0:03.215',3.53
'0:03.219',3.59
'0:03.223',3.99
'0:03.227',4.1
'0:03.230',4.04
'0:03.234',3.82
'0:03.238',3.45
'0:03.242',3.26
'0:03.246',2.86
'0:03.250',2.09
'0:03.254',1.9
'0:03.258',1.79
'0:03.262',1.43
'0:03.266',0.88
'0:03.270',0.03
'0:03.273',-0.85
'0:03.277',-0.86
'0:03.281',-1
'0:03.285',-0.4
'0:03.289',0.52
'0:03.293',0.25
'0:03.297',-0.97
'0:03.301',-2.01
'0:03.305',-2.48
'0:03.309',-2.14
'0:03.313',-1.96
'0:03.316',-1.77
'0:03.320',-1.32
'0:03.324',-0.69
'0:03.328',-1.01
'0:03.332',-1.35
'0:03.336',-1.77
'0:03.340',-2.71
'0:03.344',-3.42
'0:03.348',-3.56
'0:03.352',-3.52
'0:03.355',-2.98
'0:03.359',-1.99
'0:03.363',-0.48
'0:03.367',1.81
'0:03.371',4.64
'0:03.375',6.81
'0:03.379',6.36
'0:03.383',2.89
'0:03.387',-2.22
'0:03.391',-6.33
'0:03.395',-8.79
'0:03.398',-9.64
'0:03.402',-9.63
'0:03.406',-9
'0:03.410',-7.93
'0:03.414',-6.38
'0:03.418',-4.28
'0:03.422',-2.24
'0:03.426',-0.54
'0:03.430',0.71
'0:03.434',1.88
'0:03.438',2.47
'0:03.441',2.78
'0:03.445',2.94
'0:03.449',3.03
'0:03.453',3.25
'0:03.457',3.62
'0:03.461',3.98
'0:03.465',4.22
'0:03.469',4.32
'0:03.473',4.26
'0:03.477',3.91
'0:03.480',3.66
'0:03.484',3.87
'0:03.488',4.17
'0:03.492',4.41
'0:03.496',4.69
'0:03.500',4.95
'0:03.504',5.2
'0:03.508',5.22
'0:03.512',5.17
'0:03.516',5.04
'0:03.520',5
'0:03.523',5.1
'0:03.527',4.99
'0:03.531',4.68
'0:03.535',4.39
'0:03.539',4.04
'0:03.543',3.73
'0:03.547',3.22
'0:03.551',2.37
'0:03.555',1.92
'0:03.559',1.64
'0:03.563',1.02
'0:03.566',0.78
'0:03.570',0.43
'0:03.574',0.06
'0:03.578',-0.3
'0:03.582',-0.6
'0:03.586',-0.91
'0:03.590',-1.3
'0:03.594',-1.51
'0:03.598',-1.84
'0:03.602',-2.33
'0:03.605',-2.93
'0:03.609',-3.27
'0:03.613',-3.78
'0:03.617',-4.04
'0:03.621',-4.02
'0:03.625',-3.95
'0:03.629',-3.88
'0:03.633',-3.8
'0:03.637',-3.95
'0:03.641',-4.01
'0:03.645',-3.88
'0:03.648',-3.95
'0:03.652',-4
'0:03.656',-3.91
'0:03.660',-3.43
'0:03.664',-2.45
'0:03.668',-1.15
'0:03.672',0.42
'0:03.676',2.86
'0:03.680',5.76
'0:03.684',8.41
'0:03.688',8.66
'0:03.691',4.8
'0:03.695',-1.27
'0:03.699',-6.06
'0:03.703',-9.16
'0:03.707',-10.86
'0:03.711',-11.45
'0:03.715',-11.53
'0:03.719',-10.86
'0:03.723',-9.82
'0:03.727',-8.23
'0:03.730',-6.25
'0:03.734',-4.39
'0:03.738',-2.93
'0:03.742',-1.6
'0:03.746',-0.6
'0:03.750',0.14
'0:03.754',0.39
'0:03.758',0.45
'0:03.762',0.87
'0:03.766',1.56
'0:03.770',1.75
'0:03.773',1.65
'0:03.777',1.56
'0:03.781',1.54
'0:03.785',1.73
'0:03.789',1.91
'0:03.793',1.94
'0:03.797',1.97
'0:03.801',1.95
'0:03.805',1.93
'0:03.809',2.05
'0:03.813',2.27
'0:03.816',2.57
'0:03.820',2.96
'0:03.824',3.55
'0:03.828',3.82
'0:03.832',3.81
'0:03.836',3.93
'0:03.840',3.72
'0:03.844',3.29
'0:03.848',3.24
'0:03.852',3.18
'0:03.855',2.67
'0:03.859',1.83
'0:03.863',1.29
'0:03.867',1.33
'0:03.871',1.68
'0:03.875',1.7
'0:03.879',1.23
'0:03.883',0.56
'0:03.887',0.25
'0:03.891',0.25
'0:03.895',0.14
'0:03.898',-0.03
'0:03.902',-0.08
'0:03.906',-0.27
'0:03.910',-0.51
'0:03.914',-0.76
'0:03.918',-1.1
'0:03.922',-1.73
'0:03.926',-2.37
'0:03.930',-2.56
'0:03.934',-2.55
'0:03.938',-2.51
'0:03.941',-2.36
'0:03.945',-2.52
'0:03.949',-2.8
'0:03.953',-2.97
'0:03.957',-2.86
'0:03.961',-2.61
'0:03.965',-2.84
'0:03.969',-2.58
'0:03.973',-1.75
'0:03.977',-0.55
'0:03.980',1.27
'0:03.984',4
'0:03.988',7.2
'0:03.992',10.07
'0:03.996',10.66
'0:04.000',7.86
'0:04.004',1.51
'0:04.008',-5
'0:04.012',-9.05
'0:04.016',-11.11
'0:04.020',-12
'0:04.023',-11.97
'0:04.027',-11.16
'0:04.031',-9.56
'0:04.035',-7.99
'0:04.039',-6.82
'0:04.043',-5.56
'0:04.047',-4.15
'0:04.051',-3.29
'0:04.055',-2.24
'0:04.059',-0.8
'0:04.063',0.17
'0:04.066',0.7
'0:04.070',0.98
'0:04.074',1.26
'0:04.078',1.46
'0:04.082',1.09
'0:04.086',0.87
'0:04.090',0.94
'0:04.094',1.12
'0:04.098',1.39
'0:04.102',1.54
'0:04.105',1.41
'0:04.109',1.43
'0:04.113',1.96
'0:04.117',2.7
'0:04.121',3.31
'0:04.125',3.92
'0:04.129',4.44
'0:04.133',4.66
'0:04.137',4.85
'0:04.141',4.98
'0:04.145',5.19
'0:04.148',5.47
'0:04.152',5.58
'0:04.156',5.16
'0:04.160',4.51
'0:04.164',3.99
'0:04.168',3.67
'0:04.172',3.5
'0:04.176',3.21
'0:04.180',2.65
'0:04.184',1.71
'0:04.188',1.34
'0:04.191',1.61
'0:04.195',1.67
'0:04.199',1.2
'0:04.203',0.55
'0:04.207',0.18
'0:04.211',-0.23
'0:04.215',-0.63
'0:04.219',-0.6
'0:04.223',-0.44
'0:04.227',-0.33
'0:04.230',-0.2
'0:04.234',-0.3
'0:04.238',-0.76
'0:04.242',-1.12
'0:04.246',-1.47
'0:04.250',-2.04
'0:04.254',-1.9
'0:04.258',-1.37
'0:04.262',-1.07
'0:04.266',-0.95
'0:04.270',-1.13
'0:04.273',-1
'0:04.277',-0.35
'0:04.281',1.01
'0:04.285',3.05
'0:04.289',5.28
'0:04.293',7.3
'0:04.297',7.66
'0:04.301',5.12
'0:04.305',-0.29
'0:04.309',-5.97
'0:04.313',-9.75
'0:04.316',-11.39
'0:04.320',-11.52
'0:04.324',-10.62
'0:04.328',-9.4
'0:04.332',-7.68
'0:04.336',-5.57
'0:04.340',-3.61
'0:04.344',-2.14
'0:04.348',-0.95
'0:04.352',0.15
'0:04.355',0.37
'0:04.359',0.37
'0:04.363',0.37
'0:04.367',2.41
'0:04.371',2.41
'0:04.375',2.35
'0:04.379',2.34
'0:04.383',2.29
'0:04.387',2.37
'0:04.391',2.5
'0:04.395',2.7
'0:04.398',2.81
'0:04.402',2.88
'0:04.406',2.91
'0:04.410',3.26
'0:04.414',3.8
'0:04.418',4.21
'0:04.422',4.6
'0:04.426',5.02
'0:04.430',5.15
'0:04.434',5.23
'0:04.438',5.18
'0:04.441',4.99
'0:04.445',4.83
'0:04.449',4.7
'0:04.453',4.44
'0:04.457',4.19
'0:04.461',3.91
'0:04.465',3.52
'0:04.469',3.13
'0:04.473',2.76
'0:04.477',2.35
'0:04.480',1.83
'0:04.484',1.22
'0:04.488',0.76
'0:04.492',0.31
'0:04.496',-0.23
'0:04.500',-0.71
'0:04.504',-0.92
'0:04.508',-1.01
'0:04.512',-1.17
'0:04.516',-1.21
'0:04.520',-1.75
'0:04.523',-2.42
'0:04.527',-3.09
'0:04.531',-3.7
'0:04.535',-4.23
'0:04.539',-4.42
'0:04.543',-4.54
'0:04.547',-4.55
'0:04.551',-4.52
'0:04.555',-4.3
'0:04.559',-4.08
'0:04.563',-3.95
'0:04.566',-3.91
'0:04.570',-4.07
'0:04.574',-3.87
'0:04.578',-3.15
'0:04.582',-2.14
'0:04.586',-1.08
'0:04.590',0.62
'0:04.594',2.91
'0:04.598',5.76
'0:04.602',8.19
'0:04.605',8.73
'0:04.609',5.32
'0:04.613',-0.76
'0:04.617',-5.88
'0:04.621',-9.32
'0:04.625',-10.87
'0:04.629',-10.88
'0:04.633',-10.41
'0:04.637',-9.79
'0:04.641',-8.95
'0:04.645',-7.68
'0:04.648',-6.13
'0:04.652',-4.64
'0:04.656',-2.89
'0:04.660',-1.27
'0:04.664',-0.16
'0:04.668',0.45
'0:04.672',0.38
'0:04.676',0.21
'0:04.680',0.47
'0:04.684',1.02
'0:04.688',1.58
'0:04.691',2.24
'0:04.695',2.44
'0:04.699',2.18
'0:04.703',2.04
'0:04.707',1.93
'0:04.711',1.85
'0:04.715',1.85
'0:04.719',1.94
'0:04.723',2.32
'0:04.727',2.63
'0:04.730',2.24
'0:04.734',1.73
'0:04.738',1.9
'0:04.742',2.38
'0:04.746',2.45
'0:04.750',2.95
'0:04.754',3.19
'0:04.758',3.26
'0:04.762',3.4
'0:04.766',3.11
'0:04.770',2.86
'0:04.773',2.8
'0:04.777',2.64
'0:04.781',2.47
'0:04.785',1.93
'0:04.789',1.4
'0:04.793',1.17
'0:04.797',0.87
'0:04.801',0.78
'0:04.805',0.6
'0:04.809',0.25
'0:04.813',-0.1
'0:04.816',-0.09
'0:04.820',-0.26
'0:04.824',-0.58
'0:04.828',-0.81
'0:04.832',-1.06
'0:04.836',-1.69
'0:04.840',-2.24
'0:04.844',-2.92
'0:04.848',-3.29
'0:04.852',-3.32
'0:04.855',-3.46
'0:04.859',-3.41
'0:04.863',-3.53
'0:04.867',-3.5
'0:04.871',-3.16
'0:04.875',-3.27
'0:04.879',-3.87
'0:04.883',-3.65
'0:04.887',-2.8
'0:04.891',-2.6
'0:04.895',-2.61
'0:04.898',2.52
'0:04.902',5.53
'0:04.906',8.25
'0:04.910',9.91
'0:04.914',8.42
'0:04.918',2.85
'0:04.922',-3.41
'0:04.926',-7.69
'0:04.930',-10.05
'0:04.934',-11.4
'0:04.938',-11.93
'0:04.941',-11.73
'0:04.945',-10.61
'0:04.949',-8.86
'0:04.953',-6.8
'0:04.957',-4.65
'0:04.961',-2.78
'0:04.965',-1.25
'0:04.969',-0.08
'0:04.973',0.77
'0:04.977',1.25
'0:04.980',1.32
'0:04.984',1.31
'0:04.988',1.23
'0:04.992',1.22
'0:04.996',1.29
'0:05.000',1.55
'0:05.004',1.82
'0:05.008',1.62
'0:05.012',1.35
'0:05.016',1.47
'0:05.020',1.82
'0:05.023',2.27
'0:05.027',2.85
'0:05.031',3.48
'0:05.035',4
'0:05.039',4.01
'0:05.043',4.04
'0:05.047',4.02
'0:05.051',3.95
'0:05.055',4.12
'0:05.059',4.84
'0:05.063',5.64
'0:05.066',6.14
'0:05.070',6.06
'0:05.074',5.98
'0:05.078',6.03
'0:05.082',5.58
'0:05.086',4.24
'0:05.090',3.17
'0:05.094',3.23
'0:05.098',3.51
'0:05.102',3.36
'0:05.105',3.24
'0:05.109',3.25
'0:05.113',3.07
'0:05.117',2.61
'0:05.121',2.09
'0:05.125',1.59
'0:05.129',0.94
'0:05.133',0.26
'0:05.137',-0.15
'0:05.141',-0.48
'0:05.145',-0.78
'0:05.148',-1.12
'0:05.152',-1.54
'0:05.156',-2.06
'0:05.160',-2.3
'0:05.164',-2.42
'0:05.168',-2.48
'0:05.172',-2.44
'0:05.176',-2.42
'0:05.180',-2.54
'0:05.184',-2.55
'0:05.188',-2.48
'0:05.191',-2.13
'0:05.195',-1.52
'0:05.199',-0.53
'0:05.203',1.12
'0:05.207',3.28
'0:05.211',5.49
'0:05.215',6.28
'0:05.219',3.93
'0:05.223',-1.26
'0:05.227',-6.75
'0:05.230',-10.36
'0:05.234',-11.91
'0:05.238',-12.12
'0:05.242',-11.66
'0:05.246',-10.83
'0:05.250',-9.56
'0:05.254',-7.86
'0:05.258',-6
'0:05.262',-4.17
'0:05.266',-2.58
'0:05.270',-1.29
'0:05.273',-0.3
'0:05.277',0.55
'0:05.281',1.16
'0:05.285',1.61
'0:05.289',2.09
'0:05.293',2.45
'0:05.297',2.65
'0:05.301',2.78
'0:05.305',2.83
'0:05.309',2.79
'0:05.313',2.74
'0:05.316',2.69
'0:05.320',2.85
'0:05.324',3.23
'0:05.328',3.52
'0:05.332',3.78
'0:05.336',4.11
'0:05.340',4.37
'0:05.344',4.62
'0:05.348',4.85
'0:05.352',4.95
'0:05.355',4.91
'0:05.359',4.85
'0:05.363',4.74
'0:05.367',4.42
'0:05.371',3.92
'0:05.375',3.28
'0:05.379',2.66
'0:05.383',2.16
'0:05.387',1.77
'0:05.391',1.6
'0:05.395',1.37
'0:05.398',1.11
'0:05.402',1.04
'0:05.406',0.94
'0:05.410',0.76
'0:05.414',0.47
'0:05.418',0.18
'0:05.422',-0.2
'0:05.426',-0.52
'0:05.430',-0.76
'0:05.434',-1.03
'0:05.438',-1.54
'0:05.441',-2.25
'0:05.445',-3.03
'0:05.449',-3.59
'0:05.453',-3.98
'0:05.457',-4.15
'0:05.461',-4.06
'0:05.465',-3.78
'0:05.469',-3.63
'0:05.473',-3.77
'0:05.477',-3.67
'0:05.480',-3.52
'0:05.484',-3.43
'0:05.488',-3.7
'0:05.492',-3.91
'0:05.496',-3.6
'0:05.500',-2.84
'0:05.504',-1.54
'0:05.508',0.56
'0:05.512',3.1
'0:05.516',5.78
'0:05.520',7.81
'0:05.523',7.73
'0:05.527',3.6
'0:05.531',-2.26
'0:05.535',-7.18
'0:05.539',-10.25
'0:05.543',-11.56
'0:05.547',-11.4
'0:05.551',-10.62
'0:05.555',-9.86
'0:05.559',-9.02
'0:05.563',-7.74
'0:05.566',-5.83
'0:05.570',-4.23
'0:05.574',-2.55
'0:05.578',-1.18
'0:05.582',-0.3
'0:05.586',0.41
'0:05.590',1.04
'0:05.594',1.37
'0:05.598',1.39
'0:05.602',1.65
'0:05.605',1.9
'0:05.609',2.08
'0:05.613',2.42
'0:05.617',2.4
'0:05.621',2.13
'0:05.625',2.25
'0:05.629',2.35
'0:05.633',2.46
'0:05.637',2.41
'0:05.641',2.45
'0:05.645',2.81
'0:05.648',3.54
'0:05.652',3.88
'0:05.656',3.76
'0:05.660',3.42
'0:05.664',3.2
'0:05.668',3.38
'0:05.672',3.71
'0:05.676',3.67
'0:05.680',3.64
'0:05.684',3.75
'0:05.688',3.64
'0:05.691',3.33
'0:05.695',2.96
'0:05.699',2.41
'0:05.703',2.06
'0:05.707',1.95
'0:05.711',1.56
'0:05.715',1.44
'0:05.719',1.35
'0:05.723',0.9
'0:05.727',0.51
'0:05.730',0.23
'0:05.734',0.02
'0:05.738',-0.04
'0:05.742',-0.15
'0:05.746',-0.4
'0:05.750',-0.88
'0:05.754',-1.28
'0:05.758',-1.63
'0:05.762',-1.95
'0:05.766',-1.9
'0:05.770',-1.88
'0:05.773',-1.76
'0:05.777',-1.36
'0:05.781',-1.04
'0:05.785',-0.97
'0:05.789',-1.23
'0:05.793',-1.54
'0:05.797',-1.68
'0:05.801',-1.29
'0:05.805',-0.57
'0:05.809',0.4
'0:05.813',2.23
'0:05.816',4.91
'0:05.820',7.87
'0:05.824',10.43
'0:05.828',11.53
'0:05.832',9.3
'0:05.836',3.21
'0:05.840',-3.38
'0:05.844',-7.92
'0:05.848',-10.51
'0:05.852',-11.72
'0:05.855',-12.04
'0:05.859',-11.86
'0:05.863',-11.08
'0:05.867',-9.63
'0:05.871',-7.99
'0:05.875',-6.33
'0:05.879',-4.77
'0:05.883',-3.4
'0:05.887',-2.37
'0:05.891',-1.53
'0:05.895',-0.92
'0:05.898',-0.38
'0:05.902',0.17
'0:05.906',0.43
'0:05.910',0.54
'0:05.914',0.8
'0:05.918',1.21
'0:05.922',1.52
'0:05.926',1.7
'0:05.930',1.79
'0:05.934',1.93
'0:05.938',2.28
'0:05.941',2.68
'0:05.945',3.04
'0:05.949',3.47
'0:05.953',3.97
'0:05.957',4.31
'0:05.961',4.51
'0:05.965',4.37
'0:05.969',4.48
'0:05.973',4.78
'0:05.977',5.18
'0:05.980',5.48
'0:05.984',5.44
'0:05.988',5.22
'0:05.992',4.62
'0:05.996',4.08
'0:06.000',3.62
'0:06.004',3.14
'0:06.008',2.62
'0:06.012',2.25
'0:06.016',1.96
'0:06.020',1.72
'0:06.023',1.52
'0:06.027',1.22
'0:06.031',0.91
'0:06.035',0.6
'0:06.039',0.35
'0:06.043',-0.09
'0:06.047',-0.68
'0:06.051',-1.21
'0:06.055',-1.57
'0:06.059',-1.92
'0:06.063',-2.24
'0:06.066',-2.49
'0:06.070',-2.64
'0:06.074',-2.88
'0:06.078',-2.99
'0:06.082',-3
'0:06.086',-2.98
'0:06.090',-3.11
'0:06.094',-3.2
'0:06.098',-3.33
'0:06.102',-3.33
'0:06.105',-3.25
'0:06.109',-2.85
'0:06.113',-1.92
'0:06.117',-0.35
'0:06.121',1.83
'0:06.125',4.47
'0:06.129',7.1
'0:06.133',8.52
'0:06.137',6.61
'0:06.141',1.19
'0:06.145',-4.83
'0:06.148',-9
'0:06.152',-11.18
'0:06.156',-12.01
'0:06.160',-11.87
'0:06.164',-11.15
'0:06.168',-9.86
'0:06.172',-8.04
'0:06.176',-6.24
'0:06.180',-4.57
'0:06.184',-3.27
'0:06.188',-2.19
'0:06.191',-1.26
'0:06.195',-0.53
'0:06.199',0.08
'0:06.203',0.42
'0:06.207',0.58
'0:06.211',0.79
'0:06.215',1.05
'0:06.219',1.3
'0:06.223',1.34
'0:06.227',1.28
'0:06.230',1.2
'0:06.234',1.23
'0:06.238',1.34
'0:06.242',1.46
'0:06.246',1.55
'0:06.250',1.89
'0:06.254',2.28
'0:06.258',2.46
'0:06.262',2.41
'0:06.266',2.49
'0:06.270',2.77
'0:06.273',3.16
'0:06.277',3.57
'0:06.281',4.05
'0:06.285',4.35
'0:06.289',4.41
'0:06.293',4.35
'0:06.297',3.96
'0:06.301',3.47
'0:06.305',3.02
'0:06.309',2.67
'0:06.313',2.16
'0:06.316',1.83
'0:06.320',1.44
'0:06.324',1.08
'0:06.328',0.81
'0:06.332',0.44
'0:06.336',-0.15
'0:06.340',-0.81
'0:06.344',-1.16
'0:06.348',-1.6
'0:06.352',-2.04
'0:06.355',-2.15
'0:06.359',-2.33
'0:06.363',-2.59
'0:06.367',-2.78
'0:06.371',-3
'0:06.375',-3.27
'0:06.379',-3.62
'0:06.383',-3.78
'0:06.387',-3.49
'0:06.391',-3.14
'0:06.395',-2.96
'0:06.398',-3.03
'0:06.402',-3.26
'0:06.406',-3.13
'0:06.410',-2.66
'0:06.414',-1.73
'0:06.418',-0.47
'0:06.422',1.38
'0:06.426',3.5
'0:06.430',4.8
'0:06.434',3.85
'0:06.438',0.14
'0:06.441',-5.04
'0:06.445',-8.92
'0:06.449',-10.66
'0:06.453',-10.95
'0:06.457',-10.49
'0:06.461',-9.63
'0:06.465',-8.37
'0:06.469',-6.61
'0:06.473',-4.75
'0:06.477',-3.06
'0:06.480',-1.62
'0:06.484',-0.44
'0:06.488',0.58
'0:06.492',1.26
'0:06.496',1.69
'0:06.500',1.94
'0:06.504',2.13
'0:06.508',2.21
'0:06.512',2.12
'0:06.516',2.18
'0:06.520',2.35
'0:06.523',2.46
'0:06.527',2.51
'0:06.531',2.51
'0:06.535',2.58
'0:06.539',2.79
'0:06.543',3.01
'0:06.547',3.26
'0:06.551',3.48
'0:06.555',3.71
'0:06.559',3.88
'0:06.563',4.02
'0:06.566',4.09
'0:06.570',4.13
'0:06.574',4.25
'0:06.578',4.47
'0:06.582',4.58
'0:06.586',4.69
'0:06.590',4.65
'0:06.594',4.36
'0:06.598',4.13
'0:06.602',3.92
'0:06.605',3.72
'0:06.609',3.47
'0:06.613',2.98
'0:06.617',2.7
'0:06.621',2.49
'0:06.625',2.06
'0:06.629',1.54
'0:06.633',0.91
'0:06.637',0.43
'0:06.641',0.05
'0:06.645',-0.2
'0:06.648',-0.43
'0:06.652',-0.7
'0:06.656',-1.14
'0:06.660',-1.52
'0:06.664',-1.83
'0:06.668',-2.04
'0:06.672',-2.38
'0:06.676',-2.73
'0:06.680',-2.93
'0:06.684',-3.02
'0:06.688',-3.04
'0:06.691',-2.86
'0:06.695',-2.56
'0:06.699',-2.29
'0:06.703',-2.08
'0:06.707',-2.11
'0:06.711',-2.37
'0:06.715',-2.17
'0:06.719',-1.63
'0:06.723',-0.81
'0:06.727',0.5
'0:06.730',2.35
'0:06.734',4.67
'0:06.738',6.97
'0:06.742',7.93
'0:06.746',5.47
'0:06.750',0.22
'0:06.754',-4.59
'0:06.758',-7.67
'0:06.762',-8.91
'0:06.766',-9.24
'0:06.770',-9.14
'0:06.773',-8.71
'0:06.777',-7.64
'0:06.781',-6.09
'0:06.785',-4.36
'0:06.789',-2.59
'0:06.793',-0.9
'0:06.797',0.23
'0:06.801',1.04
'0:06.805',1.69
'0:06.809',2.21
'0:06.813',2.54
'0:06.816',2.76
'0:06.820',2.82
'0:06.824',2.83
'0:06.828',2.93
'0:06.832',3.06
'0:06.836',3.12
'0:06.840',3.13
'0:06.844',3.14
'0:06.848',3.02
'0:06.852',3.02
'0:06.855',3.17
'0:06.859',3.33
'0:06.863',3.56
'0:06.867',3.91
'0:06.871',4.26
'0:06.875',4.47
'0:06.879',4.51
'0:06.883',4.71
'0:06.887',4.95
'0:06.891',5.17
'0:06.895',5.26
'0:06.898',5.11
'0:06.902',4.94
'0:06.906',4.7
'0:06.910',4.44
'0:06.914',4.4
'0:06.918',4.06
'0:06.922',3.35
'0:06.926',2.67
'0:06.930',2.46
'0:06.934',2.5
'0:06.938',1.99
'0:06.941',1.32
'0:06.945',0.88
'0:06.949',0.61
'0:06.953',0.38
'0:06.957',0.07
'0:06.961',-0.17
'0:06.965',-0.44
'0:06.969',-0.9
'0:06.973',-1.46
'0:06.977',-1.88
'0:06.980',-2.12
'0:06.984',-2.62
'0:06.988',-3.03
'0:06.992',-2.95
'0:06.996',-2.82
'0:07.000',-2.68
'0:07.004',-2.68
'0:07.008',-2.73
'0:07.012',-3.01
'0:07.016',-3.34
'0:07.020',-3.35
'0:07.023',-3.23
'0:07.027',-2.79
'0:07.031',-1.69
'0:07.035',0.29
'0:07.039',2.86
'0:07.043',5.54
'0:07.047',7.68
'0:07.051',8.29
'0:07.055',5.71
'0:07.059',0.21
'0:07.063',-4.98
'0:07.066',-8.32
'0:07.070',-9.94
'0:07.074',-10.45
'0:07.078',-10.4
'0:07.082',-9.85
'0:07.086',-8.92
'0:07.090',-7.47
'0:07.094',-5.74
'0:07.098',-4.06
'0:07.102',-2.65
'0:07.105',-1.52
'0:07.109',-0.65
'0:07.113',0.09
'0:07.117',0.6
'0:07.121',0.94
'0:07.125',1.21
'0:07.129',1.47
'0:07.133',1.51
'0:07.137',1.47
'0:07.141',1.64
'0:07.145',1.8
'0:07.148',1.85
'0:07.152',1.88
'0:07.156',1.8
'0:07.160',1.81
'0:07.164',2.01
'0:07.168',2.3
'0:07.172',2.58
'0:07.176',2.81
'0:07.180',3.03
'0:07.184',3.3
'0:07.188',3.54
'0:07.191',3.79
'0:07.195',4.04
'0:07.199',4.19
'0:07.203',4.31
'0:07.207',4.32
'0:07.211',4.16
'0:07.215',3.8
'0:07.219',3.37
'0:07.223',3.05
'0:07.227',2.71
'0:07.230',2.48
'0:07.234',2.41
'0:07.238',2.28
'0:07.242',1.83
'0:07.246',1.26
'0:07.250',0.84
'0:07.254',0.44
'0:07.258',0.14
'0:07.262',-0.06
'0:07.266',-0.32
'0:07.270',-0.67
'0:07.273',-1.13
'0:07.277',-1.61
'0:07.281',-2.11
'0:07.285',-2.53
'0:07.289',-2.81
'0:07.293',-2.9
'0:07.297',-2.87
'0:07.301',-2.87
'0:07.305',-2.87
'0:07.309',-2.78
'0:07.313',-2.73
'0:07.316',-2.95
'0:07.320',-3.33
'0:07.324',-3.68
'0:07.328',-3.72
'0:07.332',-3.28
'0:07.336',-2.38
'0:07.340',-1.01
'0:07.344',1
'0:07.348',3.58
'0:07.352',5.65
'0:07.355',5.74
'0:07.359',2.84
'0:07.363',-2.4
'0:07.367',-7.03
'0:07.371',-9.85
'0:07.375',-11.03
'0:07.379',-11.4
'0:07.383',-10.87
'0:07.387',-9.56
'0:07.391',-7.94
'0:07.395',-6.1
'0:07.398',-3.94
'0:07.402',-2.21
'0:07.406',-1
'0:07.410',0.02
'0:07.414',0.8
'0:07.418',1.35
'0:07.422',1.71
'0:07.426',1.93
'0:07.430',2.09
'0:07.434',2.13
'0:07.438',2.05
'0:07.441',2.06
'0:07.445',2.13
'0:07.449',2.22
'0:07.453',2.22
'0:07.457',2.19
'0:07.461',2.34
'0:07.465',2.52
'0:07.469',2.64
'0:07.473',2.79
'0:07.477',3.13
'0:07.480',3.6
'0:07.484',4.06
'0:07.488',4.37
'0:07.492',4.32
'0:07.496',4.18
'0:07.500',4.55
'0:07.504',4.99
'0:07.508',5.07
'0:07.512',4.9
'0:07.516',4.53
'0:07.520',3.89
'0:07.523',3.37
'0:07.527',3.04
'0:07.531',2.75
'0:07.535',2.7
'0:07.539',2.79
'0:07.543',2.41
'0:07.547',1.83
'0:07.551',1.08
'0:07.555',0.52
'0:07.559',0.16
'0:07.563',-0.15
'0:07.566',-0.43
'0:07.570',-0.79
'0:07.574',-1.23
'0:07.578',-1.73
'0:07.582',-2.24
'0:07.586',-2.74
'0:07.590',-3.2
'0:07.594',-3.44
'0:07.598',-3.57
'0:07.602',-3.57
'0:07.605',-3.51
'0:07.609',-3.52
'0:07.613',-3.44
'0:07.617',-3.4
'0:07.621',-3.65
'0:07.625',-4.15
'0:07.629',-4.46
'0:07.633',-4.27
'0:07.637',-3.56
'0:07.641',-2.43
'0:07.645',-0.67
'0:07.648',1.39
'0:07.652',3.29
'0:07.656',3.74
'0:07.660',1.53
'0:07.664',-3.1
'0:07.668',-7.49
'0:07.672',-9.92
'0:07.676',-10.57
'0:07.680',-10.3
'0:07.684',-9.53
'0:07.688',-8.22
'0:07.691',-6.51
'0:07.695',-4.63
'0:07.699',-2.8
'0:07.703',-1.21
'0:07.707',-0.01
'0:07.711',0.91
'0:07.715',1.41
'0:07.719',1.72
'0:07.723',2.09
'0:07.727',2.51
'0:07.730',2.94
'0:07.734',3.15
'0:07.738',3.23
'0:07.742',3.23
'0:07.746',3.17
'0:07.750',3.1
'0:07.754',3.03
'0:07.758',3.06
'0:07.762',3.16
'0:07.766',3.26
'0:07.770',3.43
'0:07.773',3.83
'0:07.777',4.27
'0:07.781',4.64
'0:07.785',4.88
'0:07.789',5.01
'0:07.793',5.13
'0:07.797',5.24
'0:07.801',5.13
'0:07.805',4.92
'0:07.809',4.71
'0:07.813',4.65
'0:07.816',4.53
'0:07.820',4.41
'0:07.824',4.38
'0:07.828',4.1
'0:07.832',3.61
'0:07.836',2.96
'0:07.840',2.32
'0:07.844',1.75
'0:07.848',1.38
'0:07.852',1.14
'0:07.855',0.85
'0:07.859',0.52
'0:07.863',0.17
'0:07.867',-0.21
'0:07.871',-0.63
'0:07.875',-0.94
'0:07.879',-1.31
'0:07.883',-1.62
'0:07.887',-1.77
'0:07.891',-2.13
'0:07.895',-2.44
'0:07.898',-2.71
'0:07.902',-2.98
'0:07.906',-2.96
'0:07.910',-2.73
'0:07.914',-2.54
'0:07.918',-2.51
'0:07.922',-2.45
'0:07.926',-2.39
'0:07.930',-2.49
'0:07.934',-2.84
'0:07.938',-3.33
'0:07.941',-3.43
'0:07.945',-3.07
'0:07.949',-2.23
'0:07.953',-0.89
'0:07.957',1.06
'0:07.961',3.38
'0:07.965',5.49
'0:07.969',5.98
'0:07.973',3.12
'0:07.977',-2.31
'0:07.980',-6.78
'0:07.984',-9.09
'0:07.988',-9.82
'0:07.992',-9.72
'0:07.996',-9.25
'0:08.000',-8.42
'0:08.004',-7.32
'0:08.008',-5.85
'0:08.012',-4.2
'0:08.016',-2.62
'0:08.020',-1.07
'0:08.023',0.08
'0:08.027',0.73
'0:08.031',1.29
'0:08.035',1.93
'0:08.039',2.35
'0:08.043',2.6
'0:08.047',2.8
'0:08.051',2.83
'0:08.055',2.78
'0:08.059',2.81
'0:08.063',2.93
'0:08.066',3.03
'0:08.070',3.15
'0:08.074',3.06
'0:08.078',2.96
'0:08.082',3.11
'0:08.086',3.3
'0:08.090',3.6
'0:08.094',4.15
'0:08.098',4.74
'0:08.102',4.94
'0:08.105',5.04
'0:08.109',5.13
'0:08.113',5.27
'0:08.117',5.45
'0:08.121',5.53
'0:08.125',5.42
'0:08.129',5.2
'0:08.133',4.73
'0:08.137',4.17
'0:08.141',3.84
'0:08.145',3.41
'0:08.148',2.99
'0:08.152',2.44
'0:08.156',1.98
'0:08.160',1.7
'0:08.164',1.4
'0:08.168',0.95
'0:08.172',0.49
'0:08.176',0.02
'0:08.180',-0.42
'0:08.184',-0.43
'0:08.188',-0.5
'0:08.191',-0.94
'0:08.195',-1.35
'0:08.199',-1.85
'0:08.203',-2.39
'0:08.207',-2.95
'0:08.211',-3.18
'0:08.215',-3.12
'0:08.219',-3
'0:08.223',-3.09
'0:08.227',-3.16
'0:08.230',-3.21
'0:08.234',-3.13
'0:08.238',-2.76
'0:08.242',-2.71
'0:08.246',-3.01
'0:08.250',-3.33
'0:08.254',-3.43
'0:08.258',-3.02
'0:08.262',-1.99
'0:08.266',-0.14
'0:08.270',2.43
'0:08.273',4.99
'0:08.277',6.69
'0:08.281',6.52
'0:08.285',3.03
'0:08.289',-2.19
'0:08.293',-6.38
'0:08.297',-8.89
'0:08.301',-9.98
'0:08.305',-10.28
'0:08.309',-10.04
'0:08.313',-9.37
'0:08.316',-8.29
'0:08.320',-6.75
'0:08.324',-5.05
'0:08.328',-3.38
'0:08.332',-1.95
'0:08.336',-0.92
'0:08.340',-0.17
'0:08.344',0.43
'0:08.348',0.9
'0:08.352',1.13
'0:08.355',1.31
'0:08.359',1.39
'0:08.363',1.43
'0:08.367',1.57
'0:08.371',1.63
'0:08.375',1.74
'0:08.379',1.81
'0:08.383',1.86
'0:08.387',1.9
'0:08.391',2.03
'0:08.395',2.23
'0:08.398',2.44
'0:08.402',2.74
'0:08.406',3.09
'0:08.410',3.42
'0:08.414',3.63
'0:08.418',3.76
'0:08.422',3.91
'0:08.426',4.1
'0:08.430',4.11
'0:08.434',4.04
'0:08.438',3.89
'0:08.441',3.67
'0:08.445',3.35
'0:08.449',2.93
'0:08.453',2.42
'0:08.457',1.91
'0:08.461',1.58
'0:08.465',1.33
'0:08.469',1.09
'0:08.473',0.74
'0:08.477',0.31
'0:08.480',-0.11
'0:08.484',-0.5
'0:08.488',-0.76
'0:08.492',-0.83
'0:08.496',-0.93
'0:08.500',-1.21
'0:08.504',-1.62
'0:08.508',-2.12
'0:08.512',-2.67
'0:08.516',-3.13
'0:08.520',-3.4
'0:08.523',-3.53
'0:08.527',-3.5
'0:08.531',-3.44
'0:08.535',-3.32
'0:08.539',-3.24
'0:08.543',-3.19
'0:08.547',-3.28
'0:08.551',-3.55
'0:08.555',-3.99
'0:08.559',-4.28
'0:08.563',-4.19
'0:08.566',-3.65
'0:08.570',-2.53
'0:08.574',-0.72
'0:08.578',1.66
'0:08.582',3.94
'0:08.586',4.75
'0:08.590',2.91
'0:08.594',-1.8
'0:08.598',-6.52
'0:08.602',-9.52
'0:08.605',-10.64
'0:08.609',-10.69
'0:08.613',-10.2
'0:08.617',-9.32
'0:08.621',-8
'0:08.625',-6.29
'0:08.629',-4.53
'0:08.633',-2.86
'0:08.637',-1.4
'0:08.641',-0.22
'0:08.645',0.63
'0:08.648',1.22
'0:08.652',1.7
'0:08.656',2.03
'0:08.660',2.31
'0:08.664',2.46
'0:08.668',2.51
'0:08.672',2.53
'0:08.676',2.63
'0:08.680',2.77
'0:08.684',2.78
'0:08.688',2.79
'0:08.691',2.91
'0:08.695',3.03
'0:08.699',3.23
'0:08.703',3.52
'0:08.707',3.76
'0:08.711',4.05
'0:08.715',4.38
'0:08.719',4.77
'0:08.723',5
'0:08.727',5.15
'0:08.730',5.31
'0:08.734',5.41
'0:08.738',5.36
'0:08.742',5.25
'0:08.746',5.03
'0:08.750',4.59
'0:08.754',4.09
'0:08.758',3.59
'0:08.762',3.03
'0:08.766',2.49
'0:08.770',2.17
'0:08.773',1.72
'0:08.777',1.35
'0:08.781',0.9
'0:08.785',0.33
'0:08.789',-0.06
'0:08.793',-0.37
'0:08.797',-0.59
'0:08.801',-0.73
'0:08.805',-0.81
'0:08.809',-1.09
'0:08.813',-1.52
'0:08.816',-1.92
'0:08.820',-2.33
'0:08.824',-2.65
'0:08.828',-2.85
'0:08.832',-2.92
'0:08.836',-2.85
'0:08.840',-2.85
'0:08.844',-2.81
'0:08.848',-2.73
'0:08.852',-2.77
'0:08.855',-2.87
'0:08.859',-3.12
'0:08.863',-3.39
'0:08.867',-3.4
'0:08.871',-3.07
'0:08.875',-2.37
'0:08.879',-1.02
'0:08.883',1.04
'0:08.887',3.28
'0:08.891',4.74
'0:08.895',4.15
'0:08.898',0.51
'0:08.902',-4.4
'0:08.906',-7.97
'0:08.910',-9.71
'0:08.914',-10.03
'0:08.918',-9.59
'0:08.922',-8.73
'0:08.926',-7.51
'0:08.930',-5.84
'0:08.934',-3.99
'0:08.938',-2.3
'0:08.941',-0.84
'0:08.945',0.37
'0:08.949',1.41
'0:08.953',2.15
'0:08.957',2.47
'0:08.961',2.67
'0:08.965',2.92
'0:08.969',3.13
'0:08.973',3.27
'0:08.977',3.36
'0:08.980',3.33
'0:08.984',3.28
'0:08.988',3.35
'0:08.992',3.47
'0:08.996',3.69
'0:09.000',3.86
'0:09.004',4.02
'0:09.008',4.17
'0:09.012',4.41
'0:09.016',4.68
'0:09.020',4.98
'0:09.023',5.27
'0:09.027',5.48
'0:09.031',5.57
'0:09.035',5.52
'0:09.039',5.46
'0:09.043',5.46
'0:09.047',5.41
'0:09.051',5.29
'0:09.055',5
'0:09.059',4.58
'0:09.063',4.02
'0:09.066',3.5
'0:09.070',3.1
'0:09.074',2.74
'0:09.078',2.33
'0:09.082',1.97
'0:09.086',1.57
'0:09.090',1.13
'0:09.094',0.79
'0:09.098',0.46
'0:09.102',0.04
'0:09.105',-0.36
'0:09.109',-0.57
'0:09.113',-0.8
'0:09.117',-1.22
'0:09.121',-1.54
'0:09.125',-1.9
'0:09.129',-2.46
'0:09.133',-2.91
'0:09.137',-3.09
'0:09.141',-3.07
'0:09.145',-3.11
'0:09.148',-3.12
'0:09.152',-3.01
'0:09.156',-2.79
'0:09.160',-2.6
'0:09.164',-2.45
'0:09.168',-2.47
'0:09.172',-2.82
'0:09.176',-3.12
'0:09.180',-3.1
'0:09.184',-2.35
'0:09.188',-1.01
'0:09.191',0.89
'0:09.195',3.14
'0:09.199',5.36
'0:09.203',6.19
'0:09.207',4.06
'0:09.211',-0.88
'0:09.215',-5.41
'0:09.219',-8.37
'0:09.223',-9.54
'0:09.227',-9.69
'0:09.230',-9.53
'0:09.234',-8.93
'0:09.238',-7.84
'0:09.242',-6.29
'0:09.246',-4.58
'0:09.250',-2.86
'0:09.254',-1.35
'0:09.258',-0.1
'0:09.262',0.86
'0:09.266',1.63
'0:09.270',2.3
'0:09.273',2.41
'0:09.277',2.34
'0:09.281',2.42
'0:09.285',2.65
'0:09.289',2.9
'0:09.293',2.84
'0:09.297',3.01
'0:09.301',3.02
'0:09.305',3
'0:09.309',2.95
'0:09.313',3.14
'0:09.316',3.43
'0:09.320',3.61
'0:09.324',3.86
'0:09.328',3.92
'0:09.332',4
'0:09.336',4.24
'0:09.340',4.68
'0:09.344',5.01
'0:09.348',4.95
'0:09.352',4.83
'0:09.355',4.73
'0:09.359',4.67
'0:09.363',4.43
'0:09.367',4.11
'0:09.371',3.76
'0:09.375',3.31
'0:09.379',2.91
'0:09.383',2.57
'0:09.387',2.17
'0:09.391',1.69
'0:09.395',1.37
'0:09.398',1.18
'0:09.402',0.81
'0:09.406',0.35
'0:09.410',-0.19
'0:09.414',-0.66
'0:09.418',-0.73
'0:09.422',-0.79
'0:09.426',-0.99
'0:09.430',-1.36
'0:09.434',-1.88
'0:09.438',-2.37
'0:09.441',-2.74
'0:09.445',-2.93
'0:09.449',-3.32
'0:09.453',-3.69
'0:09.457',-3.62
'0:09.461',-3.36
'0:09.465',-3.29
'0:09.469',-3.25
'0:09.473',-3.24
'0:09.477',-3.39
'0:09.480',-3.66
'0:09.484',-3.89
'0:09.488',-4.01
'0:09.492',-3.52
'0:09.496',-2.53
'0:09.500',-0.93
'0:09.504',1.53
'0:09.508',4.2
'0:09.512',6.03
'0:09.516',6.7
'0:09.520',4.46
'0:09.523',-0.85
'0:09.527',-5.8
'0:09.531',-9.06
'0:09.535',-10.66
'0:09.539',-11.17
'0:09.543',-11.15
'0:09.547',-10.74
'0:09.551',-9.8
'0:09.555',-8.17
'0:09.559',-6.25
'0:09.563',-4.44
'0:09.566',-3.04
'0:09.570',-1.95
'0:09.574',-0.94
'0:09.578',-0.04
'0:09.582',0.66
'0:09.586',1.15
'0:09.590',1.4
'0:09.594',1.65
'0:09.598',1.91
'0:09.602',2.08
'0:09.605',2.14
'0:09.609',2.16
'0:09.613',2.17
'0:09.617',2.15
'0:09.621',2.07
'0:09.625',2.11
'0:09.629',2.3
'0:09.633',2.64
'0:09.637',2.99
'0:09.641',3.29
'0:09.645',3.49
'0:09.648',3.7
'0:09.652',3.86
'0:09.656',3.97
'0:09.660',4.11
'0:09.664',4.19
'0:09.668',4.19
'0:09.672',4.08
'0:09.676',3.82
'0:09.680',3.55
'0:09.684',3.25
'0:09.688',2.86
'0:09.691',2.38
'0:09.695',2
'0:09.699',1.73
'0:09.703',1.46
'0:09.707',1.06
'0:09.711',0.62
'0:09.715',0.25
'0:09.719',0.04
'0:09.723',-0.07
'0:09.727',-0.23
'0:09.730',-0.37
'0:09.734',-0.53
'0:09.738',-0.83
'0:09.742',-1.19
'0:09.746',-1.66
'0:09.750',-2.17
'0:09.754',-2.58
'0:09.758',-2.81
'0:09.762',-2.95
'0:09.766',-3.07
'0:09.770',-3.01
'0:09.773',-2.9
'0:09.777',-2.8
'0:09.781',-2.77
'0:09.785',-2.88
'0:09.789',-3.18
'0:09.793',-3.52
'0:09.797',-3.7
'0:09.801',-3.41
'0:09.805',-2.49
'0:09.809',-1.08
'0:09.813',0.87
'0:09.816',3.12
'0:09.820',4.97
'0:09.824',5.07
'0:09.828',2.08
'0:09.832',-3.13
'0:09.836',-7.65
'0:09.840',-10.31
'0:09.844',-11.29
'0:09.848',-11.17
'0:09.852',-10.45
'0:09.855',-9.32
'0:09.859',-7.71
'0:09.863',-5.83
'0:09.867',-3.87
'0:09.871',-2.1
'0:09.875',-0.72
'0:09.879',0.3
'0:09.883',1.05
'0:09.887',1.52
'0:09.891',1.64
'0:09.895',1.92
'0:09.898',2.4
'0:09.902',2.87
'0:09.906',3.17
'0:09.910',3.29
'0:09.914',3.24
'0:09.918',3.23
'0:09.922',3.29
'0:09.926',3.32
'0:09.930',3.45
'0:09.934',3.51
'0:09.938',3.53
'0:09.941',3.77
'0:09.945',4.16
'0:09.949',4.61
'0:09.953',4.93
'0:09.957',5.05
'0:09.961',5.14
'0:09.965',5.25
'0:09.969',5.38
'0:09.973',5.39
'0:09.977',5.3
'0:09.980',5.15
'0:09.984',4.96
'0:09.988',4.53
'0:09.992',3.99
'0:09.996',3.5
'0:10.000',3.15
'0:10.004',2.74
'0:10.008',2.2
'0:10.012',1.68
'0:10.016',1.14
'0:10.020',0.6
'0:10.023',0.26
'0:10.027',-0.04
'0:10.031',-0.39
'0:10.035',-0.68
'0:10.039',-0.89
'0:10.043',-1.04
'0:10.047',-1.43
'0:10.051',-1.86
'0:10.055',-2.33
'0:10.059',-2.73
'0:10.063',-3
'0:10.066',-3.23
'0:10.070',-3.3
'0:10.074',-3.2
'0:10.078',-3.2
'0:10.082',-3.13
'0:10.086',-3.07
'0:10.090',-3.08
'0:10.094',-3.29
'0:10.098',-3.7
'0:10.102',-3.97
'0:10.105',-3.71
'0:10.109',-3.04
'0:10.113',-1.68
'0:10.117',0.66
'0:10.121',3.19
'0:10.125',5.02
'0:10.129',4.62
'0:10.133',1.07
'0:10.137',-4.13
'0:10.141',-8.1
'0:10.145',-10.05
'0:10.148',-10.5
'0:10.152',-10.16
'0:10.156',-9.38
'0:10.160',-7.99
'0:10.164',-6.19
'0:10.168',-4.32
'0:10.172',-2.6
'0:10.176',-1.1
'0:10.180',0.11
'0:10.184',0.99
'0:10.188',1.61
'0:10.191',2.04
'0:10.195',2.38
'0:10.199',2.71
'0:10.203',2.96
'0:10.207',3.12
'0:10.211',3.2
'0:10.215',3.27
'0:10.219',3.45
'0:10.223',3.59
'0:10.227',3.72
'0:10.230',3.84
'0:10.234',4.01
'0:10.238',4.23
'0:10.242',4.53
'0:10.246',4.81
'0:10.250',5.1
'0:10.254',5.43
'0:10.258',5.77
'0:10.262',5.97
'0:10.266',6.11
'0:10.270',6.11
'0:10.273',5.94
'0:10.277',5.63
'0:10.281',5.34
'0:10.285',5.01
'0:10.289',4.73
'0:10.293',4.39
'0:10.297',4.03
'0:10.301',3.59
'0:10.305',3.18
'0:10.309',2.71
'0:10.313',2.27
'0:10.316',1.96
'0:10.320',1.61
'0:10.324',1.27
'0:10.328',0.93
'0:10.332',0.63
'0:10.336',0.32
'0:10.340',0.04
'0:10.344',-0.18
'0:10.348',-0.48
'0:10.352',-0.79
'0:10.355',-1.12
'0:10.359',-1.53
'0:10.363',-2.1
'0:10.367',-2.6
'0:10.371',-2.99
'0:10.375',-3.25
'0:10.379',-3.34
'0:10.383',-3.14
'0:10.387',-2.97
'0:10.391',-2.93
'0:10.395',-2.67
'0:10.398',-2.58
'0:10.402',-2.6
'0:10.406',-2.69
'0:10.410',-2.91
'0:10.414',-2.9
'0:10.418',-2.74
'0:10.422',-2.21
'0:10.426',-0.73
'0:10.430',1.41
'0:10.434',3.56
'0:10.438',5.41
'0:10.441',5.27
'0:10.445',1.74
'0:10.449',-3.34
'0:10.453',-7.31
'0:10.457',-9.69
'0:10.461',-10.75
'0:10.465',-10.8
'0:10.469',-10.11
'0:10.473',-8.96
'0:10.477',-7.41
'0:10.480',-5.78
'0:10.484',-4.14
'0:10.488',-2.53
'0:10.492',-1.01
'0:10.496',0.17
'0:10.500',1.12
'0:10.504',1.77
'0:10.508',1.96
'0:10.512',2.13
'0:10.516',2.32
'0:10.520',2.46
'0:10.523',2.56
'0:10.527',2.84
'0:10.531',3.26
'0:10.535',3.57
'0:10.539',3.55
'0:10.543',3.22
'0:10.547',3
'0:10.551',3.03
'0:10.555',3.29
'0:10.559',3.65
'0:10.563',4.04
'0:10.566',4.38
'0:10.570',4.66
'0:10.574',4.85
'0:10.578',4.86
'0:10.582',4.93
'0:10.586',4.7
'0:10.590',4.5
'0:10.594',4.6
'0:10.598',4.8
'0:10.602',4.68
'0:10.605',4.18
'0:10.609',3.69
'0:10.613',3.13
'0:10.617',2.73
'0:10.621',2.51
'0:10.625',2.03
'0:10.629',1.6
'0:10.633',1.29
'0:10.637',1
'0:10.641',0.61
'0:10.645',0.23
'0:10.648',-0.18
'0:10.652',-0.54
'0:10.656',-0.73
'0:10.660',-0.75
'0:10.664',-0.77
'0:10.668',-1.14
'0:10.672',-1.77
'0:10.676',-2.32
'0:10.680',-2.95
'0:10.684',-3.38
'0:10.688',-3.65
'0:10.691',-3.6
'0:10.695',-3.55
'0:10.699',-3.53
'0:10.703',-3.31
'0:10.707',-2.87
'0:10.711',-2.87
'0:10.715',-2.98
'0:10.719',-3.2
'0:10.723',-3.46
'0:10.727',-3.59
'0:10.730',-3.34
'0:10.734',-2.57
'0:10.738',-0.98
'0:10.742',1.67
'0:10.746',4.75
'0:10.750',6.78
'0:10.754',7.48
'0:10.758',5.05
'0:10.762',-0.28
'0:10.766',-5.33
'0:10.770',-8.9
'0:10.773',-10.75
'0:10.777',-11.05
'0:10.781',-11.07
'0:10.785',-10.5
'0:10.789',-9.32
'0:10.793',-8.18
'0:10.797',-6.39
'0:10.801',-4.32
'0:10.805',-2.72
'0:10.809',-1.2
'0:10.813',-0.55
'0:10.816',-0.14
'0:10.820',0.68
'0:10.824',1.14
'0:10.828',1.37
'0:10.832',1.04
'0:10.836',0.58
'0:10.840',0.82
'0:10.844',1.59
'0:10.848',2.02
'0:10.852',1.79
'0:10.855',1.63
'0:10.859',1.65
'0:10.863',1.7
'0:10.867',2.04
'0:10.871',2.05
'0:10.875',2.08
'0:10.879',2.57
'0:10.883',2.87
'0:10.887',2.54
'0:10.891',2.78
'0:10.895',3.12
'0:10.898',2.33
'0:10.902',2.29
'0:10.906',2.51
'0:10.910',2.59
'0:10.914',2.8
'0:10.918',2.58
'0:10.922',1.68
'0:10.926',0.98
'0:10.930',0.72
'0:10.934',0.68
'0:10.938',0.64
'0:10.941',0.58
'0:10.945',-0.05
'0:10.949',-0.68
'0:10.953',-1.43
'0:10.957',-1.91
'0:10.961',-2.02
'0:10.965',-1.87
'0:10.969',-1.7
'0:10.973',-2.05
'0:10.977',-2.55
'0:10.980',-2.85
'0:10.984',-3.16
'0:10.988',-3.25
'0:10.992',-3.94
'0:10.996',-4.26
'0:11.000',-3.73
'0:11.004',-3.35
'0:11.008',-3.59
'0:11.012',-4.03
'0:11.016',-4.12
'0:11.020',-3.68
'0:11.023',-3.5
'0:11.027',-3.65
'0:11.031',-3.73
'0:11.035',-3.74
'0:11.039',-3.49
'0:11.043',-2.81
'0:11.047',-1.62
'0:11.051',0.63
'0:11.055',3.59
'0:11.059',6.06
'0:11.063',8.23
'0:11.066',9.74
'0:11.070',8.24
'0:11.074',2.89
'0:11.078',-2.58
'0:11.082',-6.63
'0:11.086',-9.18
'0:11.090',-10.35
'0:11.094',-10.83
'0:11.098',-10.55
'0:11.102',-9.71
'0:11.105',-8.17
'0:11.109',-6.44
'0:11.113',-4.77
'0:11.117',-3.41
'0:11.121',-2.03
'0:11.125',-0.84
'0:11.129',0.05
'0:11.133',0.58
'0:11.137',0.93
'0:11.141',1.1
'0:11.145',1.48
'0:11.148',1.9
'0:11.152',2.03
'0:11.156',2.28
'0:11.160',2.47
'0:11.164',2.57
'0:11.168',2.38
'0:11.172',2.34
'0:11.176',2.41
'0:11.180',2.79
'0:11.184',3.23
'0:11.188',3.84
'0:11.191',3.66
'0:11.195',3.18
'0:11.199',2.93
'0:11.203',2.9
'0:11.207',2.82
'0:11.211',2.57
'0:11.215',2.57
'0:11.219',2.75
'0:11.223',2.55
'0:11.227',2
'0:11.230',1.82
'0:11.234',1.79
'0:11.238',1.65
'0:11.242',1.1
'0:11.246',0.47
'0:11.250',0.26
'0:11.254',-0.05
'0:11.258',-0.71
'0:11.262',-0.96
'0:11.266',-1.21
'0:11.270',-1.57
'0:11.273',-2.05
'0:11.277',-2.01
'0:11.281',-1.9
'0:11.285',-2.25
'0:11.289',-2.9
'0:11.293',-2.94
'0:11.297',-3.25
'0:11.301',-4.23
'0:11.305',-3.98
'0:11.309',-4.06
'0:11.313',-4.48
'0:11.316',-3.73
'0:11.320',-3.72
'0:11.324',-4.39
'0:11.328',-4.03
'0:11.332',-2.03
'0:11.336',-1.07
'0:11.340',-1.18
'0:11.344',-2.48
'0:11.348',-3.55
'0:11.352',-2.29
'0:11.355',1.08
'0:11.359',3.13
'0:11.363',3.43
'0:11.367',3.35
'0:11.371',5.53
'0:11.375',9.04
'0:11.379',11.11
'0:11.383',10.35
'0:11.387',6.49
'0:11.391',0.31
'0:11.395',-4.43
'0:11.398',-7.76
'0:11.402',-8.81
'0:11.406',-8
'0:11.410',-7.09
'0:11.414',-7.87
'0:11.418',-7.32
'0:11.422',-5.54
'0:11.426',-3.65
'0:11.430',-1.82
'0:11.434',-0.21
'0:11.438',-0.26
'0:11.441',-1.36
'0:11.445',-0.21
'0:11.449',0.69
'0:11.453',1.1
'0:11.457',0.7
'0:11.461',-0.7
'0:11.465',-0.46
'0:11.469',0.4
'0:11.473',0.77
'0:11.477',0.9
'0:11.480',2.53
'0:11.484',3.51
'0:11.488',2.17
'0:11.492',0.79
'0:11.496',1.34
'0:11.500',2.23
'0:11.504',3.12
'0:11.508',4.12
'0:11.512',4.49
'0:11.516',3
'0:11.520',1.82
'0:11.523',1.56
'0:11.527',2.67
'0:11.531',3.51
'0:11.535',2.21
'0:11.539',0.54
'0:11.543',-0.42
'0:11.547',0.28
'0:11.551',1.58
'0:11.555',2.15
'0:11.559',2.73
'0:11.563',2.67
'0:11.566',1.34
'0:11.570',0.53
'0:11.574',1.43
'0:11.578',2.46
'0:11.582',1.89
'0:11.586',1.33
'0:11.590',0.91
'0:11.594',-0.38
'0:11.598',-1.51
'0:11.602',-1.29
'0:11.605',-1.21
'0:11.609',-1.33
'0:11.613',-1.24
'0:11.617',-1.45
'0:11.621',-1.6
'0:11.625',-2.07
'0:11.629',-2.25
'0:11.633',-1.89
'0:11.637',-1.66
'0:11.641',-1.64
'0:11.645',-1.95
'0:11.648',-2.04
'0:11.652',-2.19
'0:11.656',-2.28
'0:11.660',-2.42
'0:11.664',-1.67
'0:11.668',0.21
'0:11.672',2.82
'0:11.676',5.79
'0:11.680',8.11
'0:11.684',8.5
'0:11.688',5.56
'0:11.691',-0.42
'0:11.695',-5.98
'0:11.699',-8.99
'0:11.703',-9.88
'0:11.707',-9.52
'0:11.711',-8.49
'0:11.715',-7
'0:11.719',-5.1
'0:11.723',-3.07
'0:11.727',-1.25
'0:11.730',0.27
'0:11.734',1.51
'0:11.738',2.24
'0:11.742',2.63
'0:11.746',3.02
'0:11.750',3.25
'0:11.754',3.51
'0:11.758',3.79
'0:11.762',4.06
'0:11.766',4.19
'0:11.770',4.09
'0:11.773',4.05
'0:11.777',4.16
'0:11.781',4.36
'0:11.785',4.6
'0:11.789',4.79
'0:11.793',4.8
'0:11.797',4.93
'0:11.801',5.13
'0:11.805',5.44
'0:11.809',5.64
'0:11.813',5.87
'0:11.816',6.2
'0:11.820',6.33
'0:11.824',6.27
'0:11.828',6.03
'0:11.832',5.72
'0:11.836',5.36
'0:11.840',5.13
'0:11.844',5.08
'0:11.848',5.03
'0:11.852',4.72
'0:11.855',4.35
'0:11.859',4.05
'0:11.863',3.72
'0:11.867',3.39
'0:11.871',2.95
'0:11.875',2.49
'0:11.879',2.16
'0:11.883',1.85
'0:11.887',1.48
'0:11.891',1.17
'0:11.895',0.74
'0:11.898',0.32
'0:11.902',0.11
'0:11.906',0.1
'0:11.910',0.04
'0:11.914',-0.31
'0:11.918',-0.89
'0:11.922',-1.61
'0:11.926',-2.23
'0:11.930',-2.58
'0:11.934',-2.76
'0:11.938',-2.8
'0:11.941',-2.67
'0:11.945',-2.56
'0:11.949',-2.65
'0:11.953',-2.86
'0:11.957',-3.18
'0:11.961',-3.43
'0:11.965',-3.52
'0:11.969',-3.42
'0:11.973',-2.92
'0:11.977',-1.98
'0:11.980',-0.36
'0:11.984',1.77
'0:11.988',3.87
'0:11.992',4.43
'0:11.996',1.96
'0:12.000',-3.22
'0:12.004',-8.28
'0:12.008',-11.18
'0:12.012',-12.05
'0:12.016',-11.52
'0:12.020',-10.45
'0:12.023',-8.69
'0:12.027',-6.32
'0:12.031',-4.24
'0:12.035',-2.53
'0:12.039',-1.21
'0:12.043',-0.22
'0:12.047',0.59
'0:12.051',1.22
'0:12.055',1.71
'0:12.059',2.04
'0:12.063',2.1
'0:12.066',1.96
'0:12.070',2.03
'0:12.074',2.46
'0:12.078',2.88
'0:12.082',3.04
'0:12.086',2.88
'0:12.090',2.87
'0:12.094',3.11
'0:12.098',3.22
'0:12.102',3.28
'0:12.105',3.68
'0:12.109',4.21
'0:12.113',4.76
'0:12.117',5.06
'0:12.121',5.14
'0:12.125',5.19
'0:12.129',5.13
'0:12.133',5.02
'0:12.137',4.96
'0:12.141',4.77
'0:12.145',4.34
'0:12.148',3.85
'0:12.152',3.59
'0:12.156',3.31
'0:12.160',2.92
'0:12.164',2.57
'0:12.168',2.25
'0:12.172',1.92
'0:12.176',1.57
'0:12.180',1.3
'0:12.184',1.11
'0:12.188',0.8
'0:12.191',0.56
'0:12.195',0.56
'0:12.199',0.45
'0:12.203',0.12
'0:12.207',-0.25
'0:12.211',-0.59
'0:12.215',-0.79
'0:12.219',-0.83
'0:12.223',-0.95
'0:12.227',-1.38
'0:12.230',-1.89
'0:12.234',-2.59
'0:12.238',-3.29
'0:12.242',-3.59
'0:12.246',-3.7
'0:12.250',-3.7
'0:12.254',-3.59
'0:12.258',-3.48
'0:12.262',-3.34
'0:12.266',-3.34
'0:12.270',-3.34
'0:12.273',-3.38
'0:12.277',-3.54
'0:12.281',-3.94
'0:12.285',-4.41
'0:12.289',-4.72
'0:12.293',-4.58
'0:12.297',-3.85
'0:12.301',-2.16
'0:12.305',0.23
'0:12.309',2.44
'0:12.313',3.18
'0:12.316',1.47
'0:12.320',-3.14
'0:12.324',-7.48
'0:12.328',-10.24
'0:12.332',-11.02
'0:12.336',-10.66
'0:12.340',-10.16
'0:12.344',-9.52
'0:12.348',-8.49
'0:12.352',-7.03
'0:12.355',-5.19
'0:12.359',-3.44
'0:12.363',-1.95
'0:12.367',-0.69
'0:12.371',0.55
'0:12.375',1.64
'0:12.379',2.1
'0:12.383',2.24
'0:12.387',2.14
'0:12.391',2.33
'0:12.395',2.44
'0:12.398',2.6
'0:12.402',2.5
'0:12.406',2.4
'0:12.410',2.71
'0:12.414',3.01
'0:12.418',3.21
'0:12.422',3.49
'0:12.426',4.06
'0:12.430',4.24
'0:12.434',4.43
'0:12.438',4.92
'0:12.441',5.32
'0:12.445',5.52
'0:12.449',5.52
'0:12.453',5.42
'0:12.457',5.29
'0:12.461',5.27
'0:12.465',4.82
'0:12.469',4.48
'0:12.473',4.18
'0:12.477',4.02
'0:12.480',3.72
'0:12.484',3.22
'0:12.488',2.5
'0:12.492',1.72
'0:12.496',1.07
'0:12.500',0.72
'0:12.504',0.52
'0:12.508',0.31
'0:12.512',0.04
'0:12.516',-0.28
'0:12.520',-0.55
'0:12.523',-0.9
'0:12.527',-1.19
'0:12.531',-1.43
'0:12.535',-1.76
'0:12.539',-2.17
'0:12.543',-2.61
'0:12.547',-3.18
'0:12.551',-3.82
'0:12.555',-4.29
'0:12.559',-4.62
'0:12.563',-4.7
'0:12.566',-4.59
'0:12.570',-4.44
'0:12.574',-4.23
'0:12.578',-4.08
'0:12.582',-3.91
'0:12.586',-3.78
'0:12.590',-3.81
'0:12.594',-4.02
'0:12.598',-4.41
'0:12.602',-4.58
'0:12.605',-4.27
'0:12.609',-3.28
'0:12.613',-1.58
'0:12.617',0.55
'0:12.621',2.53
'0:12.625',2.98
'0:12.629',0.82
'0:12.633',-3.82
'0:12.637',-7.9
'0:12.641',-10.38
'0:12.645',-11.26
'0:12.648',-10.87
'0:12.652',-10.06
'0:12.656',-9.07
'0:12.660',-7.84
'0:12.664',-6.32
'0:12.668',-4.46
'0:12.672',-2.52
'0:12.676',-0.9
'0:12.680',0.52
'0:12.684',1.63
'0:12.688',2.59
'0:12.691',3.06
'0:12.695',3.16
'0:12.699',3.33
'0:12.703',3.52
'0:12.707',3.77
'0:12.711',3.9
'0:12.715',3.87
'0:12.719',4.08
'0:12.723',4.26
'0:12.727',4.25
'0:12.730',4.19
'0:12.734',4.47
'0:12.738',4.87
'0:12.742',5.13
'0:12.746',5.38
'0:12.750',5.57
'0:12.754',5.83
'0:12.758',6.15
'0:12.762',6.26
'0:12.766',6.19
'0:12.770',6.1
'0:12.773',5.79
'0:12.777',5.6
'0:12.781',5.08
'0:12.785',4.55
'0:12.789',4.23
'0:12.793',3.88
'0:12.797',3.31
'0:12.801',2.75
'0:12.805',2.52
'0:12.809',2.17
'0:12.813',1.73
'0:12.816',1.46
'0:12.820',1.32
'0:12.824',0.99
'0:12.828',0.47
'0:12.832',-0.05
'0:12.836',-0.43
'0:12.840',-0.52
'0:12.844',-0.44
'0:12.848',-0.56
'0:12.852',-0.99
'0:12.855',-1.66
'0:12.859',-2.28
'0:12.863',-2.9
'0:12.867',-3.19
'0:12.871',-3.03
'0:12.875',-2.83
'0:12.879',-2.66
'0:12.883',-2.68
'0:12.887',-2.61
'0:12.891',-2.53
'0:12.895',-2.58
'0:12.898',-2.42
'0:12.902',-2.66
'0:12.906',-3.1
'0:12.910',-3.36
'0:12.914',-3.2
'0:12.918',-2.82
'0:12.922',-2
'0:12.926',-0.52
'0:12.930',1.53
'0:12.934',3.65
'0:12.938',5.06
'0:12.941',4.01
'0:12.945',-0.52
'0:12.949',-5.43
'0:12.953',-8.82
'0:12.957',-10.25
'0:12.961',-10.51
'0:12.965',-10.18
'0:12.969',-9.56
'0:12.973',-8.53
'0:12.977',-6.95
'0:12.980',-5.45
'0:12.984',-3.98
'0:12.988',-2.31
'0:12.992',-0.74
'0:12.996',0.47
'0:13.000',1.01
'0:13.004',1.44
'0:13.008',1.65
'0:13.012',1.86
'0:13.016',2.22
'0:13.020',2.57
'0:13.023',2.68
'0:13.027',2.52
'0:13.031',2.39
'0:13.035',2.48
'0:13.039',2.76
'0:13.043',3.22
'0:13.047',3.55
'0:13.051',3.65
'0:13.055',3.67
'0:13.059',3.89
'0:13.063',4.2
'0:13.066',4.56
'0:13.070',4.93
'0:13.074',5.28
'0:13.078',5.23
'0:13.082',4.99
'0:13.086',4.8
'0:13.090',4.71
'0:13.094',4.69
'0:13.098',4.66
'0:13.102',4.06
'0:13.105',3.34
'0:13.109',2.87
'0:13.113',2.48
'0:13.117',2.16
'0:13.121',1.92
'0:13.125',1.71
'0:13.129',1.54
'0:13.133',1.35
'0:13.137',1.03
'0:13.141',0.62
'0:13.145',0.17
'0:13.148',-0.15
'0:13.152',-0.47
'0:13.156',-0.63
'0:13.160',-0.66
'0:13.164',-0.79
'0:13.168',-1.08
'0:13.172',-1.57
'0:13.176',-2.15
'0:13.180',-2.58
'0:13.184',-2.84
'0:13.188',-2.96
'0:13.191',-3.04
'0:13.195',-3.09
'0:13.199',-3.02
'0:13.203',-2.86
'0:13.207',-2.68
'0:13.211',-2.68
'0:13.215',-2.95
'0:13.219',-3.29
'0:13.223',-3.55
'0:13.227',-3.44
'0:13.230',-2.96
'0:13.234',-2.07
'0:13.238',-0.6
'0:13.242',1.54
'0:13.246',3.97
'0:13.250',6.22
'0:13.254',6.65
'0:13.258',3.52
'0:13.262',-2.23
'0:13.266',-7.06
'0:13.270',-9.86
'0:13.273',-11
'0:13.277',-11.09
'0:13.281',-10.56
'0:13.285',-9.49
'0:13.289',-7.88
'0:13.293',-5.94
'0:13.297',-4.06
'0:13.301',-2.33
'0:13.305',-0.93
'0:13.309',0.12
'0:13.313',1.08
'0:13.316',1.82
'0:13.320',2.23
'0:13.324',2.41
'0:13.328',2.5
'0:13.332',2.76
'0:13.336',3.13
'0:13.340',3.4
'0:13.344',3.51
'0:13.348',3.61
'0:13.352',3.73
'0:13.355',3.77
'0:13.359',3.78
'0:13.363',3.83
'0:13.367',4.06
'0:13.371',4.32
'0:13.375',4.51
'0:13.379',4.64
'0:13.383',4.77
'0:13.387',4.87
'0:13.391',4.82
'0:13.395',4.64
'0:13.398',4.44
'0:13.402',4.32
'0:13.406',4.25
'0:13.410',4.1
'0:13.414',3.8
'0:13.418',3.27
'0:13.422',2.61
'0:13.426',2.17
'0:13.430',1.91
'0:13.434',1.7
'0:13.438',1.49
'0:13.441',1.33
'0:13.445',1.06
'0:13.449',0.52
'0:13.453',-0.14
'0:13.457',-0.55
'0:13.461',-0.68
'0:13.465',-0.71
'0:13.469',-0.79
'0:13.473',-1.01
'0:13.477',-1.48
'0:13.480',-2.05
'0:13.484',-2.51
'0:13.488',-2.9
'0:13.492',-3.14
'0:13.496',-3.21
'0:13.500',-3.22
'0:13.504',-3.25
'0:13.508',-3.17
'0:13.512',-3.08
'0:13.516',-3.08
'0:13.520',-3.29
'0:13.523',-3.66
'0:13.527',-4.14
'0:13.531',-4.55
'0:13.535',-4.5
'0:13.539',-3.96
'0:13.543',-3
'0:13.547',-1.61
'0:13.551',0.23
'0:13.555',2.48
'0:13.559',3.59
'0:13.563',1.67
'0:13.566',-3.24
'0:13.570',-8.29
'0:13.574',-11.22
'0:13.578',-12.05
'0:13.582',-11.81
'0:13.586',-10.79
'0:13.590',-8.92
'0:13.594',-6.57
'0:13.598',-4.35
'0:13.602',-2.44
'0:13.605',-0.88
'0:13.609',0.32
'0:13.613',1.33
'0:13.617',2.09
'0:13.621',2.62
'0:13.625',2.84
'0:13.629',2.83
'0:13.633',2.92
'0:13.637',3.04
'0:13.641',3.21
'0:13.645',3.34
'0:13.648',3.41
'0:13.652',3.37
'0:13.656',3.38
'0:13.660',3.44
'0:13.664',3.5
'0:13.668',3.73
'0:13.672',4.01
'0:13.676',4.31
'0:13.680',4.64
'0:13.684',4.98
'0:13.688',5.28
'0:13.691',5.52
'0:13.695',5.63
'0:13.699',5.58
'0:13.703',5.4
'0:13.707',5.11
'0:13.711',4.61
'0:13.715',4.09
'0:13.719',3.63
'0:13.723',3.18
'0:13.727',2.77
'0:13.730',2.46
'0:13.734',2.14
'0:13.738',1.77
'0:13.742',1.38
'0:13.746',0.97
'0:13.750',0.64
'0:13.754',0.42
'0:13.758',0.18
'0:13.762',0.01
'0:13.766',-0.29
'0:13.770',-0.71
'0:13.773',-0.97
'0:13.777',-1.16
'0:13.781',-1.49
'0:13.785',-1.78
'0:13.789',-2.03
'0:13.793',-2.25
'0:13.797',-2.51
'0:13.801',-2.89
'0:13.805',-3.25
'0:13.809',-3.45
'0:13.813',-3.55
'0:13.816',-3.51
'0:13.820',-3.41
'0:13.824',-3.25
'0:13.828',-2.97
'0:13.832',-2.71
'0:13.836',-2.68
'0:13.840',-2.82
'0:13.844',-3.06
'0:13.848',-3.22
'0:13.852',-2.9
'0:13.855',-2.06
'0:13.859',-0.64
'0:13.863',1.34
'0:13.867',3.53
'0:13.871',4.92
'0:13.875',3.74
'0:13.879',-0.61
'0:13.883',-5.96
'0:13.887',-9.62
'0:13.891',-11.14
'0:13.895',-11.18
'0:13.898',-10.49
'0:13.902',-9.2
'0:13.906',-7.5
'0:13.910',-5.6
'0:13.914',-3.67
'0:13.918',-1.9
'0:13.922',-0.38
'0:13.926',0.8
'0:13.930',1.78
'0:13.934',2.55
'0:13.938',2.77
'0:13.941',2.89
'0:13.945',2.95
'0:13.949',3.02
'0:13.953',3.09
'0:13.957',3.09
'0:13.961',3.06
'0:13.965',3.21
'0:13.969',3.54
'0:13.973',3.94
'0:13.977',4.11
'0:13.980',4.28
'0:13.984',4.52
'0:13.988',4.94
'0:13.992',5.18
'0:13.996',5.35
'0:14.000',5.58
'0:14.004',5.69
'0:14.008',5.95
'0:14.012',6.09
'0:14.016',5.93
'0:14.020',5.62
'0:14.023',5.26
'0:14.027',4.91
'0:14.031',4.46
'0:14.035',3.85
'0:14.039',3.47
'0:14.043',3.25
'0:14.047',2.83
'0:14.051',2.38
'0:14.055',1.85
'0:14.059',1.62
'0:14.063',1.49
'0:14.066',1.2
'0:14.070',1.16
'0:14.074',1.23
'0:14.078',0.99
'0:14.082',0.58
'0:14.086',0.22
'0:14.090',0.34
'0:14.094',-0.04
'0:14.098',-0.59
'0:14.102',-0.89
'0:14.105',-1.16
'0:14.109',-1.38
'0:14.113',-1.82
'0:14.117',-2.61
'0:14.121',-3.17
'0:14.125',-3.25
'0:14.129',-3.23
'0:14.133',-3.38
'0:14.137',-3.16
'0:14.141',-2.86
'0:14.145',-2.61
'0:14.148',-2.72
'0:14.152',-2.83
'0:14.156',-2.93
'0:14.160',-3.08
'0:14.164',-3.23
'0:14.168',-3.32
'0:14.172',-3.13
'0:14.176',-2.5
'0:14.180',-1.22
'0:14.184',0.82
'0:14.188',3.34
'0:14.191',5.28
'0:14.195',5.32
'0:14.199',1.63
'0:14.203',-3.92
'0:14.207',-8
'0:14.211',-9.83
'0:14.215',-10.27
'0:14.219',-10.17
'0:14.223',-9.67
'0:14.227',-8.89
'0:14.230',-7.6
'0:14.234',-5.88
'0:14.238',-4.01
'0:14.242',-2.18
'0:14.246',-0.41
'0:14.250',0.83
'0:14.254',1.67
'0:14.258',2.28
'0:14.262',2.61
'0:14.266',2.83
'0:14.270',2.71
'0:14.273',2.63
'0:14.277',2.72
'0:14.281',3.08
'0:14.285',3.28
'0:14.289',3.34
'0:14.293',3.31
'0:14.297',3.38
'0:14.301',3.59
'0:14.305',3.92
'0:14.309',4.21
'0:14.313',4.37
'0:14.316',4.66
'0:14.320',5.06
'0:14.324',5.17
'0:14.328',5.39
'0:14.332',5.69
'0:14.336',5.72
'0:14.340',5.39
'0:14.344',4.91
'0:14.348',4.38
'0:14.352',3.88
'0:14.355',3.27
'0:14.359',2.87
'0:14.363',2.71
'0:14.367',2.59
'0:14.371',2.38
'0:14.375',1.94
'0:14.379',1.53
'0:14.383',1.05
'0:14.387',0.44
'0:14.391',0.21
'0:14.395',0.13
'0:14.398',0.12
'0:14.402',0.14
'0:14.406',0.32
'0:14.410',0.07
'0:14.414',-0.48
'0:14.418',-0.74
'0:14.422',-0.79
'0:14.426',-1.14
'0:14.430',-1.52
'0:14.434',-1.93
'0:14.438',-2.31
'0:14.441',-2.68
'0:14.445',-3.03
'0:14.449',-3.16
'0:14.453',-3.28
'0:14.457',-3.24
'0:14.461',-3.03
'0:14.465',-2.76
'0:14.469',-2.52
'0:14.473',-2.2
'0:14.477',-2.18
'0:14.480',-2.6
'0:14.484',-3.16
'0:14.488',-3.57
'0:14.492',-3.5
'0:14.496',-2.8
'0:14.500',-1.3
'0:14.504',0.94
'0:14.508',3.56
'0:14.512',5.81
'0:14.516',6.63
'0:14.520',4.31
'0:14.523',-0.94
'0:14.527',-5.55
'0:14.531',-8.41
'0:14.535',-9.68
'0:14.539',-10.07
'0:14.543',-9.93
'0:14.547',-9.36
'0:14.551',-8.38
'0:14.555',-6.87
'0:14.559',-5.13
'0:14.563',-3.41
'0:14.566',-1.87
'0:14.570',-0.7
'0:14.574',0.21
'0:14.578',0.96
'0:14.582',1.57
'0:14.586',1.94
'0:14.590',2.18
'0:14.594',2.57
'0:14.598',2.99
'0:14.602',3.28
'0:14.605',3.49
'0:14.609',3.61
'0:14.613',3.56
'0:14.617',3.42
'0:14.621',3.31
'0:14.625',3.32
'0:14.629',3.29
'0:14.633',3.31
'0:14.637',3.61
'0:14.641',4.19
'0:14.645',4.76
'0:14.648',5.08
'0:14.652',5.01
'0:14.656',4.81
'0:14.660',4.6
'0:14.664',4.39
'0:14.668',4.2
'0:14.672',3.94
'0:14.676',3.55
'0:14.680',3.24
'0:14.684',2.85
'0:14.688',2.37
'0:14.691',1.8
'0:14.695',1.36
'0:14.699',1.01
'0:14.703',0.87
'0:14.707',0.95
'0:14.711',0.91
'0:14.715',0.73
'0:14.719',0.6
'0:14.723',0.34
'0:14.727',-0.17
'0:14.730',-0.61
'0:14.734',-0.93
'0:14.738',-1
'0:14.742',-1.06
'0:14.746',-1.46
'0:14.750',-1.88
'0:14.754',-2.13
'0:14.758',-2.31
'0:14.762',-2.47
'0:14.766',-2.65
'0:14.770',-2.9
'0:14.773',-3.13
'0:14.777',-3.29
'0:14.781',-3.07
'0:14.785',-2.69
'0:14.789',-2.67
'0:14.793',-3.21
'0:14.797',-3.71
'0:14.801',-4.06
'0:14.805',-4.2
'0:14.809',-4.04
'0:14.813',-3.51
'0:14.816',-2.54
'0:14.820',-0.83
'0:14.824',1.43
'0:14.828',3.28
'0:14.832',2.83
'0:14.836',-0.5
'0:14.840',-5
'0:14.844',-8.53
'0:14.848',-10.63
'0:14.852',-11.34
'0:14.855',-11.18
'0:14.859',-10.31
'0:14.863',-9.12
'0:14.867',-7.65
'0:14.871',-6.04
'0:14.875',-4.34
'0:14.879',-2.88
'0:14.883',-1.77
'0:14.887',-0.47
'0:14.891',0.69
'0:14.895',1.5
'0:14.898',2.1
'0:14.902',2.5
'0:14.906',2.57
'0:14.910',2.51
'0:14.914',2.53
'0:14.918',2.61
'0:14.922',2.62
'0:14.926',2.81
'0:14.930',3.2
'0:14.934',3.43
'0:14.938',3.31
'0:14.941',3.22
'0:14.945',3.23
'0:14.949',3.57
'0:14.953',3.68
'0:14.957',3.76
'0:14.961',4.44
'0:14.965',5.3
'0:14.969',5.63
'0:14.973',5.38
'0:14.977',4.8
'0:14.980',3.96
'0:14.984',3.27
'0:14.988',3.06
'0:14.992',3.05
'0:14.996',2.95
'0:15.000',2.68
'0:15.004',2.2
'0:15.008',1.56
'0:15.012',0.77
'0:15.016',0.15
'0:15.020',-0.11
'0:15.023',-0.18
'0:15.027',-0.44
'0:15.031',-0.74
'0:15.035',-1.19
'0:15.039',-1.57
'0:15.043',-1.81
'0:15.047',-2.08
'0:15.051',-2.21
'0:15.055',-2.4
'0:15.059',-2.61
'0:15.063',-2.79
'0:15.066',-3
'0:15.070',-3.2
'0:15.074',-3.51
'0:15.078',-3.84
'0:15.082',-4.05
'0:15.086',-4.08
'0:15.090',-4.06
'0:15.094',-4.02
'0:15.098',-3.88
'0:15.102',-3.75
'0:15.105',-3.79
'0:15.109',-3.99
'0:15.113',-4.23
'0:15.117',-4.22
'0:15.121',-3.92
'0:15.125',-3.18
'0:15.129',-1.99
'0:15.133',0
'0:15.137',2.51
'0:15.141',4.66
'0:15.145',4.62
'0:15.148',1.57
'0:15.152',-3.67
'0:15.156',-8.35
'0:15.160',-10.82
'0:15.164',-11.27
'0:15.168',-10.81
'0:15.172',-9.79
'0:15.176',-8.21
'0:15.180',-6.28
'0:15.184',-4.19
'0:15.188',-2.27
'0:15.191',-0.6
'0:15.195',0.73
'0:15.199',1.67
'0:15.203',2.29
'0:15.207',2.78
'0:15.211',3.17
'0:15.215',3.52
'0:15.219',3.84
'0:15.223',4
'0:15.227',4.08
'0:15.230',4.23
'0:15.234',4.24
'0:15.238',4.28
'0:15.242',4.38
'0:15.246',4.52
'0:15.250',4.69
'0:15.254',4.93
'0:15.258',5.38
'0:15.262',6
'0:15.266',6.24
'0:15.270',6.24
'0:15.273',6.18
'0:15.277',6.23
'0:15.281',6.35
'0:15.285',6.53
'0:15.289',6.4
'0:15.293',5.97
'0:15.297',5.34
'0:15.301',4.63
'0:15.305',4.16
'0:15.309',3.92
'0:15.313',3.78
'0:15.316',3.43
'0:15.320',2.97
'0:15.324',2.6
'0:15.328',2.28
'0:15.332',1.89
'0:15.336',1.75
'0:15.340',1.78
'0:15.344',1.64
'0:15.348',1.31
'0:15.352',0.9
'0:15.355',0.73
'0:15.359',0.74
'0:15.363',0.37
'0:15.367',-0.21
'0:15.371',-0.57
'0:15.375',-0.69
'0:15.379',-0.86
'0:15.383',-1.1
'0:15.387',-1.51
'0:15.391',-1.93
'0:15.395',-2.46
'0:15.398',-3.05
'0:15.402',-3.25
'0:15.406',-3.25
'0:15.410',-2.87
'0:15.414',-2.56
'0:15.418',-2.29
'0:15.422',-2.23
'0:15.426',-2.61
'0:15.430',-2.99
'0:15.434',-3.38
'0:15.438',-3.43
'0:15.441',-3.04
'0:15.445',-2.49
'0:15.449',-1.41
'0:15.453',0.65
'0:15.457',3.22
'0:15.461',5.47
'0:15.465',6.01
'0:15.469',2.83
'0:15.473',-2.73
'0:15.477',-7.24
'0:15.480',-9.79
'0:15.484',-10.45
'0:15.488',-10.12
'0:15.492',-9.55
'0:15.496',-8.76
'0:15.500',-7.29
'0:15.504',-5.24
'0:15.508',-3.13
'0:15.512',-1.55
'0:15.516',-0.13
'0:15.520',0.7
'0:15.523',1.25
'0:15.527',1.83
'0:15.531',2.21
'0:15.535',2.47
'0:15.539',2.86
'0:15.543',3.01
'0:15.547',3.09
'0:15.551',3.33
'0:15.555',3.5
'0:15.559',3.72
'0:15.563',3.81
'0:15.566',3.56
'0:15.570',3.31
'0:15.574',3.28
'0:15.578',3.6
'0:15.582',4.21
'0:15.586',4.69
'0:15.590',4.78
'0:15.594',5.08
'0:15.598',5.5
'0:15.602',5.65
'0:15.605',5.47
'0:15.609',5.07
'0:15.613',4.46
'0:15.617',3.97
'0:15.621',3.65
'0:15.625',3.15
'0:15.629',2.73
'0:15.633',2.47
'0:15.637',2.16
'0:15.641',1.86
'0:15.645',1.8
'0:15.648',1.78
'0:15.652',1.54
'0:15.656',1.4
'0:15.660',1.23
'0:15.664',1.01
'0:15.668',0.84
'0:15.672',0.81
'0:15.676',0.6
'0:15.680',0.17
'0:15.684',-0.27
'0:15.688',-0.33
'0:15.691',-0.45
'0:15.695',-0.65
'0:15.699',-0.94
'0:15.703',-1.29
'0:15.707',-1.81
'0:15.711',-2.21
'0:15.715',-2.56
'0:15.719',-3.04
'0:15.723',-3.37
'0:15.727',-3.32
'0:15.730',-3.1
'0:15.734',-2.94
'0:15.738',-2.95
'0:15.742',-3
'0:15.746',-3.02
'0:15.750',-3.16
'0:15.754',-3.16
'0:15.758',-2.95
'0:15.762',-2.58
'0:15.766',-1.84
'0:15.770',-0.6
'0:15.773',1.22
'0:15.777',3.83
'0:15.781',6.38
'0:15.785',7.82
'0:15.789',6.83
'0:15.793',2.32
'0:15.797',-3.12
'0:15.801',-7.12
'0:15.805',-9.28
'0:15.809',-10.13
'0:15.813',-10.17
'0:15.816',-9.65
'0:15.820',-8.72
'0:15.824',-7.28
'0:15.828',-5.59
'0:15.832',-3.85
'0:15.836',-2.28
'0:15.840',-1
'0:15.844',-0.08
'0:15.848',0.72
'0:15.852',1.41
'0:15.855',1.88
'0:15.859',2.23
'0:15.863',2.43
'0:15.867',2.53
'0:15.871',2.56
'0:15.875',2.63
'0:15.879',2.73
'0:15.883',2.97
'0:15.887',3.14
'0:15.891',3.21
'0:15.895',3.36
'0:15.898',3.52
'0:15.902',3.56
'0:15.906',3.49
'0:15.910',3.58
'0:15.914',3.88
'0:15.918',4.3
'0:15.922',4.55
'0:15.926',4.63
'0:15.930',4.61
'0:15.934',4.38
'0:15.938',3.94
'0:15.941',3.48
'0:15.945',3.2
'0:15.949',2.98
'0:15.953',2.76
'0:15.957',2.31
'0:15.961',1.91
'0:15.965',1.72
'0:15.969',1.5
'0:15.973',1.24
'0:15.977',0.92
'0:15.980',0.69
'0:15.984',0.49
'0:15.988',0.31
'0:15.992',0
'0:15.996',-0.33
'0:16.000',-0.55
'0:16.004',-0.7
'0:16.008',-0.78
'0:16.012',-0.87
'0:16.016',-1.15
'0:16.020',-1.65
'0:16.023',-2.21
'0:16.027',-2.89
'0:16.031',-3.47
'0:16.035',-3.82
'0:16.039',-3.76
'0:16.043',-3.57
'0:16.047',-3.46
'0:16.051',-3.5
'0:16.055',-3.47
'0:16.059',-3.25
'0:16.063',-3.23
'0:16.066',-3.54
'0:16.070',-4
'0:16.074',-4.26
'0:16.078',-4.08
'0:16.082',-3.49
'0:16.086',-2.44
'0:16.090',-0.7
'0:16.094',1.53
'0:16.098',3.5
'0:16.102',3.74
'0:16.105',1.02
'0:16.109',-4.18
'0:16.113',-8.59
'0:16.117',-10.85
'0:16.121',-11.4
'0:16.125',-11.09
'0:16.129',-10.24
'0:16.133',-8.88
'0:16.137',-7.01
'0:16.141',-4.87
'0:16.145',-2.9
'0:16.148',-1.26
'0:16.152',-0.09
'0:16.156',0.75
'0:16.160',1.41
'0:16.164',1.93
'0:16.168',2.38
'0:16.172',2.69
'0:16.176',2.97
'0:16.180',3.15
'0:16.184',3.28
'0:16.188',3.45
'0:16.191',3.6
'0:16.195',3.63
'0:16.199',3.63
'0:16.203',3.63
'0:16.207',3.65
'0:16.211',3.77
'0:16.215',4
'0:16.219',4.34
'0:16.223',4.62
'0:16.227',4.82
'0:16.230',5.01
'0:16.234',5.26
'0:16.238',5.52
'0:16.242',5.55
'0:16.246',5.4
'0:16.250',4.95
'0:16.254',4.39
'0:16.258',3.96
'0:16.262',3.51
'0:16.266',3.06
'0:16.270',2.74
'0:16.273',2.5
'0:16.277',2.16
'0:16.281',1.79
'0:16.285',1.38
'0:16.289',1.01
'0:16.293',0.7
'0:16.297',0.4
'0:16.301',0.14
'0:16.305',-0.08
'0:16.309',-0.27
'0:16.313',-0.52
'0:16.316',-0.81
'0:16.320',-1.13
'0:16.324',-1.45
'0:16.328',-1.7
'0:16.332',-1.86
'0:16.336',-2.1
'0:16.340',-2.49
'0:16.344',-2.88
'0:16.348',-3.37
'0:16.352',-3.84
'0:16.355',-3.96
'0:16.359',-3.86
'0:16.363',-3.69
'0:16.367',-3.49
'0:16.371',-3.25
'0:16.375',-3.05
'0:16.379',-3.07
'0:16.383',-3.23
'0:16.387',-3.42
'0:16.391',-3.58
'0:16.395',-3.44
'0:16.398',-3
'0:16.402',-2
'0:16.406',-0.36
'0:16.410',1.9
'0:16.414',4.22
'0:16.418',5.35
'0:16.422',3.76
'0:16.426',-0.83
'0:16.430',-6.07
'0:16.434',-9.63
'0:16.438',-11.12
'0:16.441',-11.27
'0:16.445',-10.68
'0:16.449',-9.48
'0:16.453',-7.64
'0:16.457',-5.45
'0:16.461',-3.46
'0:16.465',-1.7
'0:16.469',-0.18
'0:16.473',0.93
'0:16.477',1.62
'0:16.480',2.01
'0:16.484',2.26
'0:16.488',2.5
'0:16.492',2.67
'0:16.496',2.89
'0:16.500',3.12
'0:16.504',3.14
'0:16.508',3.22
'0:16.512',3.43
'0:16.516',3.79
'0:16.520',4.11
'0:16.523',4.28
'0:16.527',4.56
'0:16.531',4.82
'0:16.535',5.1
'0:16.539',5.49
'0:16.543',5.83
'0:16.547',5.92
'0:16.551',5.83
'0:16.555',5.82
'0:16.559',5.7
'0:16.563',5.47
'0:16.566',5.22
'0:16.570',4.85
'0:16.574',4.36
'0:16.578',3.76
'0:16.582',3.14
'0:16.586',2.59
'0:16.590',2.18
'0:16.594',1.88
'0:16.598',1.64
'0:16.602',1.45
'0:16.605',1.14
'0:16.609',0.81
'0:16.613',0.66
'0:16.617',0.61
'0:16.621',0.72
'0:16.625',0.78
'0:16.629',0.48
'0:16.633',-0.03
'0:16.637',-0.38
'0:16.641',-0.55
'0:16.645',-0.67
'0:16.648',-0.98
'0:16.652',-1.19
'0:16.656',-1.4
'0:16.660',-1.74
'0:16.664',-1.98
'0:16.668',-2.31
'0:16.672',-2.61
'0:16.676',-2.91
'0:16.680',-3.07
'0:16.684',-2.85
'0:16.688',-2.85
'0:16.691',-2.99
'0:16.695',-2.92
'0:16.699',-2.75
'0:16.703',-2.54
'0:16.707',-2.42
'0:16.711',-2.61
'0:16.715',-3.14
'0:16.719',-3.5
'0:16.723',-3
'0:16.727',-1.99
'0:16.730',-0.5
'0:16.734',1.85
'0:16.738',4.05
'0:16.742',5.63
'0:16.746',5.24
'0:16.750',1.44
'0:16.754',-3.81
'0:16.758',-7.89
'0:16.762',-9.79
'0:16.766',-10.12
'0:16.770',-9.86
'0:16.773',-9.29
'0:16.777',-8.61
'0:16.781',-7.32
'0:16.785',-5.61
'0:16.789',-3.66
'0:16.793',-2.01
'0:16.797',-0.54
'0:16.801',0.73
'0:16.805',1.46
'0:16.809',2.1
'0:16.813',2.33
'0:16.816',2.48
'0:16.820',2.95
'0:16.824',3.28
'0:16.828',3.48
'0:16.832',3.35
'0:16.836',3.28
'0:16.840',3.54
'0:16.844',3.89
'0:16.848',3.97
'0:16.852',3.95
'0:16.855',3.85
'0:16.859',3.98
'0:16.863',4.46
'0:16.867',5
'0:16.871',5.31
'0:16.875',5.57
'0:16.879',5.81
'0:16.883',5.99
'0:16.887',5.75
'0:16.891',5.17
'0:16.895',4.72
'0:16.898',4.22
'0:16.902',3.58
'0:16.906',3.11
'0:16.910',2.8
'0:16.914',2.37
'0:16.918',1.99
'0:16.922',1.79
'0:16.926',1.5
'0:16.930',1.16
'0:16.934',0.91
'0:16.938',0.78
'0:16.941',0.66
'0:16.945',0.47
'0:16.949',0.32
'0:16.953',0.25
'0:16.957',0.04
'0:16.961',-0.34
'0:16.965',-0.6
'0:16.969',-0.7
'0:16.973',-0.75
'0:16.977',-0.7
'0:16.980',-0.71
'0:16.984',-0.83
'0:16.988',-1.46
'0:16.992',-2.23
'0:16.996',-2.87
'0:17.000',-3.2
'0:17.004',-3.51
'0:17.008',-3.73
'0:17.012',-3.73
'0:17.016',-3.54
'0:17.020',-3.38
'0:17.023',-3.41
'0:17.027',-3.48
'0:17.031',-3.53
'0:17.035',-3.64
'0:17.039',-3.7
'0:17.043',-3.56
'0:17.047',-3.28
'0:17.051',-2.69
'0:17.055',-1.53
'0:17.059',0.27
'0:17.063',2.37
'0:17.066',4.47
'0:17.070',5.6
'0:17.074',3.44
'0:17.078',-1.6
'0:17.082',-6.41
'0:17.086',-9.53
'0:17.090',-10.87
'0:17.094',-11.06
'0:17.098',-10.71
'0:17.102',-9.95
'0:17.105',-8.69
'0:17.109',-6.95
'0:17.113',-5
'0:17.117',-3.19
'0:17.121',-1.8
'0:17.125',-0.79
'0:17.129',-0.02
'0:17.133',0.66
'0:17.137',1.17
'0:17.141',1.5
'0:17.145',1.75
'0:17.148',1.92
'0:17.152',2.16
'0:17.156',2.47
'0:17.160',2.75
'0:17.164',2.95
'0:17.168',3.11
'0:17.172',3.19
'0:17.176',3.4
'0:17.180',3.69
'0:17.184',3.88
'0:17.188',3.97
'0:17.191',4.06
'0:17.195',4.14
'0:17.199',4.28
'0:17.203',4.31
'0:17.207',4.36
'0:17.211',4.55
'0:17.215',4.54
'0:17.219',4.23
'0:17.223',3.71
'0:17.227',3.21
'0:17.230',3.01
'0:17.234',2.85
'0:17.238',2.64
'0:17.242',2.29
'0:17.246',1.87
'0:17.250',1.39
'0:17.254',0.83
'0:17.258',0.43
'0:17.262',0.13
'0:17.266',0.09
'0:17.270',0.22
'0:17.273',0.25
'0:17.277',-0.07
'0:17.281',-0.58
'0:17.285',-1.1
'0:17.289',-1.41
'0:17.293',-1.6
'0:17.297',-2
'0:17.301',-2.42
'0:17.305',-2.76
'0:17.309',-3.03
'0:17.313',-3.32
'0:17.316',-3.67
'0:17.320',-3.64
'0:17.324',-3.58
'0:17.328',-3.58
'0:17.332',-3.54
'0:17.336',-3.41
'0:17.340',-3.4
'0:17.344',-3.43
'0:17.348',-3.5
'0:17.352',-3.81
'0:17.355',-4.34
'0:17.359',-4.61
'0:17.363',-4.38
'0:17.367',-3.78
'0:17.371',-2.8
'0:17.375',-1.18
'0:17.379',0.98
'0:17.383',3.01
'0:17.387',3.17
'0:17.391',0.16
'0:17.395',-5
'0:17.398',-9.18
'0:17.402',-11.12
'0:17.406',-11.27
'0:17.410',-10.78
'0:17.414',-10.25
'0:17.418',-9.22
'0:17.422',-7.3
'0:17.426',-5
'0:17.430',-2.88
'0:17.434',-1.16
'0:17.438',0.34
'0:17.441',1.47
'0:17.445',2.17
'0:17.449',2.67
'0:17.453',3.06
'0:17.457',3.23
'0:17.461',3.35
'0:17.465',3.53
'0:17.469',3.86
'0:17.473',4.09
'0:17.477',4.01
'0:17.480',4.09
'0:17.484',4.34
'0:17.488',4.41
'0:17.492',4.41
'0:17.496',4.5
'0:17.500',4.76
'0:17.504',5.05
'0:17.508',5.51
'0:17.512',6.12
'0:17.516',6.52
'0:17.520',6.56
'0:17.523',6.37
'0:17.527',6.12
'0:17.531',5.74
'0:17.535',5.33
'0:17.539',4.91
'0:17.543',4.39
'0:17.547',3.71
'0:17.551',3.03
'0:17.555',2.66
'0:17.559',2.31
'0:17.563',1.96
'0:17.566',1.93
'0:17.570',1.96
'0:17.574',1.77
'0:17.578',1.43
'0:17.582',1.02
'0:17.586',0.71
'0:17.590',0.54
'0:17.594',0.33
'0:17.598',0.06
'0:17.602',-0.23
'0:17.605',-0.52
'0:17.609',-0.91
'0:17.613',-1.23
'0:17.617',-1.43
'0:17.621',-1.57
'0:17.625',-1.79
'0:17.629',-2.01
'0:17.633',-2.34
'0:17.637',-2.82
'0:17.641',-3.22
'0:17.645',-3.5
'0:17.648',-3.51
'0:17.652',-3.46
'0:17.656',-3.37
'0:17.660',-3.17
'0:17.664',-2.98
'0:17.668',-2.81
'0:17.672',-2.67
'0:17.676',-2.68
'0:17.680',-2.75
'0:17.684',-2.73
'0:17.688',-2.48
'0:17.691',-1.74
'0:17.695',-0.46
'0:17.699',1.59
'0:17.703',3.91
'0:17.707',5.54
'0:17.711',5.07
'0:17.715',1.45
'0:17.719',-3.83
'0:17.723',-7.94
'0:17.727',-10.06
'0:17.730',-10.57
'0:17.734',-10.25
'0:17.738',-9.39
'0:17.742',-7.96
'0:17.746',-6.15
'0:17.750',-4.26
'0:17.754',-2.46
'0:17.758',-0.79
'0:17.762',0.43
'0:17.766',1.1
'0:17.770',1.48
'0:17.773',1.98
'0:17.777',2.42
'0:17.781',2.63
'0:17.785',2.64
'0:17.789',2.58
'0:17.793',2.57
'0:17.797',2.6
'0:17.801',2.77
'0:17.805',3.01
'0:17.809',3.19
'0:17.813',3.45
'0:17.816',3.67
'0:17.820',3.92
'0:17.824',4.2
'0:17.828',4.55
'0:17.832',4.86
'0:17.836',5.13
'0:17.840',5.36
'0:17.844',5.41
'0:17.848',5.37
'0:17.852',5.2
'0:17.855',4.8
'0:17.859',4.29
'0:17.863',3.82
'0:17.867',3.36
'0:17.871',2.9
'0:17.875',2.61
'0:17.879',2.15
'0:17.883',1.67
'0:17.887',1.45
'0:17.891',1.37
'0:17.895',1.27
'0:17.898',1.06
'0:17.902',0.75
'0:17.906',0.5
'0:17.910',0.41
'0:17.914',0.27
'0:17.918',0.22
'0:17.922',0.11
'0:17.926',-0.28
'0:17.930',-0.75
'0:17.934',-1.34
'0:17.938',-1.77
'0:17.941',-1.79
'0:17.945',-1.94
'0:17.949',-2.25
'0:17.953',-2.6
'0:17.957',-2.93
'0:17.961',-3.38
'0:17.965',-3.9
'0:17.969',-4.13
'0:17.973',-4.33
'0:17.977',-4.29
'0:17.980',-4.06
'0:17.984',-3.87
'0:17.988',-3.48
'0:17.992',-2.98
'0:17.996',-3
'0:18.000',-3.02
'0:18.004',-3.3
'0:18.008',-3.76
'0:18.012',-3.77
'0:18.016',-3.13
'0:18.020',-1.93
'0:18.023',-0.18
'0:18.027',2.26
'0:18.031',4.41
'0:18.035',5.34
'0:18.039',3.32
'0:18.043',-1.7
'0:18.047',-6.34
'0:18.051',-9.22
'0:18.055',-10.21
'0:18.059',-10
'0:18.063',-9.59
'0:18.066',-8.95
'0:18.070',-7.72
'0:18.074',-6.11
'0:18.078',-4.59
'0:18.082',-3.01
'0:18.086',-1.38
'0:18.090',0.05
'0:18.094',1.06
'0:18.098',1.88
'0:18.102',2.16
'0:18.105',2.4
'0:18.109',2.95
'0:18.113',3.44
'0:18.117',3.52
'0:18.121',3.53
'0:18.125',3.53
'0:18.129',3.77
'0:18.133',3.78
'0:18.137',3.78
'0:18.141',4.1
'0:18.145',4.47
'0:18.148',4.56
'0:18.152',4.53
'0:18.156',4.67
'0:18.160',5.16
'0:18.164',5.76
'0:18.168',5.87
'0:18.172',5.87
'0:18.176',5.78
'0:18.180',5.53
'0:18.184',4.88
'0:18.188',4.28
'0:18.191',4.08
'0:18.195',3.7
'0:18.199',3.46
'0:18.203',3.4
'0:18.207',2.81
'0:18.211',2.15
'0:18.215',1.7
'0:18.219',1.34
'0:18.223',1.13
'0:18.227',1.07
'0:18.230',1.37
'0:18.234',1.47
'0:18.238',1.05
'0:18.242',0.69
'0:18.246',0.42
'0:18.250',0.23
'0:18.254',-0.21
'0:18.258',-0.76
'0:18.262',-0.89
'0:18.266',-0.42
'0:18.270',-0.36
'0:18.273',-0.4
'0:18.277',-0.96
'0:18.281',-1.63
'0:18.285',-2.09
'0:18.289',-2.45
'0:18.293',-2.74
'0:18.297',-3.06
'0:18.301',-2.99
'0:18.305',-2.9
'0:18.309',-2.88
'0:18.313',-2.62
'0:18.316',-2.31
'0:18.320',-2.09
'0:18.324',-2.14
'0:18.328',-2.35
'0:18.332',-2.71
'0:18.336',-2.9
'0:18.340',-2.63
'0:18.344',-1.96
'0:18.348',-0.43
'0:18.352',2
'0:18.355',4.55
'0:18.359',6.92
'0:18.363',8.15
'0:18.367',6.57
'0:18.371',1.5
'0:18.375',-3.85
'0:18.379',-7.48
'0:18.383',-9.41
'0:18.387',-10.12
'0:18.391',-10.39
'0:18.395',-10.15
'0:18.398',-9.37
'0:18.402',-8.03
'0:18.406',-6.42
'0:18.410',-4.65
'0:18.414',-3.2
'0:18.418',-2.02
'0:18.422',-1.12
'0:18.426',-0.54
'0:18.430',-0.31
'0:18.434',-0.27
'0:18.438',0.08
'0:18.441',0.85
'0:18.445',1.55
'0:18.449',2.13
'0:18.453',2.61
'0:18.457',2.97
'0:18.461',3.21
'0:18.465',3.31
'0:18.469',3.2
'0:18.473',3.28
'0:18.477',3.73
'0:18.480',4.13
'0:18.484',4.35
'0:18.488',4.53
'0:18.492',4.57
'0:18.496',4.38
'0:18.500',4.38
'0:18.504',4.37
'0:18.508',4.2
'0:18.512',3.89
'0:18.516',3.43
'0:18.520',2.86
'0:18.523',2.24
'0:18.527',1.84
'0:18.531',1.66
'0:18.535',1.42
'0:18.539',1.11
'0:18.543',0.68
'0:18.547',0.17
'0:18.551',-0.26
'0:18.555',-0.39
'0:18.559',-0.25
'0:18.563',-0.07
'0:18.566',-0.13
'0:18.570',-0.24
'0:18.574',-0.36
'0:18.578',-0.33
'0:18.582',-0.66
'0:18.586',-1.01
'0:18.590',-1.14
'0:18.594',-1.33
'0:18.598',-1.55
'0:18.602',-1.91
'0:18.605',-2.65
'0:18.609',-3.46
'0:18.613',-3.89
'0:18.617',-3.95
'0:18.621',-3.91
'0:18.625',-4.23
'0:18.629',-4.27
'0:18.633',-3.91
'0:18.637',-3.64
'0:18.641',-3.6
'0:18.645',-3.79
'0:18.648',-4.17
'0:18.652',-4.89
'0:18.656',-5.33
'0:18.660',-4.94
'0:18.664',-4.17
'0:18.668',-3.14
'0:18.672',-1.6
'0:18.676',0.29
'0:18.680',2.41
'0:18.684',4.01
'0:18.688',3.15
'0:18.691',-1.12
'0:18.695',-6.17
'0:18.699',-9.72
'0:18.703',-11.43
'0:18.707',-11.79
'0:18.711',-11.61
'0:18.715',-10.95
'0:18.719',-9.68
'0:18.723',-7.94
'0:18.727',-6.06
'0:18.730',-4.28
'0:18.734',-2.74
'0:18.738',-1.27
'0:18.742',-0.02
'0:18.746',0.89
'0:18.750',1.72
'0:18.754',2.33
'0:18.758',2.46
'0:18.762',2.48
'0:18.766',2.58
'0:18.770',2.54
'0:18.773',2.51
'0:18.777',2.78
'0:18.781',3.04
'0:18.785',3.3
'0:18.789',3.59
'0:18.793',3.84
'0:18.797',3.99
'0:18.801',4.43
'0:18.805',5.14
'0:18.809',5.55
'0:18.813',5.63
'0:18.816',5.82
'0:18.820',6.03
'0:18.824',6.16
'0:18.828',6.28
'0:18.832',6.24
'0:18.836',5.85
'0:18.840',5.06
'0:18.844',4.21
'0:18.848',3.28
'0:18.852',2.67
'0:18.855',2.51
'0:18.859',2.32
'0:18.863',2.2
'0:18.867',2.04
'0:18.871',1.52
'0:18.875',1.27
'0:18.879',1.3
'0:18.883',1.27
'0:18.887',1.2
'0:18.891',1.25
'0:18.895',1.19
'0:18.898',0.98
'0:18.902',0.62
'0:18.906',0.38
'0:18.910',0.09
'0:18.914',-0.58
'0:18.918',-0.83
'0:18.922',-0.64
'0:18.926',-0.63
'0:18.930',-0.85
'0:18.934',-1.48
'0:18.938',-2.07
'0:18.941',-2.4
'0:18.945',-2.41
'0:18.949',-2.36
'0:18.953',-2.27
'0:18.957',-2.19
'0:18.961',-2.13
'0:18.965',-2.36
'0:18.969',-2.51
'0:18.973',-2.69
'0:18.977',-2.92
'0:18.980',-3.13
'0:18.984',-3.31
'0:18.988',-3.22
'0:18.992',-2.82
'0:18.996',-1.63
'0:19.000',0.67
'0:19.004',3.54
'0:19.008',5.65
'0:19.012',5.34
'0:19.016',1.61
'0:19.020',-3.61
'0:19.023',-7.45
'0:19.027',-9.5
'0:19.031',-9.98
'0:19.035',-9.65
'0:19.039',-8.85
'0:19.043',-7.7
'0:19.047',-6.16
'0:19.051',-4.29
'0:19.055',-2.43
'0:19.059',-0.82
'0:19.063',0.31
'0:19.066',1.07
'0:19.070',1.99
'0:19.074',2.71
'0:19.078',2.86
'0:19.082',2.62
'0:19.086',2.71
'0:19.090',3.47
'0:19.094',4.19
'0:19.098',4.55
'0:19.102',4.57
'0:19.105',4.51
'0:19.109',4.51
'0:19.113',4.58
'0:19.117',4.77
'0:19.121',4.96
'0:19.125',5.23
'0:19.129',5.61
'0:19.133',5.84
'0:19.137',5.85
'0:19.141',5.73
'0:19.145',6.03
'0:19.148',6.47
'0:19.152',6.61
'0:19.156',6.1
'0:19.160',5.34
'0:19.164',5.03
'0:19.168',4.91
'0:19.172',4.37
'0:19.176',3.65
'0:19.180',3.05
'0:19.184',2.57
'0:19.188',2.21
'0:19.191',1.82
'0:19.195',1.37
'0:19.199',1.29
'0:19.203',1.23
'0:19.207',1.08
'0:19.211',0.89
'0:19.215',0.67
'0:19.219',0.5
'0:19.223',0.21
'0:19.227',-0.13
'0:19.230',-0.41
'0:19.234',-0.74
'0:19.238',-1.06
'0:19.242',-1.24
'0:19.246',-1.27
'0:19.250',-1.4
'0:19.254',-1.71
'0:19.258',-2.15
'0:19.262',-2.59
'0:19.266',-2.84
'0:19.270',-2.91
'0:19.273',-2.97
'0:19.277',-3.16
'0:19.281',-3.27
'0:19.285',-3.2
'0:19.289',-2.89
'0:19.293',-2.68
'0:19.297',-2.89
'0:19.301',-3.11
'0:19.305',-3.19
'0:19.309',-3.24
'0:19.313',-2.94
'0:19.316',-2.53
'0:19.320',-1.77
'0:19.324',-0.45
'0:19.328',1.7
'0:19.332',4.31
'0:19.336',6.08
'0:19.340',4.87
'0:19.344',0.09
'0:19.348',-5.32
'0:19.352',-8.91
'0:19.355',-10.44
'0:19.359',-10.73
'0:19.363',-10.66
'0:19.367',-10.19
'0:19.371',-9.2
'0:19.375',-7.51
'0:19.379',-5.32
'0:19.383',-3.29
'0:19.387',-1.59
'0:19.391',-0.35
'0:19.395',0.5
'0:19.398',1.22
'0:19.402',1.85
'0:19.406',2.28
'0:19.410',2.28
'0:19.414',2.24
'0:19.418',2.59
'0:19.422',2.93
'0:19.426',3.3
'0:19.430',3.49
'0:19.434',3.58
'0:19.438',3.56
'0:19.441',3.46
'0:19.445',3.68
'0:19.449',3.96
'0:19.453',4.24
'0:19.457',4.61
'0:19.461',5.08
'0:19.465',5.1
'0:19.469',5.2
'0:19.473',5.46
'0:19.477',5.32
'0:19.480',5.2
'0:19.484',4.79
'0:19.488',4.3
'0:19.492',3.85
'0:19.496',3.33
'0:19.500',2.78
'0:19.504',2.25
'0:19.508',2.03
'0:19.512',1.9
'0:19.516',1.63
'0:19.520',1.3
'0:19.523',1.06
'0:19.527',0.69
