'0:00.000',1.39
'0:00.004',1.46
'0:00.008',1.51
'0:00.012',1.84
'0:00.016',2.28
'0:00.020',2.42
'0:00.023',2.58
'0:00.027',2.85
'0:00.031',2.67
'0:00.035',2.46
'0:00.039',2.6
'0:00.043',2.91
'0:00.047',3.14
'0:00.051',3.17
'0:00.055',3.56
'0:00.059',4.01
'0:00.063',4.35
'0:00.066',4.85
'0:00.070',5.42
'0:00.074',5.6
'0:00.078',5.89
'0:00.082',5.65
'0:00.086',5.49
'0:00.090',5.49
'0:00.094',5.37
'0:00.098',4.99
'0:00.102',4.47
'0:00.105',3.86
'0:00.109',3.15
'0:00.113',2.39
'0:00.117',1.64
'0:00.121',1.06
'0:00.125',0.85
'0:00.129',0.88
'0:00.133',0.9
'0:00.137',0.83
'0:00.141',0.73
'0:00.145',0.67
'0:00.148',0.57
'0:00.152',0.49
'0:00.156',0.38
'0:00.160',0.18
'0:00.164',0.01
'0:00.168',-0.21
'0:00.172',-0.54
'0:00.176',-0.86
'0:00.180',-1.27
'0:00.184',-1.69
'0:00.188',-1.95
'0:00.191',-2.04
'0:00.195',-2.26
'0:00.199',-2.54
'0:00.203',-2.75
'0:00.207',-2.92
'0:00.211',-3.03
'0:00.215',-3.09
'0:00.219',-3.23
'0:00.223',-3.49
'0:00.227',-3.79
'0:00.230',-3.96
'0:00.234',-3.92
'0:00.238',-4.03
'0:00.242',-4.14
'0:00.246',-3.99
'0:00.250',-3.73
'0:00.254',-3.6
'0:00.258',-3.44
'0:00.262',-3.13
'0:00.266',-2.33
'0:00.270',-0.47
'0:00.273',2.31
'0:00.277',4.9
'0:00.281',4.69
'0:00.285',1.47
'0:00.289',-3.44
'0:00.293',-7.93
'0:00.297',-10.17
'0:00.301',-10.2
'0:00.305',-9.04
'0:00.309',-7.39
'0:00.313',-6.04
'0:00.316',-5.05
'0:00.320',-4.32
'0:00.324',-3.52
'0:00.328',-2.57
'0:00.332',-2.14
'0:00.336',-2.24
'0:00.340',-1.92
'0:00.344',-1.4
'0:00.348',-1.4
'0:00.352',-1.71
'0:00.355',-1.92
'0:00.359',-1.79
'0:00.363',-1.55
'0:00.367',-0.97
'0:00.371',-0.54
'0:00.375',-0.39
'0:00.379',-0.25
'0:00.383',0.13
'0:00.387',0.99
'0:00.391',1.77
'0:00.395',1.63
'0:00.398',1.6
'0:00.402',2.24
'0:00.406',3.04
'0:00.410',3.87
'0:00.414',4.43
'0:00.418',4.23
'0:00.422',3.68
'0:00.426',3.3
'0:00.430',3.4
'0:00.434',3.61
'0:00.438',3.64
'0:00.441',3.42
'0:00.445',3.2
'0:00.449',2.22
'0:00.453',0.92
'0:00.457',0
'0:00.461',-0.52
'0:00.465',-0.96
'0:00.469',-1.16
'0:00.473',-1.12
'0:00.477',-0.97
'0:00.480',-0.81
'0:00.484',-0.09
'0:00.488',0.71
'0:00.492',0.8
'0:00.496',0.06
'0:00.500',-0.46
'0:00.504',0.01
'0:00.508',0.46
'0:00.512',0.16
'0:00.516',-0.21
'0:00.520',-0.39
'0:00.523',-0.8
'0:00.527',-1.09
'0:00.531',-0.98
'0:00.535',-0.99
'0:00.539',-1.33
'0:00.543',-1.61
'0:00.547',-2.37
'0:00.551',-3.31
'0:00.555',-3.54
'0:00.559',-3.45
'0:00.563',-3.34
'0:00.566',-3.01
'0:00.570',-2.69
'0:00.574',-2.96
'0:00.578',-3.3
'0:00.582',-3.22
'0:00.586',-3.28
'0:00.590',-3.55
'0:00.594',-3.58
'0:00.598',-3.61
'0:00.602',-3.44
'0:00.605',-3.31
'0:00.609',-2.65
'0:00.613',-0.99
'0:00.617',1.6
'0:00.621',4.68
'0:00.625',6.29
'0:00.629',4.81
'0:00.633',0.15
'0:00.637',-5.12
'0:00.641',-8.24
'0:00.645',-8.82
'0:00.648',-7.84
'0:00.652',-6.45
'0:00.656',-5.2
'0:00.660',-4.08
'0:00.664',-2.91
'0:00.668',-1.95
'0:00.672',-1.22
'0:00.676',-0.39
'0:00.680',0.56
'0:00.684',1.17
'0:00.688',1.34
'0:00.691',1.37
'0:00.695',1.32
'0:00.699',1.38
'0:00.703',1.6
'0:00.707',1.85
'0:00.711',2.18
'0:00.715',2.46
'0:00.719',2.6
'0:00.723',2.62
'0:00.727',2.52
'0:00.730',2.7
'0:00.734',2.99
'0:00.738',3.03
'0:00.742',3.14
'0:00.746',3.32
'0:00.750',3.64
'0:00.754',4.69
'0:00.758',5.75
'0:00.762',6.28
'0:00.766',6.57
'0:00.770',6.45
'0:00.773',5.84
'0:00.777',5.02
'0:00.781',4.48
'0:00.785',3.9
'0:00.789',3.36
'0:00.793',2.95
'0:00.797',2.36
'0:00.801',2.34
'0:00.805',2.51
'0:00.809',2.72
'0:00.813',2.81
'0:00.816',2.49
'0:00.820',1.76
'0:00.824',1.22
'0:00.828',0.98
'0:00.832',0.86
'0:00.836',0.83
'0:00.840',0.96
'0:00.844',1.35
'0:00.848',1.5
'0:00.852',1.11
'0:00.855',0.97
'0:00.859',0.81
'0:00.863',0.54
'0:00.867',0.37
'0:00.871',0.15
'0:00.875',-0.16
'0:00.879',-0.6
'0:00.883',-0.8
'0:00.887',-1.25
'0:00.891',-1.62
'0:00.895',-1.68
'0:00.898',-1.58
'0:00.902',-1.62
'0:00.906',-1.88
'0:00.910',-2.19
'0:00.914',-2.23
'0:00.918',-2.43
'0:00.922',-2.47
'0:00.926',-2.11
'0:00.930',-1.97
'0:00.934',-1.88
'0:00.938',-1.84
'0:00.941',-1.6
'0:00.945',-1.35
'0:00.949',-0.92
'0:00.953',-0.07
'0:00.957',1.57
'0:00.961',4.04
'0:00.965',7.05
'0:00.969',7.54
'0:00.973',4.71
'0:00.977',-0.39
'0:00.980',-4.98
'0:00.984',-7.4
'0:00.988',-7.58
'0:00.992',-6.55
'0:00.996',-4.98
'0:01.000',-3.51
'0:01.004',-2.19
'0:01.008',-1.21
'0:01.012',-0.81
'0:01.016',-0.5
'0:01.020',-0.17
'0:01.023',0.11
'0:01.027',0.5
'0:01.031',0.94
'0:01.035',1.42
'0:01.039',1.51
'0:01.043',1.39
'0:01.047',1.36
'0:01.051',1.44
'0:01.055',1.36
'0:01.059',1.18
'0:01.063',1.21
'0:01.066',1.57
'0:01.070',2.03
'0:01.074',2.47
'0:01.078',2.82
'0:01.082',2.97
'0:01.086',3.23
'0:01.090',3.78
'0:01.094',4.46
'0:01.098',5.12
'0:01.102',5.55
'0:01.105',5.72
'0:01.109',5.87
'0:01.113',5.79
'0:01.117',5.52
'0:01.121',5.04
'0:01.125',4.66
'0:01.129',4.41
'0:01.133',3.81
'0:01.137',3.14
'0:01.141',2.71
'0:01.145',2.1
'0:01.148',1.58
'0:01.152',1.23
'0:01.156',0.75
'0:01.160',0.08
'0:01.164',-0.42
'0:01.168',-0.13
'0:01.172',0.13
'0:01.176',-0.02
'0:01.180',0
'0:01.184',0.1
'0:01.188',-0.1
'0:01.191',-0.52
'0:01.195',-0.96
'0:01.199',-1.46
'0:01.203',-1.77
'0:01.207',-1.43
'0:01.211',-1.07
'0:01.215',-1.45
'0:01.219',-2.01
'0:01.223',-2.4
'0:01.227',-2.78
'0:01.230',-2.99
'0:01.234',-3.58
'0:01.238',-4.29
'0:01.242',-4.64
'0:01.246',-4.88
'0:01.250',-4.97
'0:01.254',-4.6
'0:01.258',-4.03
'0:01.262',-3.76
'0:01.266',-3.75
'0:01.270',-3.89
'0:01.273',-3.87
'0:01.277',-3.68
'0:01.281',-3.47
'0:01.285',-3.7
'0:01.289',-3.92
'0:01.293',-3.69
'0:01.297',-3.27
'0:01.301',-2.38
'0:01.305',-0.58
'0:01.309',2.28
'0:01.313',4.8
'0:01.316',4.68
'0:01.320',1.28
'0:01.324',-3.75
'0:01.328',-7.85
'0:01.332',-9.79
'0:01.336',-9.5
'0:01.340',-8.12
'0:01.344',-6.52
'0:01.348',-5.07
'0:01.352',-3.89
'0:01.355',-3.07
'0:01.359',-2.32
'0:01.363',-1.62
'0:01.367',-1.01
'0:01.371',-0.81
'0:01.375',-0.64
'0:01.379',-0.53
'0:01.383',-0.52
'0:01.387',-0.32
'0:01.391',-0.31
'0:01.395',-0.14
'0:01.398',0.06
'0:01.402',0.54
'0:01.406',1.03
'0:01.410',1.56
'0:01.414',2.07
'0:01.418',2.14
'0:01.422',2.17
'0:01.426',2.13
'0:01.430',2.61
'0:01.434',3.39
'0:01.438',4.1
'0:01.441',4.25
'0:01.445',4.16
'0:01.449',4.57
'0:01.453',5.06
'0:01.457',5.28
'0:01.461',5.39
'0:01.465',5.25
'0:01.469',4.72
'0:01.473',4.4
'0:01.477',3.81
'0:01.480',2.57
'0:01.484',1.8
'0:01.488',1.68
'0:01.492',1.34
'0:01.496',0.44
'0:01.500',-0.08
'0:01.504',-0.24
'0:01.508',-0.28
'0:01.512',-0.48
'0:01.516',-0.36
'0:01.520',-0.01
'0:01.523',0.3
'0:01.527',0.02
'0:01.531',-0.14
'0:01.535',0.27
'0:01.539',0.62
'0:01.543',0.13
'0:01.547',-0.49
'0:01.551',-0.66
'0:01.555',-0.61
'0:01.559',-0.8
'0:01.563',-1.06
'0:01.566',-1.51
'0:01.570',-2
'0:01.574',-2.4
'0:01.578',-3.02
'0:01.582',-3.71
'0:01.586',-3.78
'0:01.590',-3.51
'0:01.594',-3.32
'0:01.598',-3.26
'0:01.602',-3.29
'0:01.605',-3.24
'0:01.609',-2.87
'0:01.613',-2.02
'0:01.617',-1.63
'0:01.621',-1.68
'0:01.625',-1.92
'0:01.629',-2.28
'0:01.633',-2.35
'0:01.637',-2.21
'0:01.641',-2.1
'0:01.645',-1.19
'0:01.648',1.18
'0:01.652',4.48
'0:01.656',6.85
'0:01.660',5.71
'0:01.664',1.46
'0:01.668',-3.32
'0:01.672',-6.46
'0:01.676',-7.18
'0:01.680',-6.54
'0:01.684',-5.92
'0:01.688',-4.67
'0:01.691',-2.93
'0:01.695',-1.64
'0:01.699',-0.81
'0:01.703',-0.36
'0:01.707',0.28
'0:01.711',0.42
'0:01.715',0.34
'0:01.719',0.65
'0:01.723',0.74
'0:01.727',0.64
'0:01.730',0.94
'0:01.734',1.6
'0:01.738',1.83
'0:01.742',1.94
'0:01.746',2.49
'0:01.750',2.86
'0:01.754',2.89
'0:01.758',2.52
'0:01.762',2.2
'0:01.766',2.76
'0:01.770',3.42
'0:01.773',3.64
'0:01.777',3.76
'0:01.781',4.04
'0:01.785',4.48
'0:01.789',4.86
'0:01.793',5.15
'0:01.797',5.22
'0:01.801',5.18
'0:01.805',5.17
'0:01.809',5.13
'0:01.813',4.79
'0:01.816',4.47
'0:01.820',4.08
'0:01.824',3.56
'0:01.828',2.74
'0:01.832',1.93
'0:01.836',1.35
'0:01.840',1.16
'0:01.844',0.96
'0:01.848',0.9
'0:01.852',0.53
'0:01.855',0.3
'0:01.859',0.43
'0:01.863',0.65
'0:01.867',0.74
'0:01.871',1
'0:01.875',1.2
'0:01.879',1.08
'0:01.883',0.72
'0:01.887',-0.07
'0:01.891',-0.43
'0:01.895',-0.25
'0:01.898',0.16
'0:01.902',0.3
'0:01.906',0.25
'0:01.910',-0.2
'0:01.914',-1.28
'0:01.918',-2.1
'0:01.922',-2.38
'0:01.926',-2.52
'0:01.930',-2.72
'0:01.934',-2.77
'0:01.938',-2.71
'0:01.941',-2.77
'0:01.945',-2.6
'0:01.949',-2.15
'0:01.953',-2.04
'0:01.957',-2.09
'0:01.961',-1.74
'0:01.965',-1.58
'0:01.969',-1.5
'0:01.973',-1.55
'0:01.977',-1.74
'0:01.980',-1.61
'0:01.984',-1.24
'0:01.988',-0.05
'0:01.992',1.8
'0:01.996',4.42
'0:02.000',6.36
'0:02.004',5.32
'0:02.008',1.07
'0:02.012',-3.97
'0:02.016',-7.69
'0:02.020',-9.1
'0:02.023',-8.12
'0:02.027',-5.98
'0:02.031',-3.87
'0:02.035',-2.51
'0:02.039',-1.41
'0:02.043',-0.8
'0:02.047',-0.18
'0:02.051',0.36
'0:02.055',0.71
'0:02.059',0.7
'0:02.063',0.56
'0:02.066',0.56
'0:02.070',0.77
'0:02.074',1.01
'0:02.078',1.26
'0:02.082',1.37
'0:02.086',1.46
'0:02.090',1.46
'0:02.094',1.51
'0:02.098',1.65
'0:02.102',1.87
'0:02.105',2.19
'0:02.109',2.49
'0:02.113',2.66
'0:02.117',2.85
'0:02.121',3.3
'0:02.125',3.93
'0:02.129',4.59
'0:02.133',4.92
'0:02.137',4.86
'0:02.141',4.77
'0:02.145',4.61
'0:02.148',4.44
'0:02.152',4.29
'0:02.156',4.23
'0:02.160',3.82
'0:02.164',2.84
'0:02.168',1.83
'0:02.172',1.28
'0:02.176',0.91
'0:02.180',0.45
'0:02.184',0.07
'0:02.188',-0.52
'0:02.191',-1.23
'0:02.195',-1.8
'0:02.199',-2.16
'0:02.203',-1.93
'0:02.207',-1.04
'0:02.211',0.13
'0:02.215',0.7
'0:02.219',0.55
'0:02.223',0.07
'0:02.227',-0.35
'0:02.230',-0.72
'0:02.234',-0.89
'0:02.238',-0.92
'0:02.242',-1.3
'0:02.246',-1.95
'0:02.250',-2.66
'0:02.254',-2.83
'0:02.258',-3.02
'0:02.262',-3.4
'0:02.266',-3.72
'0:02.270',-3.72
'0:02.273',-3.49
'0:02.277',-3.45
'0:02.281',-3.8
'0:02.285',-4.16
'0:02.289',-4.43
'0:02.293',-4.46
'0:02.297',-4.34
'0:02.301',-3.91
'0:02.305',-3.54
'0:02.309',-3.72
'0:02.313',-4.13
'0:02.316',-4.59
'0:02.320',-4.65
'0:02.324',-3.99
'0:02.328',-2.97
'0:02.332',-1.99
'0:02.336',-0.94
'0:02.340',0.91
'0:02.344',3.44
'0:02.348',5.65
'0:02.352',5.72
'0:02.355',2.66
'0:02.359',-2.34
'0:02.363',-6.75
'0:02.367',-9.03
'0:02.371',-9.14
'0:02.375',-8.16
'0:02.379',-6.72
'0:02.383',-5.26
'0:02.387',-4.09
'0:02.391',-3.1
'0:02.395',-2.35
'0:02.398',-1.86
'0:02.402',-1.39
'0:02.406',-1.09
'0:02.410',-1
'0:02.414',-0.89
'0:02.418',-0.7
'0:02.422',-0.28
'0:02.426',0.05
'0:02.430',0.24
'0:02.434',0.43
'0:02.438',0.45
'0:02.441',0.66
'0:02.445',0.9
'0:02.449',1.36
'0:02.453',1.66
'0:02.457',2
'0:02.461',2.2
'0:02.465',2.08
'0:02.469',2.1
'0:02.473',2.46
'0:02.477',3.27
'0:02.480',4.06
'0:02.484',4.68
'0:02.488',4.73
'0:02.492',4.48
'0:02.496',4.46
'0:02.500',4.12
'0:02.504',3.76
'0:02.508',3.36
'0:02.512',3.03
'0:02.516',2.65
'0:02.520',2.04
'0:02.523',1.37
'0:02.527',0.72
'0:02.531',0.26
'0:02.535',0.13
'0:02.539',-0.04
'0:02.543',-0.54
'0:02.547',-0.68
'0:02.551',-0.76
'0:02.555',-0.71
'0:02.559',-0.51
'0:02.563',-0.46
'0:02.566',-0.27
'0:02.570',-0.1
'0:02.574',0.05
'0:02.578',-0.11
'0:02.582',-0.14
'0:02.586',-0.07
'0:02.590',0.05
'0:02.594',-0.04
'0:02.598',-0.3
'0:02.602',-0.77
'0:02.605',-1.38
'0:02.609',-1.82
'0:02.613',-2.18
'0:02.617',-2.48
'0:02.621',-2.65
'0:02.625',-2.63
'0:02.629',-2.63
'0:02.633',-2.68
'0:02.637',-2.68
'0:02.641',-2.53
'0:02.645',-2.43
'0:02.648',-2.53
'0:02.652',-2.63
'0:02.656',-2.6
'0:02.660',-2.35
'0:02.664',-2.1
'0:02.668',-2.02
'0:02.672',-1.9
'0:02.676',-1.51
'0:02.680',-0.52
'0:02.684',1.39
'0:02.688',4.17
'0:02.691',6.56
'0:02.695',6.73
'0:02.699',3.5
'0:02.703',-1.73
'0:02.707',-5.92
'0:02.711',-7.73
'0:02.715',-7.66
'0:02.719',-6.5
'0:02.723',-5.04
'0:02.727',-3.69
'0:02.730',-2.43
'0:02.734',-1.31
'0:02.738',-0.4
'0:02.742',0.03
'0:02.746',0.15
'0:02.750',0.34
'0:02.754',0.52
'0:02.758',0.59
'0:02.762',0.73
'0:02.766',1.12
'0:02.770',1.39
'0:02.773',1.48
'0:02.777',1.72
'0:02.781',2.01
'0:02.785',2.34
'0:02.789',2.51
'0:02.793',2.48
'0:02.797',2.54
'0:02.801',2.61
'0:02.805',2.68
'0:02.809',2.76
'0:02.813',2.9
'0:02.816',3.22
'0:02.820',3.61
'0:02.824',3.83
'0:02.828',4.04
'0:02.832',4.41
'0:02.836',4.56
'0:02.840',4.56
'0:02.844',4.44
'0:02.848',4.14
'0:02.852',3.57
'0:02.855',3.34
'0:02.859',3.3
'0:02.863',2.96
'0:02.867',2.32
'0:02.871',1.67
'0:02.875',1.03
'0:02.879',0.42
'0:02.883',0.4
'0:02.887',0.77
'0:02.891',1.07
'0:02.895',1.01
'0:02.898',0.93
'0:02.902',1.12
'0:02.906',1.63
'0:02.910',1.95
'0:02.914',2.05
'0:02.918',1.84
'0:02.922',1.54
'0:02.926',1.33
'0:02.930',1.18
'0:02.934',0.81
'0:02.938',0.5
'0:02.941',0.53
'0:02.945',0.31
'0:02.949',0.01
'0:02.953',-0.42
'0:02.957',-0.92
'0:02.961',-1.4
'0:02.965',-1.66
'0:02.969',-2.04
'0:02.973',-2.33
'0:02.977',-2.48
'0:02.980',-2.46
'0:02.984',-2.6
'0:02.988',-2.61
'0:02.992',-2.22
'0:02.996',-1.9
'0:03.000',-1.97
'0:03.004',-1.92
'0:03.008',-1.74
'0:03.012',-1.69
'0:03.016',-1.51
'0:03.020',-1.25
'0:03.023',-1.27
'0:03.027',-0.38
'0:03.031',1.99
'0:03.035',5.23
'0:03.039',6.11
'0:03.043',3.41
'0:03.047',-1.51
'0:03.051',-5.96
'0:03.055',-8.36
'0:03.059',-7.9
'0:03.063',-6.23
'0:03.066',-4.79
'0:03.070',-3.44
'0:03.074',-1.84
'0:03.078',-1.24
'0:03.082',-1
'0:03.086',-0.54
'0:03.090',0.22
'0:03.094',0.87
'0:03.098',1.14
'0:03.102',1.15
'0:03.105',1.32
'0:03.109',1.54
'0:03.113',1.75
'0:03.117',1.79
'0:03.121',1.75
'0:03.125',1.63
'0:03.129',1.61
'0:03.133',1.87
'0:03.137',2.32
'0:03.141',2.56
'0:03.145',2.49
'0:03.148',2.42
'0:03.152',2.57
'0:03.156',3.02
'0:03.160',3.29
'0:03.164',3.17
'0:03.168',3.24
'0:03.172',3.27
'0:03.176',3.35
'0:03.180',3.7
'0:03.184',3.95
'0:03.188',3.81
'0:03.191',3.63
'0:03.195',3.56
'0:03.199',3.25
'0:03.203',2.81
'0:03.207',2.31
'0:03.211',1.86
'0:03.215',1.22
'0:03.219',0.16
'0:03.223',-0.85
'0:03.227',-1.25
'0:03.230',-1.46
'0:03.234',-1.65
'0:03.238',-1.58
'0:03.242',-1.46
'0:03.246',-1.22
'0:03.250',-0.97
'0:03.254',-0.63
'0:03.258',-0.34
'0:03.262',-0.33
'0:03.266',-0.41
'0:03.270',-0.43
'0:03.273',-0.44
'0:03.277',-0.66
'0:03.281',-1.02
'0:03.285',-1.31
'0:03.289',-1.45
'0:03.293',-1.48
'0:03.297',-1.87
'0:03.301',-2.41
'0:03.305',-2.88
'0:03.309',-3.14
'0:03.313',-3.43
'0:03.316',-3.71
'0:03.320',-3.82
'0:03.324',-3.78
'0:03.328',-3.8
'0:03.332',-3.94
'0:03.336',-4.14
'0:03.340',-4.21
'0:03.344',-4.26
'0:03.348',-4.16
'0:03.352',-3.99
'0:03.355',-3.81
'0:03.359',-3.49
'0:03.363',-3.07
'0:03.367',-2.58
'0:03.371',-1.95
'0:03.375',-0.51
'0:03.379',1.92
'0:03.383',4.67
'0:03.387',6.25
'0:03.391',4.82
'0:03.395',0.29
'0:03.398',-5.07
'0:03.402',-8.75
'0:03.406',-9.73
'0:03.410',-8.94
'0:03.414',-7.53
'0:03.418',-6.02
'0:03.422',-4.71
'0:03.426',-3.56
'0:03.430',-2.75
'0:03.434',-2.22
'0:03.438',-1.75
'0:03.441',-1.36
'0:03.445',-1.05
'0:03.449',-0.8
'0:03.453',-0.62
'0:03.457',-0.41
'0:03.461',-0.14
'0:03.465',-0.02
'0:03.469',0.25
'0:03.473',0.42
'0:03.477',0.37
'0:03.480',0.56
'0:03.484',0.88
'0:03.488',0.96
'0:03.492',0.96
'0:03.496',1.14
'0:03.500',1.44
'0:03.504',2.34
'0:03.508',2.98
'0:03.512',3.49
'0:03.516',3.88
'0:03.520',4.26
'0:03.523',4.55
'0:03.527',4.53
'0:03.531',4.56
'0:03.535',4.48
'0:03.539',4.38
'0:03.543',4.07
'0:03.547',3.88
'0:03.551',3.55
'0:03.555',2.83
'0:03.559',2.39
'0:03.563',1.66
'0:03.566',0.78
'0:03.570',0.3
'0:03.574',0.27
'0:03.578',0.18
'0:03.582',0.03
'0:03.586',-0.22
'0:03.590',-0.53
'0:03.594',-0.56
'0:03.598',-0.44
'0:03.602',-0.23
'0:03.605',0.2
'0:03.609',0.42
'0:03.613',0.43
'0:03.617',0.33
'0:03.621',0.5
'0:03.625',0.68
'0:03.629',0.25
'0:03.633',-0.04
'0:03.637',0.05
'0:03.641',-0.22
'0:03.645',-0.81
'0:03.648',-1.12
'0:03.652',-1.41
'0:03.656',-1.75
'0:03.660',-2.33
'0:03.664',-2.85
'0:03.668',-2.92
'0:03.672',-3.04
'0:03.676',-3.04
'0:03.680',-2.75
'0:03.684',-2.64
'0:03.688',-2.81
'0:03.691',-2.83
'0:03.695',-2.74
'0:03.699',-2.65
'0:03.703',-2.58
'0:03.707',-2.51
'0:03.711',-2.36
'0:03.715',-1.65
'0:03.719',0.09
'0:03.723',2.65
'0:03.727',5.44
'0:03.730',7.04
'0:03.734',5.56
'0:03.738',0.86
'0:03.742',-4.46
'0:03.746',-7.66
'0:03.750',-8.33
'0:03.754',-7.55
'0:03.758',-6.27
'0:03.762',-4.87
'0:03.766',-3.47
'0:03.770',-1.9
'0:03.773',-0.87
'0:03.777',-0.23
'0:03.781',0.51
'0:03.785',1
'0:03.789',1.07
'0:03.793',1.12
'0:03.797',1.42
'0:03.801',1.79
'0:03.805',1.92
'0:03.809',1.84
'0:03.813',1.76
'0:03.816',1.77
'0:03.820',1.78
'0:03.824',2
'0:03.828',2.35
'0:03.832',2.47
'0:03.836',2.61
'0:03.840',2.7
'0:03.844',2.9
'0:03.848',3.27
'0:03.852',3.78
'0:03.855',4.52
'0:03.859',5.12
'0:03.863',5.29
'0:03.867',5.51
'0:03.871',5.58
'0:03.875',5.36
'0:03.879',4.95
'0:03.883',4.77
'0:03.887',4.17
'0:03.891',3.58
'0:03.895',3.21
'0:03.898',2.74
'0:03.902',2.39
'0:03.906',2.24
'0:03.910',2.04
'0:03.914',1.53
'0:03.918',0.87
'0:03.922',0.5
'0:03.926',0.64
'0:03.930',0.92
'0:03.934',0.54
'0:03.938',0.08
'0:03.941',-0.04
'0:03.945',-0.09
'0:03.949',-0.19
'0:03.953',0.08
'0:03.957',0.56
'0:03.961',1.03
'0:03.965',1.12
'0:03.969',0.58
'0:03.973',-0.22
'0:03.977',-0.47
'0:03.980',-0.48
'0:03.984',-0.73
'0:03.988',-0.89
'0:03.992',-1.27
'0:03.996',-1.68
'0:04.000',-1.94
'0:04.004',-1.73
'0:04.008',-1.93
'0:04.012',-2.17
'0:04.016',-1.81
'0:04.020',-1.21
'0:04.023',-1.17
'0:04.027',-1.93
'0:04.031',-2.38
'0:04.035',-2.5
'0:04.039',-2.65
'0:04.043',-2.62
'0:04.047',-2.49
'0:04.051',-2.01
'0:04.055',-1.48
'0:04.059',-0.91
'0:04.063',0.46
'0:04.066',2.1
'0:04.070',4.51
'0:04.074',6.92
'0:04.078',6.38
'0:04.082',2.66
'0:04.086',-1.68
'0:04.090',-4.88
'0:04.094',-6.63
'0:04.098',-6.67
'0:04.102',-5.44
'0:04.105',-3.93
'0:04.109',-2.98
'0:04.113',-1.94
'0:04.117',-1.09
'0:04.121',-0.84
'0:04.125',-0.79
'0:04.129',-0.32
'0:04.133',0.71
'0:04.137',1.76
'0:04.141',2.35
'0:04.145',2.44
'0:04.148',2.17
'0:04.152',1.83
'0:04.156',1.65
'0:04.160',1.69
'0:04.164',1.8
'0:04.168',1.94
'0:04.172',2.02
'0:04.176',2.13
'0:04.180',2.39
'0:04.184',2.58
'0:04.188',2.51
'0:04.191',2.46
'0:04.195',2.59
'0:04.199',2.97
'0:04.203',3.42
'0:04.207',3.78
'0:04.211',4.09
'0:04.215',4.32
'0:04.219',4.29
'0:04.223',4.15
'0:04.227',4.03
'0:04.230',3.85
'0:04.234',3.49
'0:04.238',2.9
'0:04.242',2.39
'0:04.246',1.85
'0:04.250',1.09
'0:04.254',0.44
'0:04.258',-0.12
'0:04.262',-0.75
'0:04.266',-1.24
'0:04.270',-1.21
'0:04.273',-1.09
'0:04.277',-1.12
'0:04.281',-1.05
'0:04.285',-0.95
'0:04.289',-0.74
'0:04.293',-0.55
'0:04.297',-0.39
'0:04.301',-0.34
'0:04.305',-0.71
'0:04.309',-1.34
'0:04.313',-1.7
'0:04.316',-1.75
'0:04.320',-1.76
'0:04.324',-2.08
'0:04.328',-2.66
'0:04.332',-3.05
'0:04.336',-3.31
'0:04.340',-3.48
'0:04.344',-3.68
'0:04.348',-3.92
'0:04.352',-4.31
'0:04.355',-4.6
'0:04.359',-4.53
'0:04.363',-4.48
'0:04.367',-4.56
'0:04.371',-4.6
'0:04.375',-4.43
'0:04.379',-4.18
'0:04.383',-4.17
'0:04.387',-4.37
'0:04.391',-4.4
'0:04.395',-4.26
'0:04.398',-3.96
'0:04.402',-3.38
'0:04.406',-2.98
'0:04.410',-2.36
'0:04.414',-0.68
'0:04.418',2.12
'0:04.422',5.05
'0:04.426',6.05
'0:04.430',3.63
'0:04.434',-1.47
'0:04.438',-6.43
'0:04.441',-9.32
'0:04.445',-10
'0:04.449',-9.13
'0:04.453',-7.42
'0:04.457',-5.78
'0:04.461',-4.54
'0:04.465',-3.37
'0:04.469',-2.5
'0:04.473',-2.01
'0:04.477',-1.64
'0:04.480',-1.28
'0:04.484',-0.9
'0:04.488',-0.65
'0:04.492',-0.67
'0:04.496',-0.63
'0:04.500',-0.31
'0:04.504',0.15
'0:04.508',0.2
'0:04.512',0.16
'0:04.516',0.42
'0:04.520',0.67
'0:04.523',1.16
'0:04.527',1.61
'0:04.531',1.77
'0:04.535',1.86
'0:04.539',2.08
'0:04.543',2.44
'0:04.547',2.77
'0:04.551',3.22
'0:04.555',3.86
'0:04.559',4.15
'0:04.563',4.14
'0:04.566',4
'0:04.570',3.97
'0:04.574',3.93
'0:04.578',3.87
'0:04.582',3.63
'0:04.586',3.36
'0:04.590',2.97
'0:04.594',2.56
'0:04.598',1.99
'0:04.602',1.15
'0:04.605',0.53
'0:04.609',0.33
'0:04.613',0.25
'0:04.617',-0.04
'0:04.621',-0.36
'0:04.625',-0.55
'0:04.629',-0.54
'0:04.633',-0.38
'0:04.637',-0.22
'0:04.641',0
'0:04.645',0.33
'0:04.648',0.56
'0:04.652',0.69
'0:04.656',0.66
'0:04.660',0.54
'0:04.664',0.39
'0:04.668',0.2
'0:04.672',-0.18
'0:04.676',-0.46
'0:04.680',-0.76
'0:04.684',-1.17
'0:04.688',-1.46
'0:04.691',-1.65
'0:04.695',-2.08
'0:04.699',-2.48
'0:04.703',-2.76
'0:04.707',-2.66
'0:04.711',-2.63
'0:04.715',-2.52
'0:04.719',-2.01
'0:04.723',-1.46
'0:04.727',-1.34
'0:04.730',-1.57
'0:04.734',-1.96
'0:04.738',-2.38
'0:04.742',-2.17
'0:04.746',-1.62
'0:04.750',-0.93
'0:04.754',0.08
'0:04.758',1.7
'0:04.762',4.03
'0:04.766',7.02
'0:04.770',8.36
'0:04.773',6.37
'0:04.777',1.63
'0:04.781',-3.38
'0:04.785',-6.79
'0:04.789',-7.74
'0:04.793',-7.27
'0:04.797',-5.99
'0:04.801',-4.68
'0:04.805',-3.35
'0:04.809',-1.95
'0:04.813',-0.8
'0:04.816',-0.04
'0:04.820',0.1
'0:04.824',0.06
'0:04.828',0.38
'0:04.832',0.51
'0:04.836',0.59
'0:04.840',0.93
'0:04.844',1.37
'0:04.848',1.87
'0:04.852',2.31
'0:04.855',2.33
'0:04.859',2
'0:04.863',2.03
'0:04.867',2.22
'0:04.871',2.32
'0:04.875',2.47
'0:04.879',2.69
'0:04.883',3.01
'0:04.887',3.62
'0:04.891',4.21
'0:04.895',4.81
'0:04.898',5.44
'0:04.902',5.59
'0:04.906',5.28
'0:04.910',5.19
'0:04.914',5.1
'0:04.918',5.15
'0:04.922',5.06
'0:04.926',4.47
'0:04.930',3.84
'0:04.934',3.3
'0:04.938',2.87
'0:04.941',2.4
'0:04.945',1.98
'0:04.949',1.63
'0:04.953',1.3
'0:04.957',1.37
'0:04.961',1.59
'0:04.965',1.54
'0:04.969',1.43
'0:04.973',1.14
'0:04.977',1
'0:04.980',1.21
'0:04.984',1.34
'0:04.988',1.13
'0:04.992',1.25
'0:04.996',1.37
'0:05.000',1.19
'0:05.004',0.93
'0:05.008',0.81
'0:05.012',0.87
'0:05.016',0.5
'0:05.020',-0.01
'0:05.023',-0.72
'0:05.027',-1.22
'0:05.031',-1.46
'0:05.035',-1.59
'0:05.039',-1.81
'0:05.043',-1.94
'0:05.047',-1.98
'0:05.051',-2.53
'0:05.055',-2.97
'0:05.059',-2.98
'0:05.063',-2.74
'0:05.066',-2.24
'0:05.070',-2.2
'0:05.074',-2.42
'0:05.078',-2.53
'0:05.082',-2.01
'0:05.086',-1.62
'0:05.090',-1.2
'0:05.094',-0.7
'0:05.098',-0.25
'0:05.102',0.5
'0:05.105',1.47
'0:05.109',3.55
'0:05.113',5.91
'0:05.117',5.57
'0:05.121',2.2
'0:05.125',-2.33
'0:05.129',-6.17
'0:05.133',-7.83
'0:05.137',-7.74
'0:05.141',-6.66
'0:05.145',-5.13
'0:05.148',-3.56
'0:05.152',-2.17
'0:05.156',-1.2
'0:05.160',-0.59
'0:05.164',-0.05
'0:05.168',0.55
'0:05.172',1.08
'0:05.176',1.39
'0:05.180',1.54
'0:05.184',1.75
'0:05.188',2.06
'0:05.191',2.17
'0:05.195',2.14
'0:05.199',1.98
'0:05.203',1.88
'0:05.207',1.83
'0:05.211',1.87
'0:05.215',2.13
'0:05.219',2.42
'0:05.223',2.59
'0:05.227',2.61
'0:05.230',2.76
'0:05.234',3.05
'0:05.238',3.37
'0:05.242',3.67
'0:05.246',4.1
'0:05.250',4.23
'0:05.254',4.02
'0:05.258',3.97
'0:05.262',4.13
'0:05.266',4.14
'0:05.270',3.89
'0:05.273',3.55
'0:05.277',3.08
'0:05.281',2.54
'0:05.285',1.82
'0:05.289',1.01
'0:05.293',0.2
'0:05.297',-0.5
'0:05.301',-0.9
'0:05.305',-1.06
'0:05.309',-1.29
'0:05.313',-1.49
'0:05.316',-1.5
'0:05.320',-1.42
'0:05.324',-1.62
'0:05.328',-1.66
'0:05.332',-1.48
'0:05.336',-1.14
'0:05.340',-1.23
'0:05.344',-1.44
'0:05.348',-1.69
'0:05.352',-2.21
'0:05.355',-2.6
'0:05.359',-2.7
'0:05.363',-2.75
'0:05.367',-2.83
'0:05.371',-3.08
'0:05.375',-3.32
'0:05.379',-3.71
'0:05.383',-4.1
'0:05.387',-4.46
'0:05.391',-4.6
'0:05.395',-4.56
'0:05.398',-4.6
'0:05.402',-4.64
'0:05.406',-4.64
'0:05.410',-4.45
'0:05.414',-4.35
'0:05.418',-4.15
'0:05.422',-3.97
'0:05.426',-3.84
'0:05.430',-3.73
'0:05.434',-3.88
'0:05.438',-4.19
'0:05.441',-4.17
'0:05.445',-3.66
'0:05.449',-2.82
'0:05.453',-1.15
'0:05.457',1.51
'0:05.461',4.79
'0:05.465',6.36
'0:05.469',4.29
'0:05.473',-0.73
'0:05.477',-5.98
'0:05.480',-9.03
'0:05.484',-10.01
'0:05.488',-9.56
'0:05.492',-8.1
'0:05.496',-6.52
'0:05.500',-5.18
'0:05.504',-4.01
'0:05.508',-3.1
'0:05.512',-2.42
'0:05.516',-2.08
'0:05.520',-1.74
'0:05.523',-1.35
'0:05.527',-1.19
'0:05.531',-1.16
'0:05.535',-0.84
'0:05.539',-0.52
'0:05.543',-0.51
'0:05.547',-0.39
'0:05.551',-0.23
'0:05.555',0.16
'0:05.559',0.7
'0:05.563',1.19
'0:05.566',1.35
'0:05.570',1.46
'0:05.574',1.91
'0:05.578',2.32
'0:05.582',2.61
'0:05.586',2.69
'0:05.590',2.81
'0:05.594',3.13
'0:05.598',3.7
'0:05.602',4.28
'0:05.605',4.61
'0:05.609',4.63
'0:05.613',4.78
'0:05.617',4.9
'0:05.621',4.51
'0:05.625',3.92
'0:05.629',3.31
'0:05.633',2.73
'0:05.637',2.23
'0:05.641',1.88
'0:05.645',1.31
'0:05.648',0.63
'0:05.652',0.42
'0:05.656',0.47
'0:05.660',0.23
'0:05.664',-0.36
'0:05.668',-0.66
'0:05.672',-0.78
'0:05.676',-0.45
'0:05.680',0.27
'0:05.684',0.83
'0:05.688',0.98
'0:05.691',0.85
'0:05.695',0.62
'0:05.699',0.31
'0:05.703',0.15
'0:05.707',0.13
'0:05.711',-0.06
'0:05.715',-0.4
'0:05.719',-0.94
'0:05.723',-1.4
'0:05.727',-1.84
'0:05.730',-2.34
'0:05.734',-2.58
'0:05.738',-2.46
'0:05.742',-2.41
'0:05.746',-2.36
'0:05.750',-2.24
'0:05.754',-2.29
'0:05.758',-2.21
'0:05.762',-2.14
'0:05.766',-1.96
'0:05.770',-1.84
'0:05.773',-1.66
'0:05.777',-1.66
'0:05.781',-1.83
'0:05.785',-1.82
'0:05.789',-1.37
'0:05.793',-0.54
'0:05.797',0.92
'0:05.801',2.97
'0:05.805',5.68
'0:05.809',7.86
'0:05.813',7.29
'0:05.816',3.22
'0:05.820',-2.21
'0:05.824',-6.16
'0:05.828',-7.92
'0:05.832',-7.48
'0:05.836',-5.99
'0:05.840',-4.45
'0:05.844',-3.29
'0:05.848',-2
'0:05.852',-0.77
'0:05.855',0.24
'0:05.859',0.89
'0:05.863',1.21
'0:05.867',1.45
'0:05.871',1.84
'0:05.875',2.05
'0:05.879',1.84
'0:05.883',1.68
'0:05.887',1.98
'0:05.891',2.37
'0:05.895',2.36
'0:05.898',2.28
'0:05.902',2.44
'0:05.906',2.37
'0:05.910',2.42
'0:05.914',2.81
'0:05.918',3.22
'0:05.922',3.63
'0:05.926',3.8
'0:05.930',3.85
'0:05.934',3.84
'0:05.938',4.05
'0:05.941',4.69
'0:05.945',5.05
'0:05.949',5.03
'0:05.953',5.14
'0:05.957',4.96
'0:05.961',4.45
'0:05.965',4.06
'0:05.969',3.93
'0:05.973',3.96
'0:05.977',3.84
'0:05.980',3.24
'0:05.984',2.26
'0:05.988',1.46
'0:05.992',0.94
'0:05.996',0.53
'0:06.000',0.44
'0:06.004',0.55
'0:06.008',0.63
'0:06.012',0.66
'0:06.016',0.66
'0:06.020',0.7
'0:06.023',0.64
'0:06.027',0.82
'0:06.031',1.03
'0:06.035',0.83
'0:06.039',0.89
'0:06.043',1.16
'0:06.047',1.42
'0:06.051',1.08
'0:06.055',0.3
'0:06.059',-0.15
'0:06.063',-0.17
'0:06.066',-0.41
'0:06.070',-0.97
'0:06.074',-1.55
'0:06.078',-2
'0:06.082',-2.09
'0:06.086',-2.04
'0:06.090',-1.8
'0:06.094',-2.05
'0:06.098',-1.91
'0:06.102',-1.63
'0:06.105',-1.49
'0:06.109',-1.59
'0:06.113',-1.81
'0:06.117',-2
'0:06.121',-2.34
'0:06.125',-2.66
'0:06.129',-2.7
'0:06.133',-2.78
'0:06.137',-2.85
'0:06.141',-1.68
'0:06.145',0.54
'0:06.148',3.29
'0:06.152',5.81
'0:06.156',6.58
'0:06.160',4.52
'0:06.164',0.45
'0:06.168',-3.75
'0:06.172',-6.53
'0:06.176',-7.61
'0:06.180',-7.36
'0:06.184',-6.33
'0:06.188',-4.83
'0:06.191',-3.22
'0:06.195',-1.7
'0:06.199',-0.68
'0:06.203',-0.06
'0:06.207',0.22
'0:06.211',0.35
'0:06.215',0.6
'0:06.219',0.86
'0:06.223',1.11
'0:06.227',1.2
'0:06.230',1.2
'0:06.234',1.17
'0:06.238',1.37
'0:06.242',1.74
'0:06.246',1.99
'0:06.250',2.08
'0:06.254',2.1
'0:06.258',2.1
'0:06.262',2.16
'0:06.266',2.25
'0:06.270',2.42
'0:06.273',2.64
'0:06.277',3.02
'0:06.281',3.43
'0:06.285',3.79
'0:06.289',3.92
'0:06.293',4.02
'0:06.297',4.26
'0:06.301',4.57
'0:06.305',4.58
'0:06.309',4.37
'0:06.313',4.08
'0:06.316',3.57
'0:06.320',2.83
'0:06.324',1.97
'0:06.328',1.07
'0:06.332',0.42
'0:06.336',-0.23
'0:06.340',-0.76
'0:06.344',-1.18
'0:06.348',-1.56
'0:06.352',-1.72
'0:06.355',-1.75
'0:06.359',-1.72
'0:06.363',-1.65
'0:06.367',-1.58
'0:06.371',-1.54
'0:06.375',-1.55
'0:06.379',-1.55
'0:06.383',-1.48
'0:06.387',-1.66
'0:06.391',-1.98
'0:06.395',-2.1
'0:06.398',-2.26
'0:06.402',-2.27
'0:06.406',-2.26
'0:06.410',-2.45
'0:06.414',-3.04
'0:06.418',-3.64
'0:06.422',-4
'0:06.426',-4.01
'0:06.430',-3.94
'0:06.434',-4.07
'0:06.438',-4.19
'0:06.441',-4.21
'0:06.445',-4.31
'0:06.449',-4.51
'0:06.453',-4.7
'0:06.457',-4.74
'0:06.461',-4.39
'0:06.465',-4.02
'0:06.469',-3.83
'0:06.473',-3.72
'0:06.477',-3.57
'0:06.480',-3.31
'0:06.484',-3
'0:06.488',-2.62
'0:06.492',-1.42
'0:06.496',0.86
'0:06.500',3.79
'0:06.504',6.02
'0:06.508',5.62
'0:06.512',2.19
'0:06.516',-3.19
'0:06.520',-7.75
'0:06.523',-9.81
'0:06.527',-9.61
'0:06.531',-8.4
'0:06.535',-7.04
'0:06.539',-5.9
'0:06.543',-4.59
'0:06.547',-3.29
'0:06.551',-2.22
'0:06.555',-1.5
'0:06.559',-1.3
'0:06.563',-1.31
'0:06.566',-1.39
'0:06.570',-1.44
'0:06.574',-1.32
'0:06.578',-0.94
'0:06.582',-0.93
'0:06.586',-1.03
'0:06.590',-0.97
'0:06.594',-0.85
'0:06.598',-0.2
'0:06.602',0.38
'0:06.605',0.6
'0:06.609',0.78
'0:06.613',0.86
'0:06.617',1.07
'0:06.621',1.64
'0:06.625',2.29
'0:06.629',2.99
'0:06.633',3.52
'0:06.637',3.67
'0:06.641',3.87
'0:06.645',4.39
'0:06.648',4.68
'0:06.652',4.75
'0:06.656',4.85
'0:06.660',4.59
'0:06.664',3.92
'0:06.668',3.4
'0:06.672',3
'0:06.676',2.52
'0:06.680',2
'0:06.684',1.41
'0:06.688',0.92
'0:06.691',0.17
'0:06.695',-0.35
'0:06.699',-0.7
'0:06.703',-0.8
'0:06.707',-0.22
'0:06.711',0.26
'0:06.715',0.58
'0:06.719',1.11
'0:06.723',1.29
'0:06.727',1.17
'0:06.730',0.86
'0:06.734',0.65
'0:06.738',0.46
'0:06.742',0.4
'0:06.746',0.22
'0:06.750',-0.13
'0:06.754',-0.2
'0:06.758',-0.34
'0:06.762',-0.67
'0:06.766',-0.85
'0:06.770',-0.92
'0:06.773',-1.01
'0:06.777',-1.1
'0:06.781',-1.49
'0:06.785',-1.83
'0:06.789',-1.83
'0:06.793',-1.84
'0:06.797',-2.03
'0:06.801',-2.21
'0:06.805',-2.15
'0:06.809',-1.91
'0:06.813',-1.5
'0:06.816',-1.41
'0:06.820',-1.57
'0:06.824',-1.73
'0:06.828',-1.55
'0:06.832',-1.25
'0:06.836',-0.74
'0:06.840',0.66
'0:06.844',2.94
'0:06.848',5.65
'0:06.852',7.53
'0:06.855',6.54
'0:06.859',2.21
'0:06.863',-3.14
'0:06.867',-6.63
'0:06.871',-7.7
'0:06.875',-7.21
'0:06.879',-6.02
'0:06.883',-4.74
'0:06.887',-3.67
'0:06.891',-2.55
'0:06.895',-1.47
'0:06.898',-0.54
'0:06.902',-0.06
'0:06.906',-0.04
'0:06.910',-0.05
'0:06.914',0.26
'0:06.918',0.75
'0:06.922',1.29
'0:06.926',1.69
'0:06.930',1.99
'0:06.934',2.06
'0:06.938',2.28
'0:06.941',2.26
'0:06.945',2.3
'0:06.949',2.57
'0:06.953',2.71
'0:06.957',2.84
'0:06.961',2.87
'0:06.965',2.81
'0:06.969',2.91
'0:06.973',3.26
'0:06.977',4.01
'0:06.980',4.86
'0:06.984',5.35
'0:06.988',5.8
'0:06.992',6.13
'0:06.996',6.32
'0:07.000',6.38
'0:07.004',6.13
'0:07.008',5.49
'0:07.012',4.3
'0:07.016',3.29
'0:07.020',3.04
'0:07.023',3.1
'0:07.027',2.89
'0:07.031',2.28
'0:07.035',1.56
'0:07.039',0.73
'0:07.043',0.05
'0:07.047',-0.31
'0:07.051',-0.15
'0:07.055',0.23
'0:07.059',0.45
'0:07.063',0.69
'0:07.066',0.74
'0:07.070',1
'0:07.074',1.27
'0:07.078',1.09
'0:07.082',0.69
'0:07.086',0.51
'0:07.090',0.42
'0:07.094',0.24
'0:07.098',-0.09
'0:07.102',-0.58
'0:07.105',-1.14
'0:07.109',-1.57
'0:07.113',-1.89
'0:07.117',-1.87
'0:07.121',-2.01
'0:07.125',-2.82
'0:07.129',-2.96
'0:07.133',-2.42
'0:07.137',-1.85
'0:07.141',-1.63
'0:07.145',-1.88
'0:07.148',-2
'0:07.152',-1.91
'0:07.156',-1.92
'0:07.160',-1.77
'0:07.164',-1.66
'0:07.168',-1.66
'0:07.172',-1.85
'0:07.176',-1.55
'0:07.180',-1.05
'0:07.184',-0.32
'0:07.188',1.12
'0:07.191',3.04
'0:07.195',5.28
'0:07.199',5.84
'0:07.203',3.84
'0:07.207',-0.18
'0:07.211',-4.25
'0:07.215',-6.37
'0:07.219',-6.47
'0:07.223',-5.46
'0:07.227',-4.16
'0:07.230',-2.85
'0:07.234',-1.75
'0:07.238',-0.84
'0:07.242',-0.14
'0:07.246',0.23
'0:07.250',0.32
'0:07.254',0.41
'0:07.258',0.63
'0:07.262',0.94
'0:07.266',1.21
'0:07.270',1.53
'0:07.273',1.73
'0:07.277',1.66
'0:07.281',1.57
'0:07.285',1.41
'0:07.289',1.33
'0:07.293',1.53
'0:07.297',1.92
'0:07.301',2.2
'0:07.305',2.4
'0:07.309',2.54
'0:07.313',2.87
'0:07.316',3.16
'0:07.320',3.33
'0:07.324',3.78
'0:07.328',4.28
'0:07.332',4.64
'0:07.336',4.68
'0:07.340',4.62
'0:07.344',4.55
'0:07.348',4.38
'0:07.352',4.28
'0:07.355',4.05
'0:07.359',3.63
'0:07.363',3.2
'0:07.367',2.65
'0:07.371',1.81
'0:07.375',1.01
'0:07.379',0.44
'0:07.383',-0.24
'0:07.387',-1.05
'0:07.391',-1.52
'0:07.395',-1.68
'0:07.398',-1.49
'0:07.402',-1.09
'0:07.406',-0.98
'0:07.410',-1.13
'0:07.414',-1.37
'0:07.418',-1.64
'0:07.422',-1.86
'0:07.426',-1.95
'0:07.430',-2.16
'0:07.434',-2.62
'0:07.438',-3.06
'0:07.441',-3.37
'0:07.445',-3.5
'0:07.449',-3.62
'0:07.453',-3.6
'0:07.457',-3.54
'0:07.461',-3.68
'0:07.465',-3.86
'0:07.469',-3.95
'0:07.473',-4.14
'0:07.477',-4.26
'0:07.480',-4.55
'0:07.484',-5.15
'0:07.488',-5.69
'0:07.492',-5.97
'0:07.496',-5.86
'0:07.500',-5.9
'0:07.504',-6.02
'0:07.508',-5.88
'0:07.512',-5.42
'0:07.516',-4.82
'0:07.520',-4.17
'0:07.523',-3.65
'0:07.527',-3.11
'0:07.531',-2.55
'0:07.535',-1.46
'0:07.539',0.24
'0:07.543',2.63
'0:07.547',5.36
'0:07.551',5.71
'0:07.555',2.24
'0:07.559',-3.84
'0:07.563',-8.42
'0:07.566',-10.07
'0:07.570',-9.6
'0:07.574',-8.2
'0:07.578',-6.52
'0:07.582',-4.92
'0:07.586',-3.68
'0:07.590',-2.57
'0:07.594',-1.86
'0:07.598',-1.46
'0:07.602',-1.03
'0:07.605',-0.68
'0:07.609',-0.41
'0:07.613',-0.56
'0:07.617',-0.56
'0:07.621',-0.14
'0:07.625',0.24
'0:07.629',0.47
'0:07.633',0.64
'0:07.637',0.97
'0:07.641',1.36
'0:07.645',1.88
'0:07.648',2.32
'0:07.652',2.46
'0:07.656',2.52
'0:07.660',2.76
'0:07.664',2.98
'0:07.668',3.08
'0:07.672',3.3
'0:07.676',3.52
'0:07.680',4.28
'0:07.684',5.18
'0:07.688',5.64
'0:07.691',5.71
'0:07.695',5.69
'0:07.699',5.59
'0:07.703',5.52
'0:07.707',5.03
'0:07.711',4.13
'0:07.715',3.28
'0:07.719',2.42
'0:07.723',2.2
'0:07.727',1.77
'0:07.730',0.89
'0:07.734',-0.05
'0:07.738',-0.48
'0:07.742',-0.48
'0:07.746',-0.59
'0:07.750',-0.66
'0:07.754',-0.69
'0:07.758',-0.71
'0:07.762',-0.56
'0:07.766',-0.08
'0:07.770',0.38
'0:07.773',0.69
'0:07.777',0.74
'0:07.781',0.56
'0:07.785',0.64
'0:07.789',1.03
'0:07.793',1.1
'0:07.797',0.02
'0:07.801',-1.08
'0:07.805',-1.82
'0:07.809',-2.1
'0:07.813',-2.12
'0:07.816',-2.2
'0:07.820',-2.33
'0:07.824',-2.2
'0:07.828',-1.94
'0:07.832',-2.01
'0:07.836',-2.2
'0:07.840',-2.38
'0:07.844',-2.31
'0:07.848',-2.01
'0:07.852',-1.57
'0:07.855',-1.41
'0:07.859',-1.54
'0:07.863',-1.77
'0:07.867',-1.95
'0:07.871',-1.66
'0:07.875',-1.23
'0:07.879',-0.67
'0:07.883',0.31
'0:07.887',1.84
'0:07.891',4.1
'0:07.895',6.68
'0:07.898',7.38
'0:07.902',4.39
'0:07.906',-0.78
'0:07.910',-5.21
'0:07.914',-7.63
'0:07.918',-7.46
'0:07.922',-5.9
'0:07.926',-4.21
'0:07.930',-2.79
'0:07.934',-1.88
'0:07.938',-1.32
'0:07.941',-1.02
'0:07.945',-0.56
'0:07.949',-0.17
'0:07.953',0.21
'0:07.957',0.26
'0:07.961',0.43
'0:07.965',0.89
'0:07.969',1.21
'0:07.973',1.26
'0:07.977',1.24
'0:07.980',1.45
'0:07.984',1.56
'0:07.988',1.66
'0:07.992',1.86
'0:07.996',2.23
'0:08.000',2.24
'0:08.004',2.34
'0:08.008',2.65
'0:08.012',2.93
'0:08.016',3.13
'0:08.020',3.28
'0:08.023',3.43
'0:08.027',3.52
'0:08.031',3.72
'0:08.035',4.37
'0:08.039',5.01
'0:08.043',5.23
'0:08.047',5.16
'0:08.051',4.91
'0:08.055',4.61
'0:08.059',4.12
'0:08.063',3.64
'0:08.066',3.36
'0:08.070',3.06
'0:08.074',2.6
'0:08.078',2.16
'0:08.082',1.8
'0:08.086',1.41
'0:08.090',0.71
'0:08.094',-0.13
'0:08.098',-0.36
'0:08.102',0.11
'0:08.105',0.76
'0:08.109',1.32
'0:08.113',1.58
'0:08.117',1.8
'0:08.121',1.74
'0:08.125',1.64
'0:08.129',1.4
'0:08.133',0.9
'0:08.137',0.46
'0:08.141',-0.08
'0:08.145',-0.33
'0:08.148',-0.39
'0:08.152',-0.35
'0:08.156',-0.88
'0:08.160',-1.63
'0:08.164',-2.06
'0:08.168',-2.46
'0:08.172',-2.73
'0:08.176',-2.65
'0:08.180',-2.45
'0:08.184',-2.46
'0:08.188',-2.18
'0:08.191',-1.95
'0:08.195',-1.79
'0:08.199',-1.61
'0:08.203',-1.59
'0:08.207',-1.19
'0:08.211',-0.7
'0:08.215',-0.75
'0:08.219',-1.46
'0:08.223',-1.91
'0:08.227',-1.84
'0:08.230',-1.18
'0:08.234',0.63
'0:08.238',3.22
'0:08.242',5.79
'0:08.246',5.94
'0:08.250',2.91
'0:08.254',-1.47
'0:08.258',-5.03
'0:08.262',-6.71
'0:08.266',-6.57
'0:08.270',-5.52
'0:08.273',-4.26
'0:08.277',-3.16
'0:08.281',-1.95
'0:08.285',-0.95
'0:08.289',-0.7
'0:08.293',-0.73
'0:08.297',-0.74
'0:08.301',-0.6
'0:08.305',-0.47
'0:08.309',-0.31
'0:08.313',-0.08
'0:08.316',0.09
'0:08.320',0.18
'0:08.324',0.35
'0:08.328',0.44
'0:08.332',0.38
'0:08.336',0.33
'0:08.340',0.47
'0:08.344',0.61
'0:08.348',0.64
'0:08.352',0.56
'0:08.355',0.65
'0:08.359',0.76
'0:08.363',0.96
'0:08.367',1.43
'0:08.371',2.19
'0:08.375',2.93
'0:08.379',3.41
'0:08.383',3.84
'0:08.387',4.23
'0:08.391',4.26
'0:08.395',3.76
'0:08.398',3.04
'0:08.402',2.38
'0:08.406',1.66
'0:08.410',1.29
'0:08.414',1.01
'0:08.418',0.33
'0:08.422',-0.6
'0:08.426',-1.56
'0:08.430',-2.08
'0:08.434',-2.11
'0:08.438',-2
'0:08.441',-1.92
'0:08.445',-1.84
'0:08.449',-1.63
'0:08.453',-1.64
'0:08.457',-1.67
'0:08.461',-1.58
'0:08.465',-1.43
'0:08.469',-1.21
'0:08.473',-0.98
'0:08.477',-1.16
'0:08.480',-1.4
'0:08.484',-1.44
'0:08.488',-1.68
'0:08.492',-2.26
'0:08.496',-2.58
'0:08.500',-2.58
'0:08.504',-2.94
'0:08.508',-3.54
'0:08.512',-3.88
'0:08.516',-4.1
'0:08.520',-4.26
'0:08.523',-4.13
'0:08.527',-3.8
'0:08.531',-3.58
'0:08.535',-3.59
'0:08.539',-3.52
'0:08.543',-3.35
'0:08.547',-3.46
'0:08.551',-3.49
'0:08.555',-3.47
'0:08.559',-3
'0:08.563',-2.42
'0:08.566',-2.21
'0:08.570',-2.13
'0:08.574',-1.87
'0:08.578',-1.13
'0:08.582',0.2
'0:08.586',2.26
'0:08.590',4.79
'0:08.594',7.05
'0:08.598',6.81
'0:08.602',2.56
'0:08.605',-3.32
'0:08.609',-7.53
'0:08.613',-9.04
'0:08.617',-8.52
'0:08.621',-7.14
'0:08.625',-5.6
'0:08.629',-4.46
'0:08.633',-3.58
'0:08.637',-2.77
'0:08.641',-2.02
'0:08.645',-1.6
'0:08.648',-1.18
'0:08.652',-0.78
'0:08.656',-0.6
'0:08.660',-0.51
'0:08.664',-0.27
'0:08.668',0.13
'0:08.672',0.18
'0:08.676',0.29
'0:08.680',0.44
'0:08.684',0.57
'0:08.688',0.76
'0:08.691',1.02
'0:08.695',1.23
'0:08.699',1.32
'0:08.703',1.72
'0:08.707',2.21
'0:08.711',2.78
'0:08.715',3.41
'0:08.719',4.12
'0:08.723',4.58
'0:08.727',4.89
'0:08.730',5.15
'0:08.734',5.37
'0:08.738',5.47
'0:08.742',5.33
'0:08.746',5.21
'0:08.750',4.98
'0:08.754',4.36
'0:08.758',3.6
'0:08.762',2.93
'0:08.766',2.47
'0:08.770',2.09
'0:08.773',1.4
'0:08.777',0.84
'0:08.781',0.45
'0:08.785',0.15
'0:08.789',0.13
'0:08.793',0.29
'0:08.797',0.56
'0:08.801',0.74
'0:08.805',1.07
'0:08.809',1.53
'0:08.813',1.94
'0:08.816',2.16
'0:08.820',1.83
'0:08.824',1.27
'0:08.828',0.75
'0:08.832',0.43
'0:08.836',0.06
'0:08.840',-0.14
'0:08.844',-0.23
'0:08.848',-0.19
'0:08.852',-0.09
'0:08.855',-0.24
'0:08.859',-0.66
'0:08.863',-0.73
'0:08.867',-0.65
'0:08.871',-0.68
'0:08.875',-0.86
'0:08.879',-0.98
'0:08.883',-1.07
'0:08.887',-1.22
'0:08.891',-1.45
'0:08.895',-1.7
'0:08.898',-1.92
'0:08.902',-1.93
'0:08.906',-1.81
'0:08.910',-1.74
'0:08.914',-1.73
'0:08.918',-1.6
'0:08.922',-1.18
'0:08.926',-0.61
'0:08.930',0.37
'0:08.934',2.29
'0:08.938',5.12
'0:08.941',7.78
'0:08.945',8.06
'0:08.949',4.78
'0:08.953',-0.51
'0:08.957',-4.94
'0:08.961',-7.25
'0:08.965',-7.6
'0:08.969',-6.64
'0:08.973',-5.19
'0:08.977',-4.11
'0:08.980',-3.18
'0:08.984',-2.13
'0:08.988',-1.21
'0:08.992',-0.61
'0:08.996',0.06
'0:09.000',0.58
'0:09.004',0.72
'0:09.008',0.8
'0:09.012',0.96
'0:09.016',1.33
'0:09.020',1.61
'0:09.023',1.63
'0:09.027',1.73
'0:09.031',1.82
'0:09.035',2.01
'0:09.039',2.17
'0:09.043',2
'0:09.047',1.75
'0:09.051',1.48
'0:09.055',1.27
'0:09.059',1.46
'0:09.063',1.98
'0:09.066',2.47
'0:09.070',2.83
'0:09.074',3.07
'0:09.078',3.43
'0:09.082',3.85
'0:09.086',4.17
'0:09.090',4.26
'0:09.094',4.09
'0:09.098',3.89
'0:09.102',3.78
'0:09.105',4.03
'0:09.109',3.95
'0:09.113',3.14
'0:09.117',2.25
'0:09.121',1.78
'0:09.125',1.52
'0:09.129',1.12
'0:09.133',0.68
'0:09.137',0.09
'0:09.141',-0.07
'0:09.145',0.03
'0:09.148',0.08
'0:09.152',0.28
'0:09.156',0.51
'0:09.160',0.79
'0:09.164',1.42
'0:09.168',1.89
'0:09.172',1.92
'0:09.176',1.68
'0:09.180',1.53
'0:09.184',1.25
'0:09.188',0.94
'0:09.191',0.55
'0:09.195',0.27
'0:09.199',-0.07
'0:09.203',-0.63
'0:09.207',-1.12
'0:09.211',-1.33
'0:09.215',-1.5
'0:09.219',-1.58
'0:09.223',-1.61
'0:09.227',-1.73
'0:09.230',-1.79
'0:09.234',-1.9
'0:09.238',-2.72
'0:09.242',-3.39
'0:09.246',-3.27
'0:09.250',-2.71
'0:09.254',-2.15
'0:09.258',-1.95
'0:09.262',-2.02
'0:09.266',-2.21
'0:09.270',-1.96
'0:09.273',-1.45
'0:09.277',-0.69
'0:09.281',0.7
'0:09.285',3.04
'0:09.289',5.36
'0:09.293',5.16
'0:09.297',2.13
'0:09.301',-2.37
'0:09.305',-6.37
'0:09.309',-8.42
'0:09.313',-8.5
'0:09.316',-7.7
'0:09.320',-6.68
'0:09.324',-5.65
'0:09.328',-4.49
'0:09.332',-3.47
'0:09.336',-2.66
'0:09.340',-2.12
'0:09.344',-1.56
'0:09.348',-1.07
'0:09.352',-0.65
'0:09.355',-0.52
'0:09.359',-0.84
'0:09.363',-1.01
'0:09.367',-0.85
'0:09.371',-0.87
'0:09.375',-1.1
'0:09.379',-1.44
'0:09.383',-1.03
'0:09.387',-0.19
'0:09.391',0.74
'0:09.395',1.21
'0:09.398',1.43
'0:09.402',1.68
'0:09.406',2.09
'0:09.410',2.45
'0:09.414',2.5
'0:09.418',2.9
'0:09.422',3.9
'0:09.426',5.02
'0:09.430',5.03
'0:09.434',4.59
'0:09.438',4.38
'0:09.441',4.24
'0:09.445',3.71
'0:09.449',3.11
'0:09.453',2.77
'0:09.457',2.12
'0:09.461',1.32
'0:09.465',0.55
'0:09.469',-0.07
'0:09.473',-0.55
'0:09.477',-0.89
'0:09.480',-1.19
'0:09.484',-1.47
'0:09.488',-1.73
'0:09.492',-1.87
'0:09.496',-1.79
'0:09.500',-1.68
'0:09.504',-1.79
'0:09.508',-1.95
'0:09.512',-1.85
'0:09.516',-1.34
'0:09.520',-0.76
'0:09.523',-0.61
'0:09.527',-0.9
'0:09.531',-1.1
'0:09.535',-1.26
'0:09.539',-1.44
'0:09.543',-1.61
'0:09.547',-1.58
'0:09.551',-1.68
'0:09.555',-1.88
'0:09.559',-2.25
'0:09.563',-2.72
'0:09.566',-3.24
'0:09.570',-3.4
'0:09.574',-3.38
'0:09.578',-3.44
'0:09.582',-3.63
'0:09.586',-3.61
'0:09.590',-3.56
'0:09.594',-3.38
'0:09.598',-3.19
'0:09.602',-3.11
'0:09.605',-3.08
'0:09.609',-2.87
'0:09.613',-2.7
'0:09.617',-2.5
'0:09.621',-2.25
'0:09.625',-1.98
'0:09.629',-1.5
'0:09.633',-0.02
'0:09.637',3.02
'0:09.641',6.36
'0:09.645',7.87
'0:09.648',5.63
'0:09.652',0.38
'0:09.656',-4.94
'0:09.660',-7.9
'0:09.664',-8.61
'0:09.668',-8.02
'0:09.672',-6.84
'0:09.676',-5.39
'0:09.680',-3.97
'0:09.684',-2.84
'0:09.688',-2.01
'0:09.691',-1.4
'0:09.695',-1.03
'0:09.699',-0.61
'0:09.703',-0.13
'0:09.707',-0.11
'0:09.711',0.14
'0:09.715',0.51
'0:09.719',0.74
'0:09.723',0.75
'0:09.727',0.57
'0:09.730',0.51
'0:09.734',0.5
'0:09.738',0.9
'0:09.742',1.67
'0:09.746',2.2
'0:09.750',2.33
'0:09.754',2.26
'0:09.758',2.28
'0:09.762',2.55
'0:09.766',3.15
'0:09.770',3.83
'0:09.773',4.39
'0:09.777',4.9
'0:09.781',5.21
'0:09.785',5.24
'0:09.789',5.44
'0:09.793',5.51
'0:09.797',5.3
'0:09.801',4.84
'0:09.805',4.39
'0:09.809',3.83
'0:09.813',3.11
'0:09.816',2.34
'0:09.820',1.73
'0:09.824',1.28
'0:09.828',1.04
'0:09.832',0.78
'0:09.836',0.58
'0:09.840',0.43
'0:09.844',0.22
'0:09.848',0.15
'0:09.852',0.41
'0:09.855',0.85
'0:09.859',1.25
'0:09.863',1.66
'0:09.867',1.8
'0:09.871',1.44
'0:09.875',1
'0:09.879',0.88
'0:09.883',0.86
'0:09.887',0.99
'0:09.891',0.92
'0:09.895',0.55
'0:09.898',0.19
'0:09.902',-0.08
'0:09.906',-0.47
'0:09.910',-0.99
'0:09.914',-1.67
'0:09.918',-2.05
'0:09.922',-2
'0:09.926',-1.97
'0:09.930',-1.94
'0:09.934',-1.86
'0:09.938',-1.96
'0:09.941',-2.25
'0:09.945',-2.31
'0:09.949',-2.2
'0:09.953',-2
'0:09.957',-1.85
'0:09.961',-1.73
'0:09.965',-1.7
'0:09.969',-1.64
'0:09.973',-1.35
'0:09.977',-0.31
'0:09.980',1.51
'0:09.984',4.25
'0:09.988',7.27
'0:09.992',8.76
'0:09.996',6.82
'0:10.000',1.97
'0:10.004',-2.8
'0:10.008',-5.44
'0:10.012',-6.19
'0:10.016',-6.07
'0:10.020',-4.99
'0:10.023',-3.89
'0:10.027',-3.16
'0:10.031',-1.9
'0:10.035',-1.02
'0:10.039',-1.01
'0:10.043',-1.43
'0:10.047',-1.73
'0:10.051',-1.51
'0:10.055',-0.64
'0:10.059',0.56
'0:10.063',1.23
'0:10.066',1.13
'0:10.070',1.02
'0:10.074',1.29
'0:10.078',0.84
'0:10.082',0.18
'0:10.086',-0.01
'0:10.090',0.3
'0:10.094',0.87
'0:10.098',1.56
'0:10.102',1.89
'0:10.105',2.08
'0:10.109',2.17
'0:10.113',2.15
'0:10.117',2.7
'0:10.121',3.74
'0:10.125',4.23
'0:10.129',4.6
'0:10.133',5.01
'0:10.137',4.97
'0:10.141',4.78
'0:10.145',4.77
'0:10.148',4.34
'0:10.152',3.87
'0:10.156',3.5
'0:10.160',3.27
'0:10.164',2.53
'0:10.168',1.32
'0:10.172',0.34
'0:10.176',-0.24
'0:10.180',-0.14
'0:10.184',0.2
'0:10.188',0.54
'0:10.191',0.42
'0:10.195',0.52
'0:10.199',0.92
'0:10.203',1.37
'0:10.207',1.5
'0:10.211',1.74
'0:10.215',1.72
'0:10.219',1.63
'0:10.223',1.64
'0:10.227',1.46
'0:10.230',0.92
'0:10.234',0.36
'0:10.238',0.59
'0:10.242',0.56
'0:10.246',0.16
'0:10.250',-0.35
'0:10.254',-0.52
'0:10.258',-0.47
'0:10.262',-0.69
'0:10.266',-0.81
'0:10.270',-1.06
'0:10.273',-1.64
'0:10.277',-2.38
'0:10.281',-2.56
'0:10.285',-2.11
'0:10.289',-2
'0:10.293',-2.09
'0:10.297',-2.04
'0:10.301',-1.84
'0:10.305',-1.49
'0:10.309',-0.98
'0:10.313',-0.88
'0:10.316',-1.34
'0:10.320',-1.52
'0:10.324',-0.85
'0:10.328',0.45
'0:10.332',1.99
'0:10.336',4.22
'0:10.340',6.19
'0:10.344',5.31
'0:10.348',1.39
'0:10.352',-3.39
'0:10.355',-6.76
'0:10.359',-8.13
'0:10.363',-7.77
'0:10.367',-6.64
'0:10.371',-5.26
'0:10.375',-3.91
'0:10.379',-2.74
'0:10.383',-1.77
'0:10.387',-1.07
'0:10.391',-0.64
'0:10.395',-0.29
'0:10.398',-0.03
'0:10.402',0.05
'0:10.406',0
'0:10.410',-0.04
'0:10.414',-0.02
'0:10.418',0.09
'0:10.422',0.13
'0:10.426',0.26
'0:10.430',0.32
'0:10.434',0.12
'0:10.438',-0.15
'0:10.441',-0.18
'0:10.445',0.19
'0:10.449',0.56
'0:10.453',0.71
'0:10.457',0.92
'0:10.461',1.35
'0:10.465',1.97
'0:10.469',2.59
'0:10.473',3.21
'0:10.477',3.75
'0:10.480',3.94
'0:10.484',3.89
'0:10.488',3.67
'0:10.492',3.43
'0:10.496',3.23
'0:10.500',3.1
'0:10.504',2.86
'0:10.508',2.33
'0:10.512',1.31
'0:10.516',0.36
'0:10.520',-0.44
'0:10.523',-1.05
'0:10.527',-1.48
'0:10.531',-1.78
'0:10.535',-1.82
'0:10.539',-1.82
'0:10.543',-1.85
'0:10.547',-1.76
'0:10.551',-1.6
'0:10.555',-1.27
'0:10.559',-1.12
'0:10.563',-1.09
'0:10.566',-0.98
'0:10.570',-0.93
'0:10.574',-1.08
'0:10.578',-1.3
'0:10.582',-1.47
'0:10.586',-1.7
'0:10.590',-2.04
'0:10.594',-2.28
'0:10.598',-2.7
'0:10.602',-3.21
'0:10.605',-3.61
'0:10.609',-3.83
'0:10.613',-4.04
'0:10.617',-4.01
'0:10.621',-4.06
'0:10.625',-4.41
'0:10.629',-4.41
'0:10.633',-4.13
'0:10.637',-4.06
'0:10.641',-4
'0:10.645',-4.14
'0:10.648',-4.04
'0:10.652',-3.86
'0:10.656',-3.62
'0:10.660',-3.46
'0:10.664',-3.5
'0:10.668',-3.55
'0:10.672',-3.47
'0:10.676',-2.95
'0:10.680',-1.55
'0:10.684',0.81
'0:10.688',4.1
'0:10.691',6.77
'0:10.695',6.4
'0:10.699',2.51
'0:10.703',-2.88
'0:10.707',-6.9
'0:10.711',-8.47
'0:10.715',-8.28
'0:10.719',-7.07
'0:10.723',-5.49
'0:10.727',-4.12
'0:10.730',-3.22
'0:10.734',-2.61
'0:10.738',-1.83
'0:10.742',-1.3
'0:10.746',-1.03
'0:10.750',-0.56
'0:10.754',-0.04
'0:10.758',0.29
'0:10.762',0.34
'0:10.766',0.36
'0:10.770',0.4
'0:10.773',0.26
'0:10.777',0.15
'0:10.781',0.37
'0:10.785',0.88
'0:10.789',1.44
'0:10.793',1.9
'0:10.797',1.92
'0:10.801',1.78
'0:10.805',1.79
'0:10.809',2.13
'0:10.813',2.63
'0:10.816',3.27
'0:10.820',3.87
'0:10.824',4.1
'0:10.828',4.44
'0:10.832',4.97
'0:10.836',5.74
'0:10.840',6.18
'0:10.844',5.82
'0:10.848',5.18
'0:10.852',4.47
'0:10.855',4.36
'0:10.859',4.34
'0:10.863',4.12
'0:10.867',3.63
'0:10.871',3.1
'0:10.875',2.35
'0:10.879',1.58
'0:10.883',0.95
'0:10.887',0.73
'0:10.891',0.9
'0:10.895',1.38
'0:10.898',1.56
'0:10.902',1.51
'0:10.906',1.48
'0:10.910',1.17
'0:10.914',0.66
'0:10.918',0.17
'0:10.922',-0.28
'0:10.926',-0.43
'0:10.930',-0.32
'0:10.934',-0.41
'0:10.938',-0.72
'0:10.941',-0.87
'0:10.945',-0.8
'0:10.949',-0.71
'0:10.953',-1.05
'0:10.957',-1.8
'0:10.961',-2.28
'0:10.965',-2.35
'0:10.969',-2.19
'0:10.973',-2.46
'0:10.977',-2.88
'0:10.980',-3.03
'0:10.984',-2.91
'0:10.988',-2.55
'0:10.992',-2.19
'0:10.996',-2.09
'0:11.000',-1.98
'0:11.004',-1.46
'0:11.008',-0.98
'0:11.012',-0.63
'0:11.016',-0.4
'0:11.020',-0.18
'0:11.023',0.21
'0:11.027',1.5
'0:11.031',3.72
'0:11.035',6.62
'0:11.039',8.28
'0:11.043',6.38
'0:11.047',1.64
'0:11.051',-3.86
'0:11.055',-7.18
'0:11.059',-7.69
'0:11.063',-6.68
'0:11.066',-5.66
'0:11.070',-4.16
'0:11.074',-2.2
'0:11.078',-0.81
'0:11.082',-0.03
'0:11.086',0.21
'0:11.090',0.54
'0:11.094',0.74
'0:11.098',0.22
'0:11.102',-0.39
'0:11.105',-0.4
'0:11.109',-0.18
'0:11.113',0.06
'0:11.117',0.48
'0:11.121',1.07
'0:11.125',1.32
'0:11.129',1.35
'0:11.133',1.23
'0:11.137',0.96
'0:11.141',1.44
'0:11.145',1.96
'0:11.148',2.16
'0:11.152',2.44
'0:11.156',3.09
'0:11.160',3.61
'0:11.164',3.71
'0:11.168',4.02
'0:11.172',4.61
'0:11.176',4.9
'0:11.180',4.62
'0:11.184',4.27
'0:11.188',4.29
'0:11.191',4.28
'0:11.195',4.46
'0:11.199',4.24
'0:11.203',3.76
'0:11.207',3.1
'0:11.211',2.66
'0:11.215',2.29
'0:11.219',1.8
'0:11.223',1.28
'0:11.227',0.68
'0:11.230',0.42
'0:11.234',0.46
'0:11.238',0.55
'0:11.242',0.71
'0:11.246',0.76
'0:11.250',0.83
'0:11.254',0.65
'0:11.258',0.41
'0:11.262',0.32
'0:11.266',0.32
'0:11.270',0.15
'0:11.273',-0.08
'0:11.277',-0.09
'0:11.281',0.06
'0:11.285',0.08
'0:11.289',-0.11
'0:11.293',-0.5
'0:11.297',-0.78
'0:11.301',-1.13
'0:11.305',-1.51
'0:11.309',-1.83
'0:11.313',-2.12
'0:11.316',-2.3
'0:11.320',-2.33
'0:11.324',-2.43
'0:11.328',-2.84
'0:11.332',-3.1
'0:11.336',-2.93
'0:11.340',-2.49
'0:11.344',-2.32
'0:11.348',-2.64
'0:11.352',-2.62
'0:11.355',-2.4
'0:11.359',-2.36
'0:11.363',-2.32
'0:11.367',-1.92
'0:11.371',-1.32
'0:11.375',-0.27
'0:11.379',1.84
'0:11.383',4.8
'0:11.387',6.78
'0:11.391',5.48
'0:11.395',1.6
'0:11.398',-2.78
'0:11.402',-5.86
'0:11.406',-7.22
'0:11.410',-7.06
'0:11.414',-6.11
'0:11.418',-4.69
'0:11.422',-3.13
'0:11.426',-1.95
'0:11.430',-1.26
'0:11.434',-0.68
'0:11.438',-0.18
'0:11.441',0.4
'0:11.445',0.95
'0:11.449',1.36
'0:11.453',1.69
'0:11.457',1.99
'0:11.461',2.21
'0:11.465',2.09
'0:11.469',1.87
'0:11.473',1.78
'0:11.477',1.83
'0:11.480',1.85
'0:11.484',1.8
'0:11.488',1.92
'0:11.492',1.91
'0:11.496',1.77
'0:11.500',1.71
'0:11.504',1.89
'0:11.508',2.14
'0:11.512',2.61
'0:11.516',3.22
'0:11.520',3.64
'0:11.523',3.93
'0:11.527',4
'0:11.531',3.95
'0:11.535',3.9
'0:11.539',3.77
'0:11.543',3.63
'0:11.547',3.37
'0:11.551',2.83
'0:11.555',2.17
'0:11.559',1.4
'0:11.563',0.48
'0:11.566',-0.06
'0:11.570',-0.45
'0:11.574',-0.9
'0:11.578',-1.43
'0:11.582',-1.7
'0:11.586',-1.56
'0:11.590',-1.15
'0:11.594',-0.91
'0:11.598',-1.11
'0:11.602',-1.57
'0:11.605',-1.67
'0:11.609',-1.45
'0:11.613',-1.23
'0:11.617',-1.21
'0:11.621',-1.5
'0:11.625',-2.01
'0:11.629',-2.49
'0:11.633',-2.89
'0:11.637',-3.02
'0:11.641',-2.94
'0:11.645',-2.77
'0:11.648',-2.67
'0:11.652',-3.05
'0:11.656',-3.7
'0:11.660',-4
'0:11.664',-4.08
'0:11.668',-4.18
'0:11.672',-4.23
'0:11.676',-4.46
'0:11.680',-4.75
'0:11.684',-5.03
'0:11.688',-5.24
'0:11.691',-5.16
'0:11.695',-4.65
'0:11.699',-4.05
'0:11.703',-3.43
'0:11.707',-3.42
'0:11.711',-3.76
'0:11.715',-3.85
'0:11.719',-3.66
'0:11.723',-2.98
'0:11.727',-1.82
'0:11.730',0.1
'0:11.734',2.92
'0:11.738',5.54
'0:11.742',5.7
'0:11.746',2.35
'0:11.750',-2.94
'0:11.754',-7.35
'0:11.758',-9.6
'0:11.762',-9.94
'0:11.766',-8.98
'0:11.770',-7.42
'0:11.773',-5.65
'0:11.777',-3.92
'0:11.781',-2.41
'0:11.785',-1.84
'0:11.789',-1.8
'0:11.793',-1.41
'0:11.797',-0.82
'0:11.801',-0.46
'0:11.805',-0.36
'0:11.809',-0.08
'0:11.813',0.32
'0:11.816',0.84
'0:11.820',1.16
'0:11.824',1.63
'0:11.828',2.26
'0:11.832',2.4
'0:11.836',2.04
'0:11.840',1.81
'0:11.844',1.78
'0:11.848',1.81
'0:11.852',2.18
'0:11.855',2.71
'0:11.859',2.8
'0:11.863',3.12
'0:11.867',3.79
'0:11.871',4.44
'0:11.875',4.76
'0:11.879',5.08
'0:11.883',5.7
'0:11.887',5.86
'0:11.891',5.76
'0:11.895',5.41
'0:11.898',4.68
'0:11.902',4.34
'0:11.906',4.15
'0:11.910',3.5
'0:11.914',2.42
'0:11.918',1.34
'0:11.922',0.19
'0:11.926',-0.76
'0:11.930',-1.44
'0:11.934',-1.63
'0:11.938',-1.38
'0:11.941',-0.65
'0:11.945',-0.18
'0:11.949',-0.16
'0:11.953',-0.25
'0:11.957',-0.1
'0:11.961',0.4
'0:11.965',0.74
'0:11.969',0.6
'0:11.973',0.44
'0:11.977',0.51
'0:11.980',0.47
'0:11.984',0.25
'0:11.988',-0.17
'0:11.992',-0.65
'0:11.996',-1.06
'0:12.000',-1.45
'0:12.004',-1.73
'0:12.008',-1.86
'0:12.012',-1.97
'0:12.016',-1.89
'0:12.020',-1.82
'0:12.023',-1.82
'0:12.027',-1.82
'0:12.031',-1.92
'0:12.035',-1.9
'0:12.039',-1.72
'0:12.043',-1.25
'0:12.047',-0.78
'0:12.051',-0.62
'0:12.055',-0.64
'0:12.059',-0.77
'0:12.063',-0.82
'0:12.066',-0.85
'0:12.070',-0.64
'0:12.074',0.02
'0:12.078',1.33
'0:12.082',3.95
'0:12.086',6.63
'0:12.090',6.84
'0:12.094',3.59
'0:12.098',-1.59
'0:12.102',-5.79
'0:12.105',-7.65
'0:12.109',-7.7
'0:12.113',-6.46
'0:12.117',-5.06
'0:12.121',-3.76
'0:12.125',-2.57
'0:12.129',-1.95
'0:12.133',-1.43
'0:12.137',-0.64
'0:12.141',0.29
'0:12.145',0.96
'0:12.148',1.28
'0:12.152',1.32
'0:12.156',1.45
'0:12.160',1.66
'0:12.164',1.76
'0:12.168',1.58
'0:12.172',1.49
'0:12.176',1.39
'0:12.180',1.19
'0:12.184',1.34
'0:12.188',1.67
'0:12.191',1.86
'0:12.195',2.19
'0:12.199',2.41
'0:12.203',2.57
'0:12.207',2.94
'0:12.211',3.25
'0:12.215',3.42
'0:12.219',3.78
'0:12.223',4.34
'0:12.227',4.84
'0:12.230',5.04
'0:12.234',4.95
'0:12.238',4.96
'0:12.242',4.99
'0:12.246',4.75
'0:12.250',4.02
'0:12.254',3.16
'0:12.258',2.42
'0:12.262',2.08
'0:12.266',1.79
'0:12.270',1.31
'0:12.273',0.87
'0:12.277',0.67
'0:12.281',0.53
'0:12.285',0.33
'0:12.289',0.09
'0:12.293',0.13
'0:12.297',0.3
'0:12.301',0.38
'0:12.305',0.56
'0:12.309',0.81
'0:12.313',0.9
'0:12.316',0.94
'0:12.320',0.85
'0:12.324',0.56
'0:12.328',0.2
'0:12.332',-0.14
'0:12.336',-0.56
'0:12.340',-1.16
'0:12.344',-2.01
'0:12.348',-2.94
'0:12.352',-3.19
'0:12.355',-3.13
'0:12.359',-2.94
'0:12.363',-3.07
'0:12.367',-3.32
'0:12.371',-3.02
'0:12.375',-2.38
'0:12.379',-2.14
'0:12.383',-2.43
'0:12.387',-2.63
'0:12.391',-2.52
'0:12.395',-2.51
'0:12.398',-2.31
'0:12.402',-1.72
'0:12.406',-1.43
'0:12.410',-1.28
'0:12.414',-1.2
'0:12.418',-1.11
'0:12.422',-0.65
'0:12.426',0.77
'0:12.430',3.24
'0:12.434',5.69
'0:12.438',5.63
'0:12.441',2.64
'0:12.445',-1.65
'0:12.449',-5.14
'0:12.453',-6.9
'0:12.457',-6.85
'0:12.461',-5.73
'0:12.465',-4.19
'0:12.469',-2.61
'0:12.473',-1.07
'0:12.477',0.22
'0:12.480',1.22
'0:12.484',1.76
'0:12.488',1.79
'0:12.492',1.52
'0:12.496',1.24
'0:12.500',1.02
'0:12.504',0.93
'0:12.508',0.86
'0:12.512',0.9
'0:12.516',0.77
'0:12.520',0.53
'0:12.523',0.41
'0:12.527',0.32
'0:12.531',0.25
'0:12.535',0.43
'0:12.539',0.94
'0:12.543',1.36
'0:12.547',1.47
'0:12.551',1.39
'0:12.555',1.65
'0:12.559',2.28
'0:12.563',3.08
'0:12.566',3.7
'0:12.570',3.71
'0:12.574',3.74
'0:12.578',3.81
'0:12.582',3.3
'0:12.586',2.8
'0:12.590',2.85
'0:12.594',2.97
'0:12.598',2.79
'0:12.602',2.19
'0:12.605',1.61
'0:12.609',1.01
'0:12.613',0.34
'0:12.617',0.02
'0:12.621',-0.27
'0:12.625',-0.59
'0:12.629',-0.71
'0:12.633',-0.53
'0:12.637',-0.01
'0:12.641',-0.24
'0:12.645',-0.99
'0:12.648',-1.46
'0:12.652',-1.43
'0:12.656',-1.1
'0:12.660',-0.91
'0:12.664',-0.65
'0:12.668',-0.8
'0:12.672',-1.28
'0:12.676',-1.59
'0:12.680',-1.8
'0:12.684',-2
'0:12.688',-2.23
'0:12.691',-2.5
'0:12.695',-2.86
'0:12.699',-3.37
'0:12.703',-4.03
'0:12.707',-4.37
'0:12.711',-4.5
'0:12.715',-4.58
'0:12.719',-4.61
'0:12.723',-4.34
'0:12.727',-4.14
'0:12.730',-3.97
'0:12.734',-3.81
'0:12.738',-4.05
'0:12.742',-4.25
'0:12.746',-4.65
'0:12.750',-4.69
'0:12.754',-4.26
'0:12.758',-3.66
'0:12.762',-3.36
'0:12.766',-2.91
'0:12.770',-2.28
'0:12.773',-1.15
'0:12.777',0.2
'0:12.781',2.39
'0:12.785',5.07
'0:12.789',6.21
'0:12.793',3.91
'0:12.797',-1.4
'0:12.801',-6.36
'0:12.805',-8.86
'0:12.809',-9.21
'0:12.813',-8.44
'0:12.816',-6.96
'0:12.820',-5.65
'0:12.824',-4.53
'0:12.828',-3.34
'0:12.832',-2.2
'0:12.836',-1.28
'0:12.840',-0.78
'0:12.844',-0.63
'0:12.848',-0.36
'0:12.852',0.23
'0:12.855',0.57
'0:12.859',0.83
'0:12.863',0.92
'0:12.867',0.96
'0:12.871',1.04
'0:12.875',1.13
'0:12.879',1.36
'0:12.883',1.73
'0:12.887',1.91
'0:12.891',2.09
'0:12.895',2.49
'0:12.898',2.78
'0:12.902',2.91
'0:12.906',3.13
'0:12.910',3.66
'0:12.914',4.2
'0:12.918',4.72
'0:12.922',5.02
'0:12.926',5.1
'0:12.930',4.94
'0:12.934',5
'0:12.938',5.04
'0:12.941',4.76
'0:12.945',4.33
'0:12.949',3.72
'0:12.953',3.39
'0:12.957',2.89
'0:12.961',2.09
'0:12.965',1.37
'0:12.969',0.78
'0:12.973',0.46
'0:12.977',0.37
'0:12.980',0.15
'0:12.984',-0.08
'0:12.988',-0.19
'0:12.992',-0.34
'0:12.996',-0.36
'0:13.000',0.05
'0:13.004',0.55
'0:13.008',0.96
'0:13.012',1.32
'0:13.016',1.45
'0:13.020',1.34
'0:13.023',1.14
'0:13.027',0.87
'0:13.031',0.62
'0:13.035',0.28
'0:13.039',-0.15
'0:13.043',-0.62
'0:13.047',-0.94
'0:13.051',-1.2
'0:13.055',-1.52
'0:13.059',-1.89
'0:13.063',-2.22
'0:13.066',-2.3
'0:13.070',-2.36
'0:13.074',-2.54
'0:13.078',-2.55
'0:13.082',-2.28
'0:13.086',-2.01
'0:13.090',-1.92
'0:13.094',-1.96
'0:13.098',-1.78
'0:13.102',-1.76
'0:13.105',-1.87
'0:13.109',-1.81
'0:13.113',-1.57
'0:13.117',-1.17
'0:13.121',-0.57
'0:13.125',0.69
'0:13.129',3.02
'0:13.133',5.94
'0:13.137',7.58
'0:13.141',6.07
'0:13.145',1.46
'0:13.148',-3.73
'0:13.152',-6.94
'0:13.156',-7.83
'0:13.160',-7.26
'0:13.164',-6.07
'0:13.168',-4.77
'0:13.172',-3.73
'0:13.176',-2.81
'0:13.180',-2.12
'0:13.184',-1.47
'0:13.188',-0.72
'0:13.191',-0.07
'0:13.195',0.45
'0:13.199',0.5
'0:13.203',0.52
'0:13.207',0.73
'0:13.211',0.9
'0:13.215',0.88
'0:13.219',1
'0:13.223',1.37
'0:13.227',1.78
'0:13.230',2.2
'0:13.234',2.5
'0:13.238',2.61
'0:13.242',2.72
'0:13.246',3.03
'0:13.250',3.26
'0:13.254',3.33
'0:13.258',3.5
'0:13.262',3.91
'0:13.266',4.57
'0:13.270',5.06
'0:13.273',4.93
'0:13.277',4.58
'0:13.281',4.33
'0:13.285',4.25
'0:13.289',4.23
'0:13.293',3.88
'0:13.297',3.53
'0:13.301',3.22
'0:13.305',2.69
'0:13.309',2.05
'0:13.313',1.22
'0:13.316',0.58
'0:13.320',0.54
'0:13.324',0.42
'0:13.328',0.06
'0:13.332',-0.07
'0:13.336',0.25
'0:13.340',0.82
'0:13.344',0.78
'0:13.348',0.53
'0:13.352',0.37
'0:13.355',0.62
'0:13.359',0.97
'0:13.363',0.7
'0:13.367',0.69
'0:13.371',0.71
'0:13.375',0.72
'0:13.379',0.67
'0:13.383',-0.06
'0:13.387',-0.67
'0:13.391',-0.62
'0:13.395',-0.43
'0:13.398',-0.49
'0:13.402',-0.96
'0:13.406',-1.66
'0:13.410',-1.87
'0:13.414',-1.83
'0:13.418',-2.14
'0:13.422',-2.13
'0:13.426',-1.91
'0:13.430',-1.62
'0:13.434',-1.54
'0:13.438',-1.61
'0:13.441',-1.75
'0:13.445',-1.69
'0:13.449',-1.08
'0:13.453',-0.76
'0:13.457',-1.21
'0:13.461',-1.42
'0:13.465',-1.62
'0:13.469',-1.73
'0:13.473',-0.81
'0:13.477',1.42
'0:13.480',4.62
'0:13.484',6.7
'0:13.488',5.72
'0:13.492',2.22
'0:13.496',-2.2
'0:13.500',-5.45
'0:13.504',-6.92
'0:13.508',-6.59
'0:13.512',-5.12
'0:13.516',-3.58
'0:13.520',-2.26
'0:13.523',-1.55
'0:13.527',-1.6
'0:13.531',-1.02
'0:13.535',0.08
'0:13.539',0.17
'0:13.543',0.18
'0:13.547',1.85
'0:13.551',1.83
'0:13.555',1.73
'0:13.559',1.76
'0:13.563',1.63
'0:13.566',1.38
'0:13.570',1.09
'0:13.574',0.89
'0:13.578',0.93
'0:13.582',1.18
'0:13.586',1.45
'0:13.590',1.61
'0:13.594',1.61
'0:13.598',1.67
'0:13.602',1.84
'0:13.605',2.12
'0:13.609',2.42
'0:13.613',2.75
'0:13.617',3.22
'0:13.621',3.69
'0:13.625',3.96
'0:13.629',4.13
'0:13.633',4.19
'0:13.637',4.14
'0:13.641',3.94
'0:13.645',3.83
'0:13.648',3.51
'0:13.652',2.77
'0:13.656',1.87
'0:13.660',1.06
'0:13.664',0.33
'0:13.668',-0.56
'0:13.672',-1.12
'0:13.676',-1.19
'0:13.680',-1.09
'0:13.684',-0.89
'0:13.688',-0.74
'0:13.691',-0.57
'0:13.695',-0.6
'0:13.699',-0.79
'0:13.703',-0.77
'0:13.707',-0.68
'0:13.711',-0.72
'0:13.715',-0.82
'0:13.719',-1.03
'0:13.723',-1.31
'0:13.727',-1.72
'0:13.730',-2.19
'0:13.734',-2.73
'0:13.738',-3.16
'0:13.742',-3.46
'0:13.746',-3.65
'0:13.750',-3.65
'0:13.754',-3.65
'0:13.758',-3.59
'0:13.762',-3.61
'0:13.766',-3.76
'0:13.770',-4.03
'0:13.773',-4.2
'0:13.777',-4.4
'0:13.781',-4.52
'0:13.785',-4.6
'0:13.789',-4.63
'0:13.793',-4.65
'0:13.797',-4.57
'0:13.801',-4.38
'0:13.805',-4.15
'0:13.809',-3.83
'0:13.813',-3.46
'0:13.816',-3
'0:13.820',-2.44
'0:13.824',-1.15
'0:13.828',1.16
'0:13.832',3.98
'0:13.836',5.94
'0:13.840',4.85
'0:13.844',0.52
'0:13.848',-4.7
'0:13.852',-8.37
'0:13.855',-9.6
'0:13.859',-9.11
'0:13.863',-7.78
'0:13.867',-6.31
'0:13.871',-5.22
'0:13.875',-4.34
'0:13.879',-3.3
'0:13.883',-2.4
'0:13.887',-1.83
'0:13.891',-1.48
'0:13.895',-1.58
'0:13.898',-1.49
'0:13.902',-1.05
'0:13.906',-0.67
'0:13.910',-0.44
'0:13.914',-0.07
'0:13.918',0.26
'0:13.922',0.36
'0:13.926',0.54
'0:13.930',0.97
'0:13.934',1.51
'0:13.938',1.91
'0:13.941',2.11
'0:13.945',2.2
'0:13.949',2.53
'0:13.953',2.79
'0:13.957',2.96
'0:13.961',3.41
'0:13.965',4.23
'0:13.969',4.56
'0:13.973',4.61
'0:13.977',4.48
'0:13.980',4.7
'0:13.984',4.96
'0:13.988',4.99
'0:13.992',4.6
'0:13.996',4.33
'0:14.000',4.09
'0:14.004',3.38
'0:14.008',2.16
'0:14.012',1.39
'0:14.016',1.11
'0:14.020',0.98
'0:14.023',0.42
'0:14.027',-0.24
'0:14.031',-0.57
'0:14.035',-0.66
'0:14.039',-0.28
'0:14.043',0.22
'0:14.047',0.55
'0:14.051',0.46
'0:14.055',0.39
'0:14.059',0.83
'0:14.063',1.35
'0:14.066',1.12
'0:14.070',0.61
'0:14.074',0.52
'0:14.078',0.84
'0:14.082',0.86
'0:14.086',0.74
'0:14.090',0.67
'0:14.094',0.42
'0:14.098',-0.13
'0:14.102',-0.82
'0:14.105',-1.46
'0:14.109',-1.91
'0:14.113',-1.94
'0:14.117',-1.5
'0:14.121',-1.02
'0:14.125',-0.87
'0:14.129',-1.23
'0:14.133',-1.6
'0:14.137',-1.94
'0:14.141',-2.08
'0:14.145',-1.89
'0:14.148',-1.6
'0:14.152',-1.24
'0:14.156',-0.81
'0:14.160',-0.66
'0:14.164',-1.05
'0:14.168',-1.09
'0:14.172',0.13
'0:14.176',2.38
'0:14.180',4.81
'0:14.184',6.46
'0:14.188',6.52
'0:14.191',3.27
'0:14.195',-2.43
'0:14.199',-6.96
'0:14.203',-8.71
'0:14.207',-8.24
'0:14.211',-6.77
'0:14.215',-5.51
'0:14.219',-4.33
'0:14.223',-3.15
'0:14.227',-2.05
'0:14.230',-1.1
'0:14.234',-0.53
'0:14.238',-0.04
'0:14.242',0.49
'0:14.246',0.66
'0:14.250',1.14
'0:14.254',1.73
'0:14.258',1.73
'0:14.262',1.16
'0:14.266',1.06
'0:14.270',1.25
'0:14.273',1.33
'0:14.277',1.53
'0:14.281',1.86
'0:14.285',2.06
'0:14.289',2.48
'0:14.293',3.42
'0:14.297',3.61
'0:14.301',3.56
'0:14.305',3.43
'0:14.309',3.19
'0:14.313',3.13
'0:14.316',3.7
'0:14.320',4.49
'0:14.324',5
'0:14.328',5.34
'0:14.332',5.46
'0:14.336',5.23
'0:14.340',4.72
'0:14.344',4.32
'0:14.348',3.93
'0:14.352',3.49
'0:14.355',3.11
'0:14.359',2.78
'0:14.363',2.24
'0:14.367',1.57
'0:14.371',0.85
'0:14.375',0.54
'0:14.379',0.52
'0:14.383',0.44
'0:14.387',0.44
'0:14.391',0.09
'0:14.395',-0.39
'0:14.398',-0.33
'0:14.402',0.07
'0:14.406',0.36
'0:14.410',0.49
'0:14.414',0.45
'0:14.418',0.28
'0:14.422',-0.11
'0:14.426',-0.3
'0:14.430',-0.31
'0:14.434',-0.47
'0:14.438',-0.68
'0:14.441',-0.94
'0:14.445',-1.09
'0:14.449',-1.05
'0:14.453',-1.26
'0:14.457',-1.88
'0:14.461',-2.48
'0:14.465',-2.77
'0:14.469',-2.85
'0:14.473',-2.69
'0:14.477',-2.67
'0:14.480',-2.64
'0:14.484',-2.39
'0:14.488',-1.95
'0:14.492',-1.65
'0:14.496',-1.57
'0:14.500',-1.73
'0:14.504',-1.98
'0:14.508',-2.36
'0:14.512',-2.45
'0:14.516',-1.9
'0:14.520',-1.02
'0:14.523',0.6
'0:14.527',2.82
'0:14.531',5.59
'0:14.535',7.38
'0:14.539',6.05
'0:14.543',1.78
'0:14.547',-3.37
'0:14.551',-7
'0:14.555',-8.4
'0:14.559',-7.88
'0:14.563',-6.34
'0:14.566',-4.87
'0:14.570',-3.5
'0:14.574',-2.4
'0:14.578',-2.17
'0:14.582',-1.95
'0:14.586',-1.47
'0:14.590',-1
'0:14.594',-0.58
'0:14.598',-0.26
'0:14.602',-0.12
'0:14.605',-0.2
'0:14.609',-0.28
'0:14.613',-0.19
'0:14.617',-0.04
'0:14.621',0.23
'0:14.625',0.23
'0:14.629',0.05
'0:14.633',0.15
'0:14.637',0.53
'0:14.641',1.05
'0:14.645',1.53
'0:14.648',1.95
'0:14.652',2.27
'0:14.656',2.47
'0:14.660',2.76
'0:14.664',3.21
'0:14.668',3.88
'0:14.672',4.57
'0:14.676',4.98
'0:14.680',5.02
'0:14.684',4.85
'0:14.688',4.1
'0:14.691',3.48
'0:14.695',3.05
'0:14.699',2.71
'0:14.703',2.3
'0:14.707',1.88
'0:14.711',1.47
'0:14.715',1.18
'0:14.719',1.13
'0:14.723',0.99
'0:14.727',0.76
'0:14.730',0.67
'0:14.734',0.67
'0:14.738',0.78
'0:14.742',0.49
'0:14.746',0.49
'0:14.750',0.67
'0:14.754',1.01
'0:14.758',1.68
'0:14.762',1.96
'0:14.766',1.81
'0:14.770',1.09
'0:14.773',0.42
'0:14.777',0.14
'0:14.781',0.03
'0:14.785',0.09
'0:14.789',-0.18
'0:14.793',-0.68
'0:14.797',-1.04
'0:14.801',-1.4
'0:14.805',-1.67
'0:14.809',-1.99
'0:14.813',-2.04
'0:14.816',-2
'0:14.820',-2.07
'0:14.824',-2.18
'0:14.828',-2.26
'0:14.832',-2.24
'0:14.836',-2.29
'0:14.840',-2.2
'0:14.844',-2.1
'0:14.848',-2.01
'0:14.852',-2.02
'0:14.855',-2.05
'0:14.859',-2.09
'0:14.863',-2.01
'0:14.867',-1.59
'0:14.871',-1.02
'0:14.875',0.22
'0:14.879',2.31
'0:14.883',5.04
'0:14.887',6.82
'0:14.891',5.41
'0:14.895',1.36
'0:14.898',-3.37
'0:14.902',-6.7
'0:14.906',-7.9
'0:14.910',-7.43
'0:14.914',-6.18
'0:14.918',-4.76
'0:14.922',-3.46
'0:14.926',-2.38
'0:14.930',-1.68
'0:14.934',-1.36
'0:14.938',-1.11
'0:14.941',-0.84
'0:14.945',-0.68
'0:14.949',-0.82
'0:14.953',-1.2
'0:14.957',-1.16
'0:14.961',-0.69
'0:14.965',-0.11
'0:14.969',0.21
'0:14.973',0.43
'0:14.977',0.6
'0:14.980',0.68
'0:14.984',0.75
'0:14.988',0.63
'0:14.992',0.2
'0:14.996',0.12
'0:15.000',0.58
'0:15.004',1.14
'0:15.008',1.19
'0:15.012',0.91
'0:15.016',1.15
'0:15.020',1.89
'0:15.023',2.64
'0:15.027',3.27
'0:15.031',3.36
'0:15.035',2.83
'0:15.039',2.39
'0:15.043',2.06
'0:15.047',1.71
'0:15.051',1.43
'0:15.055',1.17
'0:15.059',0.69
'0:15.063',0.21
'0:15.066',-0.29
'0:15.070',-0.55
'0:15.074',-0.63
'0:15.078',-0.74
'0:15.082',-0.87
'0:15.086',-0.77
'0:15.090',-0.58
'0:15.094',-0.79
'0:15.098',-1.29
'0:15.102',-1.35
'0:15.105',-1.12
'0:15.109',-1.02
'0:15.113',-0.93
'0:15.117',-0.76
'0:15.121',-0.52
'0:15.125',-0.33
'0:15.129',-0.18
'0:15.133',-0.15
'0:15.137',-0.56
'0:15.141',-0.85
'0:15.145',-0.52
'0:15.148',-0.34
'0:15.152',-1.46
'0:15.156',-2.74
'0:15.160',-3.35
'0:15.164',-3.66
'0:15.168',-4
'0:15.172',-4.32
'0:15.176',-4.27
'0:15.180',-4.04
'0:15.184',-3.56
'0:15.188',-3.11
'0:15.191',-3.02
'0:15.195',-3.34
'0:15.199',-3.3
'0:15.203',-3.24
'0:15.207',-3.22
'0:15.211',-3.08
'0:15.215',-2.87
'0:15.219',-2.63
'0:15.223',-2.04
'0:15.227',-0.67
'0:15.230',1.45
'0:15.234',4.1
'0:15.238',6.01
'0:15.242',5.35
'0:15.246',1.29
'0:15.250',-3.8
'0:15.254',-7.18
'0:15.258',-8.57
'0:15.262',-8.24
'0:15.266',-6.96
'0:15.270',-5.66
'0:15.273',-4.51
'0:15.277',-3.35
'0:15.281',-2.38
'0:15.285',-1.47
'0:15.289',-0.72
'0:15.293',-0.27
'0:15.297',0.08
'0:15.301',0.49
'0:15.305',0.87
'0:15.309',1.4
'0:15.313',1.31
'0:15.316',1.12
'0:15.320',1.23
'0:15.324',1.61
'0:15.328',1.93
'0:15.332',2.27
'0:15.336',2.37
'0:15.340',2.45
'0:15.344',2.66
'0:15.348',2.75
'0:15.352',3.05
'0:15.355',3.66
'0:15.359',4.22
'0:15.363',4.39
'0:15.367',4.48
'0:15.371',4.81
'0:15.375',5.08
'0:15.379',5.51
'0:15.383',5.79
'0:15.387',5.89
'0:15.391',5.53
'0:15.395',5.07
'0:15.398',5.01
'0:15.402',4.86
'0:15.406',4.17
'0:15.410',3.39
'0:15.414',2.68
'0:15.418',2.11
'0:15.422',1.91
'0:15.426',1.52
'0:15.430',0.9
'0:15.434',0.44
'0:15.438',0.08
'0:15.441',0.4
'0:15.445',1
'0:15.449',1.22
'0:15.453',0.91
'0:15.457',0.71
'0:15.461',0.72
'0:15.465',0.82
'0:15.469',0.46
'0:15.473',0.22
'0:15.477',0.35
'0:15.480',0.78
'0:15.484',0.52
'0:15.488',0.24
'0:15.492',-0.23
'0:15.496',-0.89
'0:15.500',-1.44
'0:15.504',-1.64
'0:15.508',-1.65
'0:15.512',-1.79
'0:15.516',-2.37
'0:15.520',-2.56
'0:15.523',-2.8
'0:15.527',-3.29
'0:15.531',-3.4
'0:15.535',-3.14
'0:15.539',-2.6
'0:15.543',-2.51
'0:15.547',-3.01
'0:15.551',-3.29
'0:15.555',-2.98
'0:15.559',-2.58
'0:15.563',-1.97
'0:15.566',-1.75
'0:15.570',-1.61
'0:15.574',-0.7
'0:15.578',0.92
'0:15.582',3.34
'0:15.586',6.03
'0:15.590',6.96
'0:15.594',3.52
'0:15.598',-1.82
'0:15.602',-5.84
'0:15.605',-7.63
'0:15.609',-8.23
'0:15.613',-8.22
'0:15.617',-7.28
'0:15.621',-5.67
'0:15.625',-3.95
'0:15.629',-2.84
'0:15.633',-2.44
'0:15.637',-2.2
'0:15.641',-1.94
'0:15.645',-1.52
'0:15.648',-0.98
'0:15.652',-0.57
'0:15.656',-0.4
'0:15.660',-0.25
'0:15.664',-0.09
'0:15.668',-0.01
'0:15.672',0.39
'0:15.676',1.06
'0:15.680',1.54
'0:15.684',1.77
'0:15.688',1.81
'0:15.691',1.57
'0:15.695',1.6
'0:15.699',2.02
'0:15.703',2.68
'0:15.707',3.09
'0:15.711',3.26
'0:15.715',3.49
'0:15.719',3.8
'0:15.723',4.08
'0:15.727',4.53
'0:15.730',4.9
'0:15.734',5.06
'0:15.738',5.02
'0:15.742',4.79
'0:15.746',4.55
'0:15.750',4.29
'0:15.754',3.9
'0:15.758',3.31
'0:15.762',2.39
'0:15.766',1.66
'0:15.770',1.36
'0:15.773',1
'0:15.777',0.34
'0:15.781',-0.17
'0:15.785',-0.29
'0:15.789',0.09
'0:15.793',0.43
'0:15.797',0.65
'0:15.801',0.85
'0:15.805',0.92
'0:15.809',1.15
'0:15.813',1.44
'0:15.816',1.49
'0:15.820',1.38
'0:15.824',1.04
'0:15.828',0.61
'0:15.832',0.47
'0:15.836',0.26
'0:15.840',0.08
'0:15.844',-0.04
'0:15.848',-0.23
'0:15.852',-0.53
'0:15.855',-0.94
'0:15.859',-1.07
'0:15.863',-1.61
'0:15.867',-2.29
'0:15.871',-2.5
'0:15.875',-2.73
'0:15.879',-3.39
'0:15.883',-3.84
'0:15.887',-3.74
'0:15.891',-3.47
'0:15.895',-3.06
'0:15.898',-2.62
'0:15.902',-2.62
'0:15.906',-2.71
'0:15.910',-2.56
'0:15.914',-2.26
'0:15.918',-1.75
'0:15.922',-1.13
'0:15.926',-0.4
'0:15.930',0.53
'0:15.934',2.53
'0:15.938',5.51
'0:15.941',6.55
'0:15.945',4.57
'0:15.949',-0.1
'0:15.953',-4.91
'0:15.957',-7.69
'0:15.961',-8.09
'0:15.965',-7.03
'0:15.969',-5.5
'0:15.973',-4.43
'0:15.977',-3.35
'0:15.980',-1.92
'0:15.984',-0.95
'0:15.988',-0.83
'0:15.992',-0.9
'0:15.996',-0.7
'0:16.000',-0.19
'0:16.004',0.33
'0:16.008',0.58
'0:16.012',0.73
'0:16.016',0.42
'0:16.020',0.12
'0:16.023',-0.25
'0:16.027',0.29
'0:16.031',1.69
'0:16.035',2.43
'0:16.039',2.1
'0:16.043',1.53
'0:16.047',1.08
'0:16.051',0.88
'0:16.055',1.35
'0:16.059',2.19
'0:16.063',2.74
'0:16.066',3.02
'0:16.070',3.32
'0:16.074',3.72
'0:16.078',3.8
'0:16.082',3.79
'0:16.086',3.73
'0:16.090',3.94
'0:16.094',4.06
'0:16.098',4.06
'0:16.102',3.68
'0:16.105',2.9
'0:16.109',2.17
'0:16.113',2.07
'0:16.117',2.12
'0:16.121',1.79
'0:16.125',1.26
'0:16.129',0.76
'0:16.133',0.33
'0:16.137',0.19
'0:16.141',-0.06
'0:16.145',-0.26
'0:16.148',-0.08
'0:16.152',0.24
'0:16.156',0.27
'0:16.160',0.36
'0:16.164',0.35
'0:16.168',0.54
'0:16.172',1.03
'0:16.176',1.29
'0:16.180',1.1
'0:16.184',0.94
'0:16.188',0.65
'0:16.191',0.22
'0:16.195',-0.17
'0:16.199',-0.45
'0:16.203',-0.69
'0:16.207',-1.22
'0:16.211',-1.48
'0:16.215',-1.62
'0:16.219',-1.91
'0:16.223',-2.09
'0:16.227',-2.26
'0:16.230',-2.18
'0:16.234',-1.82
'0:16.238',-1.6
'0:16.242',-1.64
'0:16.246',-2.09
'0:16.250',-2.45
'0:16.254',-2.71
'0:16.258',-2.94
'0:16.262',-2.63
'0:16.266',-2.3
'0:16.270',-2.01
'0:16.273',-1.61
'0:16.277',-1.37
'0:16.281',-0.56
'0:16.285',1.17
'0:16.289',3.83
'0:16.293',5.87
'0:16.297',5.26
'0:16.301',1.82
'0:16.305',-2.65
'0:16.309',-5.83
'0:16.313',-7.17
'0:16.316',-6.9
'0:16.320',-5.78
'0:16.324',-4.42
'0:16.328',-3.12
'0:16.332',-2.05
'0:16.336',-1.23
'0:16.340',-0.62
'0:16.344',-0.28
'0:16.348',-0.05
'0:16.352',0.12
'0:16.355',0.24
'0:16.359',0.3
'0:16.363',0.45
'0:16.367',0.58
'0:16.371',0.75
'0:16.375',0.89
'0:16.379',1
'0:16.383',0.95
'0:16.387',0.93
'0:16.391',0.95
'0:16.395',0.98
'0:16.398',1.13
'0:16.402',1.5
'0:16.406',1.81
'0:16.410',2.18
'0:16.414',2.63
'0:16.418',3.13
'0:16.422',3.43
'0:16.426',3.79
'0:16.430',4.23
'0:16.434',4.55
'0:16.438',4.68
'0:16.441',4.63
'0:16.445',4.4
'0:16.449',4.2
'0:16.453',3.92
'0:16.457',3.39
'0:16.461',2.74
'0:16.465',1.96
'0:16.469',1.16
'0:16.473',0.29
'0:16.477',-0.57
'0:16.480',-1.26
'0:16.484',-1.76
'0:16.488',-2.04
'0:16.492',-2.12
'0:16.496',-2.06
'0:16.500',-1.97
'0:16.504',-2
'0:16.508',-2.03
'0:16.512',-1.93
'0:16.516',-1.82
'0:16.520',-1.85
'0:16.523',-1.89
'0:16.527',-1.92
'0:16.531',-1.91
'0:16.535',-1.7
'0:16.539',-1.62
'0:16.543',-2
'0:16.547',-2.52
'0:16.551',-3.12
'0:16.555',-3.54
'0:16.559',-3.77
'0:16.563',-3.75
'0:16.566',-3.79
'0:16.570',-4.05
'0:16.574',-4.37
'0:16.578',-4.53
'0:16.582',-4.4
'0:16.586',-4.03
'0:16.590',-3.83
'0:16.594',-3.71
'0:16.598',-3.63
'0:16.602',-3.58
'0:16.605',-3.34
'0:16.609',-3.21
'0:16.613',-3.35
'0:16.617',-3.48
'0:16.621',-3.53
'0:16.625',-3.29
'0:16.629',-2.92
'0:16.633',-2.32
'0:16.637',-0.8
'0:16.641',1.73
'0:16.645',4.99
'0:16.648',7.02
'0:16.652',5.72
'0:16.656',1.45
'0:16.660',-3.87
'0:16.664',-7.55
'0:16.668',-8.57
'0:16.672',-8.15
'0:16.676',-6.86
'0:16.680',-5.48
'0:16.684',-4.33
'0:16.688',-3.36
'0:16.691',-2.58
'0:16.695',-1.93
'0:16.699',-1.33
'0:16.703',-1.12
'0:16.707',-1.16
'0:16.711',-1.1
'0:16.715',-0.87
'0:16.719',-0.27
'0:16.723',0.34
'0:16.727',0.24
'0:16.730',-0.08
'0:16.734',-0.28
'0:16.738',-0.3
'0:16.742',0.08
'0:16.746',0.89
'0:16.750',1.73
'0:16.754',1.95
'0:16.758',1.92
'0:16.762',1.99
'0:16.766',2.4
'0:16.770',3
'0:16.773',3.62
'0:16.777',4.1
'0:16.781',4.62
'0:16.785',5.06
'0:16.789',5.42
'0:16.793',5.52
'0:16.797',5.4
'0:16.801',5.19
'0:16.805',5.1
'0:16.809',4.79
'0:16.813',4.28
'0:16.816',3.68
'0:16.820',3.15
'0:16.824',2.91
'0:16.828',2.47
'0:16.832',1.69
'0:16.836',0.99
'0:16.840',0.64
'0:16.844',0.6
'0:16.848',0.75
'0:16.852',0.94
'0:16.855',1.16
'0:16.859',1.12
'0:16.863',1.24
'0:16.867',1.72
'0:16.871',1.91
'0:16.875',1.66
'0:16.879',1.66
'0:16.883',1.54
'0:16.887',1.46
'0:16.891',1.54
'0:16.895',1.24
'0:16.898',0.52
'0:16.902',-0.24
'0:16.906',-0.6
'0:16.910',-0.59
'0:16.914',-0.53
'0:16.918',-0.75
'0:16.922',-1.38
'0:16.926',-2.28
'0:16.930',-3.05
'0:16.934',-3.2
'0:16.938',-2.86
'0:16.941',-2.7
'0:16.945',-2.73
'0:16.949',-2.66
'0:16.953',-2.65
'0:16.957',-2.56
'0:16.961',-2.28
'0:16.965',-1.82
'0:16.969',-1.56
'0:16.973',-1.37
'0:16.977',-1.22
'0:16.980',-1.28
'0:16.984',-1.06
'0:16.988',-0.04
'0:16.992',1.9
'0:16.996',4.92
'0:17.000',7.42
'0:17.004',7.32
'0:17.008',3.75
'0:17.012',-1.6
'0:17.016',-5.51
'0:17.020',-7.04
'0:17.023',-6.62
'0:17.027',-5.42
'0:17.031',-4.27
'0:17.035',-3.18
'0:17.039',-2.06
'0:17.043',-1.01
'0:17.047',-0.19
'0:17.051',0.36
'0:17.055',0.72
'0:17.059',0.99
'0:17.063',1.02
'0:17.066',0.91
'0:17.070',0.79
'0:17.074',0.73
'0:17.078',0.79
'0:17.082',1.04
'0:17.086',1.42
'0:17.090',1.75
'0:17.094',1.69
'0:17.098',1.41
'0:17.102',1.1
'0:17.105',1.3
'0:17.109',1.72
'0:17.113',2.08
'0:17.117',2.3
'0:17.121',2.48
'0:17.125',2.75
'0:17.129',3.06
'0:17.133',3.19
'0:17.137',3.22
'0:17.141',3.26
'0:17.145',3.44
'0:17.148',3.68
'0:17.152',3.94
'0:17.156',3.88
'0:17.160',3.63
'0:17.164',3.07
'0:17.168',2.61
'0:17.172',2.36
'0:17.176',2.07
'0:17.180',1.54
'0:17.184',0.95
'0:17.188',0.5
'0:17.191',0.16
'0:17.195',-0.05
'0:17.199',-0.32
'0:17.203',-0.46
'0:17.207',-0.58
'0:17.211',-0.67
'0:17.215',-0.75
'0:17.219',-0.61
'0:17.223',-0.14
'0:17.227',0.33
'0:17.230',0.63
'0:17.234',0.62
'0:17.238',0.4
'0:17.242',0.27
'0:17.246',-0.02
'0:17.250',-0.38
'0:17.254',-0.38
'0:17.258',-0.32
'0:17.262',-0.36
'0:17.266',-0.8
'0:17.270',-1.37
'0:17.273',-1.62
'0:17.277',-1.81
'0:17.281',-2.01
'0:17.285',-2.11
'0:17.289',-2.21
'0:17.293',-2.15
'0:17.297',-2.14
'0:17.301',-2.15
'0:17.305',-2.08
'0:17.309',-2.12
'0:17.313',-2.12
'0:17.316',-2.23
'0:17.320',-2.26
'0:17.324',-2.03
'0:17.328',-1.83
'0:17.332',-1.8
'0:17.336',-1.76
'0:17.340',-1.16
'0:17.344',0.46
'0:17.348',3.1
'0:17.352',6.19
'0:17.355',7.04
'0:17.359',4.55
'0:17.363',-0.24
'0:17.367',-5.03
'0:17.371',-8.03
'0:17.375',-8.54
'0:17.379',-7.62
'0:17.383',-6.26
'0:17.387',-5.02
'0:17.391',-3.96
'0:17.395',-2.72
'0:17.398',-1.52
'0:17.402',-0.66
'0:17.406',-0.11
'0:17.410',0.05
'0:17.414',-0.07
'0:17.418',-0.14
'0:17.422',0.32
'0:17.426',0.7
'0:17.430',0.83
'0:17.434',1.08
'0:17.438',1.43
'0:17.441',1.74
'0:17.445',1.89
'0:17.449',2.16
'0:17.453',2.59
'0:17.457',3.08
'0:17.461',3.36
'0:17.465',3.41
'0:17.469',3.49
'0:17.473',3.6
'0:17.477',3.79
'0:17.480',4.22
'0:17.484',4.97
'0:17.488',5.68
'0:17.492',5.91
'0:17.496',5.88
'0:17.500',5.49
'0:17.504',4.8
'0:17.508',4.4
'0:17.512',4.06
'0:17.516',3.58
'0:17.520',2.95
'0:17.523',2.34
'0:17.527',1.82
'0:17.531',1.13
'0:17.535',0.45
'0:17.539',0.09
'0:17.543',-0.37
'0:17.547',-0.48
'0:17.551',-0.55
'0:17.555',-0.74
'0:17.559',-1.16
'0:17.563',-0.89
'0:17.566',-0.07
'0:17.570',0.52
'0:17.574',0.71
'0:17.578',0.74
'0:17.582',0.66
'0:17.586',-0.15
'0:17.590',-0.81
'0:17.594',-1.01
'0:17.598',-1.2
'0:17.602',-1.35
'0:17.605',-1.44
'0:17.609',-1.65
'0:17.613',-1.93
'0:17.617',-2
'0:17.621',-1.6
'0:17.625',-1.31
'0:17.629',-1.31
'0:17.633',-1.49
'0:17.637',-1.79
'0:17.641',-2.01
'0:17.645',-2.28
'0:17.648',-2.13
'0:17.652',-1.62
'0:17.656',-1.61
'0:17.660',-2.08
'0:17.664',-2.49
'0:17.668',-2.67
'0:17.672',-2.73
'0:17.676',-2.75
'0:17.680',-2.95
'0:17.684',-3.31
'0:17.688',-3.41
'0:17.691',-2.75
'0:17.695',-1.72
'0:17.699',-0.46
'0:17.703',1.22
'0:17.707',3.63
'0:17.711',5.5
'0:17.715',4.33
'0:17.719',0.69
'0:17.723',-3.33
'0:17.727',-6.27
'0:17.730',-7.67
'0:17.734',-7.73
'0:17.738',-7.41
'0:17.742',-6.76
'0:17.746',-5.7
'0:17.750',-4.36
'0:17.754',-3.16
'0:17.758',-2.25
'0:17.762',-1.32
'0:17.766',-0.49
'0:17.770',0.17
'0:17.773',0.86
'0:17.777',0.87
'0:17.781',0.12
'0:17.785',-0.52
'0:17.789',-0.51
'0:17.793',-0.13
'0:17.797',0.06
'0:17.801',0.33
'0:17.805',0.67
'0:17.809',1.08
'0:17.813',1.57
'0:17.816',1.58
'0:17.820',1.55
'0:17.824',1.98
'0:17.828',2.36
'0:17.832',2.37
'0:17.836',2.66
'0:17.840',3.37
'0:17.844',3.79
'0:17.848',3.81
'0:17.852',3.76
'0:17.855',3.89
'0:17.859',3.77
'0:17.863',3.53
'0:17.867',4.1
'0:17.871',4.16
'0:17.875',3.43
'0:17.879',2.54
'0:17.883',2.06
'0:17.887',1.88
'0:17.891',1.47
'0:17.895',0.41
'0:17.898',-0.42
'0:17.902',-0.51
'0:17.906',-0.66
'0:17.910',-0.8
'0:17.914',-0.57
'0:17.918',-0.27
'0:17.922',-0.5
'0:17.926',-0.94
'0:17.930',-0.7
'0:17.934',-0.14
'0:17.938',0.4
'0:17.941',0.58
'0:17.945',0.68
'0:17.949',0.89
'0:17.953',0.74
'0:17.957',0.08
'0:17.961',-0.61
'0:17.965',-0.94
'0:17.969',-1.06
'0:17.973',-1.37
'0:17.977',-2
'0:17.980',-2.38
'0:17.984',-2.55
'0:17.988',-2.91
'0:17.992',-2.88
'0:17.996',-2.69
'0:18.000',-3
'0:18.004',-3.68
'0:18.008',-3.73
'0:18.012',-3.13
'0:18.016',-2.68
'0:18.020',-2.38
'0:18.023',-2.19
'0:18.027',-2.63
'0:18.031',-3.02
'0:18.035',-2.68
'0:18.039',-2.38
'0:18.043',-2.46
'0:18.047',-2.25
'0:18.051',-1.8
'0:18.055',-1.03
'0:18.059',0.56
'0:18.063',3.26
'0:18.066',5.71
'0:18.070',5.41
'0:18.074',2.09
'0:18.078',-2.65
'0:18.082',-6.27
'0:18.086',-7.33
'0:18.090',-6.78
'0:18.094',-6.12
'0:18.098',-5.3
'0:18.102',-4.21
'0:18.105',-2.87
'0:18.109',-1.93
'0:18.113',-1.4
'0:18.117',-0.78
'0:18.121',-0.13
'0:18.125',0.24
'0:18.129',0.27
'0:18.133',0.06
'0:18.137',-0.05
'0:18.141',0.32
'0:18.145',0.64
'0:18.148',0.33
'0:18.152',0.08
'0:18.156',0.07
'0:18.160',0.09
'0:18.164',0.22
'0:18.168',0.5
'0:18.172',1.17
'0:18.176',1.58
'0:18.180',1.47
'0:18.184',1.29
'0:18.188',1.3
'0:18.191',1.81
'0:18.195',2.56
'0:18.199',3.29
'0:18.203',3.6
'0:18.207',3.42
'0:18.211',3.34
'0:18.215',3.52
'0:18.219',3.4
'0:18.223',2.84
'0:18.227',2.26
'0:18.230',1.89
'0:18.234',2.06
'0:18.238',2.44
'0:18.242',1.92
'0:18.246',0.82
'0:18.250',-0.14
'0:18.254',-0.38
'0:18.258',-0.29
'0:18.262',-0.53
'0:18.266',-0.87
'0:18.270',-0.79
'0:18.273',-0.66
'0:18.277',-0.77
'0:18.281',-1.01
'0:18.285',-0.95
'0:18.289',-0.62
'0:18.293',-0.52
'0:18.297',-0.44
'0:18.301',0.08
'0:18.305',0.43
'0:18.309',0.54
'0:18.313',0.4
'0:18.316',0.07
'0:18.320',-0.32
'0:18.324',-0.55
'0:18.328',-0.72
'0:18.332',-1.38
'0:18.336',-2.17
'0:18.340',-2.72
'0:18.344',-2.8
'0:18.348',-2.7
'0:18.352',-2.6
'0:18.355',-2.61
'0:18.359',-2.75
'0:18.363',-2.69
'0:18.367',-2.12
'0:18.371',-1.78
'0:18.375',-1.8
'0:18.379',-1.78
'0:18.383',-1.93
'0:18.387',-2.35
'0:18.391',-2.6
'0:18.395',-2.05
'0:18.398',-1.1
'0:18.402',-0.81
'0:18.406',-0.63
'0:18.410',0.54
'0:18.414',3.11
'0:18.418',6.19
'0:18.422',7.39
'0:18.426',4.88
'0:18.430',0.07
'0:18.434',-4.04
'0:18.438',-6.15
'0:18.441',-6.91
'0:18.445',-6.41
'0:18.449',-5.35
'0:18.453',-4.43
'0:18.457',-3.49
'0:18.461',-2.65
'0:18.465',-2.16
'0:18.469',-1.54
'0:18.473',-0.68
'0:18.477',-0.37
'0:18.480',0
'0:18.484',0.95
'0:18.488',1.61
'0:18.492',1.06
'0:18.496',0.23
'0:18.500',-0.05
'0:18.504',0.41
'0:18.508',0.98
'0:18.512',1.14
'0:18.516',1.38
'0:18.520',1.84
'0:18.523',2.51
'0:18.527',3.2
'0:18.531',3.23
'0:18.535',3.03
'0:18.539',2.99
'0:18.543',3.16
'0:18.547',3.24
'0:18.551',3.68
'0:18.555',4.58
'0:18.559',5.46
'0:18.563',6.2
'0:18.566',6.09
'0:18.570',5.08
'0:18.574',4.45
'0:18.578',3.9
'0:18.582',3.4
'0:18.586',3.4
'0:18.590',3.47
'0:18.594',3.16
'0:18.598',2.69
'0:18.602',2.05
'0:18.605',1.46
'0:18.609',1.04
'0:18.613',0.55
'0:18.617',0.42
'0:18.621',0.5
'0:18.625',0.73
'0:18.629',0.97
'0:18.633',0.8
'0:18.637',0.22
'0:18.641',0.07
'0:18.645',0.4
'0:18.648',0.67
'0:18.652',1.22
'0:18.656',2.05
'0:18.660',2.28
'0:18.664',1.8
'0:18.668',1.26
'0:18.672',0.71
'0:18.676',0.31
'0:18.680',0.6
'0:18.684',0.76
'0:18.688',0.19
'0:18.691',-0.69
'0:18.695',-1.32
'0:18.699',-1.61
'0:18.703',-1.99
'0:18.707',-2.31
'0:18.711',-2.11
'0:18.715',-1.64
'0:18.719',-1.39
'0:18.723',-1.38
'0:18.727',-1.36
'0:18.730',-1.47
'0:18.734',-1.72
'0:18.738',-1.78
'0:18.742',-1.47
'0:18.746',-1.1
'0:18.750',-1.21
'0:18.754',-1.26
'0:18.758',-1.1
'0:18.762',-0.36
'0:18.766',1.46
'0:18.770',4.3
'0:18.773',7.17
'0:18.777',8.11
'0:18.781',5.74
'0:18.785',0.75
'0:18.789',-4.19
'0:18.793',-7.42
'0:18.797',-8.15
'0:18.801',-7.14
'0:18.805',-5.5
'0:18.809',-3.97
'0:18.813',-2.96
'0:18.816',-2.29
'0:18.820',-1.7
'0:18.824',-1.07
'0:18.828',-0.54
'0:18.832',-0.43
'0:18.836',-0.32
'0:18.840',-0.15
'0:18.844',0.14
'0:18.848',0.35
'0:18.852',0.4
'0:18.855',0.35
'0:18.859',0.4
'0:18.863',0.46
'0:18.867',0.4
'0:18.871',0.37
'0:18.875',0.57
'0:18.879',0.98
'0:18.883',1.51
'0:18.887',1.61
'0:18.891',1.65
'0:18.895',2.05
'0:18.898',2.87
'0:18.902',3.71
'0:18.906',3.86
'0:18.910',3.54
'0:18.914',3.46
'0:18.918',3.81
'0:18.922',4.13
'0:18.926',4.02
'0:18.930',3.83
'0:18.934',3.83
'0:18.938',3.79
'0:18.941',3.35
'0:18.945',2.94
'0:18.949',2.3
'0:18.953',1.57
'0:18.957',1.06
'0:18.961',0.95
'0:18.965',0.75
'0:18.969',0.33
'0:18.973',-0.05
'0:18.977',-0.49
'0:18.980',-0.45
'0:18.984',-0.06
'0:18.988',0.13
'0:18.992',0.38
'0:18.996',0.68
'0:19.000',0.75
'0:19.004',0.85
'0:19.008',0.73
'0:19.012',0.8
'0:19.016',0.74
'0:19.020',0.54
'0:19.023',0.35
'0:19.027',0.18
'0:19.031',0.03
'0:19.035',-0.39
'0:19.039',-0.92
'0:19.043',-1.3
'0:19.047',-1.71
'0:19.051',-2.06
'0:19.055',-2.07
'0:19.059',-1.93
'0:19.063',-1.87
'0:19.066',-2.06
'0:19.070',-2.19
'0:19.074',-2.33
'0:19.078',-2.43
'0:19.082',-2.34
'0:19.086',-2.08
'0:19.090',-1.71
'0:19.094',-1.58
'0:19.098',-1.68
'0:19.102',-2.05
'0:19.105',-2.21
'0:19.109',-1.87
'0:19.113',-1.26
'0:19.117',-0.24
'0:19.121',1.57
'0:19.125',4.23
'0:19.129',6.38
'0:19.133',5.73
'0:19.137',2.19
'0:19.141',-2.56
'0:19.145',-6.27
'0:19.148',-8.03
'0:19.152',-8.01
'0:19.156',-7.17
'0:19.160',-6.01
'0:19.164',-4.86
'0:19.168',-3.79
'0:19.172',-3.07
'0:19.176',-2.57
'0:19.180',-2.11
'0:19.184',-1.69
'0:19.188',-1.51
'0:19.191',-1.35
'0:19.195',-1.05
'0:19.199',-0.69
'0:19.203',-0.3
'0:19.207',0.12
'0:19.211',0.25
'0:19.215',-0.1
'0:19.219',-0.43
'0:19.223',-0.59
'0:19.227',-0.54
'0:19.230',-0.44
'0:19.234',-0.18
'0:19.238',0.25
'0:19.242',0.79
'0:19.246',1.26
'0:19.250',1.67
'0:19.254',2.2
'0:19.258',2.87
'0:19.262',3.52
'0:19.266',3.89
'0:19.270',3.83
'0:19.273',3.76
'0:19.277',3.66
'0:19.281',3.42
'0:19.285',3.09
'0:19.289',2.81
'0:19.293',2.5
'0:19.297',1.95
'0:19.301',1.18
'0:19.305',0.58
'0:19.309',0.44
'0:19.313',0.08
'0:19.316',-1.19
'0:19.320',-2.44
'0:19.324',-2.88
'0:19.328',-2.87
'0:19.332',-2.78
'0:19.336',-2.54
'0:19.340',-2.39
'0:19.344',-2.17
'0:19.348',-1.98
'0:19.352',-1.76
'0:19.355',-1.51
'0:19.359',-1.32
'0:19.363',-1.3
'0:19.367',-1.34
'0:19.371',-1.3
'0:19.375',-0.97
'0:19.379',-0.78
'0:19.383',-0.92
'0:19.387',-1.25
'0:19.391',-1.43
'0:19.395',-1.76
'0:19.398',-2.35
'0:19.402',-2.62
'0:19.406',-3.02
'0:19.410',-3.4
'0:19.414',-3.36
'0:19.418',-3.24
'0:19.422',-3.26
'0:19.426',-3.21
'0:19.430',-2.9
'0:19.434',-2.55
'0:19.438',-2.42
'0:19.441',-2.9
'0:19.445',-3.3
'0:19.449',-3.36
'0:19.453',-2.99
'0:19.457',-2.66
'0:19.461',-2.39
'0:19.465',-2.15
'0:19.469',-1.78
'0:19.473',-1.17
'0:19.477',0.49
'0:19.480',3.3
'0:19.484',6.43
'0:19.488',8.03
'0:19.492',6.17
'0:19.496',1.11
'0:19.500',-4.01
'0:19.504',-6.75
'0:19.508',-7.77
'0:19.512',-7.48
'0:19.516',-6.3
'0:19.520',-4.85
'0:19.523',-3.41
'0:19.527',-2.25
