'0:00.000',1.15
'0:00.004',-1.94
'0:00.008',-3.66
'0:00.012',-4.37
'0:00.016',-4.78
'0:00.020',-4.27
'0:00.023',-3.22
'0:00.027',-2.85
'0:00.031',-2.67
'0:00.035',-2.14
'0:00.039',-1.26
'0:00.043',-0.9
'0:00.047',-0.63
'0:00.051',-0.66
'0:00.055',-0.78
'0:00.059',-0.89
'0:00.063',-0.6
'0:00.066',-0.31
'0:00.070',-0.17
'0:00.074',-0.13
'0:00.078',0.11
'0:00.082',0.5
'0:00.086',0.83
'0:00.090',0.9
'0:00.094',1.05
'0:00.098',1.3
'0:00.102',1.32
'0:00.105',1.35
'0:00.109',1.66
'0:00.113',2.16
'0:00.117',2.56
'0:00.121',2.89
'0:00.125',3.03
'0:00.129',2.9
'0:00.133',2.71
'0:00.137',2.61
'0:00.141',2.54
'0:00.145',2.38
'0:00.148',2.19
'0:00.152',2.02
'0:00.156',1.93
'0:00.160',1.7
'0:00.164',1.35
'0:00.168',1.09
'0:00.172',1.02
'0:00.176',1.09
'0:00.180',1
'0:00.184',0.81
'0:00.188',0.73
'0:00.191',0.63
'0:00.195',0.32
'0:00.199',0
'0:00.203',-0.14
'0:00.207',-0.15
'0:00.211',-0.31
'0:00.215',-0.57
'0:00.219',-0.78
'0:00.223',-1.05
'0:00.227',-1.45
'0:00.230',-1.78
'0:00.234',-1.9
'0:00.238',-2.04
'0:00.242',-2.22
'0:00.246',-2.19
'0:00.250',-2.04
'0:00.254',-2.11
'0:00.258',-2.45
'0:00.262',-2.12
'0:00.266',-1.07
'0:00.270',0.2
'0:00.273',2.15
'0:00.277',4.93
'0:00.281',7.4
'0:00.285',7.49
'0:00.289',4.72
'0:00.293',0.84
'0:00.297',-2.06
'0:00.301',-3.72
'0:00.305',-4.52
'0:00.309',-4.7
'0:00.313',-4.42
'0:00.316',-3.81
'0:00.320',-3.01
'0:00.324',-2.7
'0:00.328',-2.64
'0:00.332',-1.71
'0:00.336',-0.65
'0:00.340',-0.94
'0:00.344',-1.62
'0:00.348',-2.48
'0:00.352',-3.77
'0:00.355',-4.39
'0:00.359',-4.23
'0:00.363',-3.58
'0:00.367',-3.06
'0:00.371',-2.75
'0:00.375',-2.41
'0:00.379',-2
'0:00.383',-1.31
'0:00.387',-0.55
'0:00.391',0.04
'0:00.395',0.64
'0:00.398',1.43
'0:00.402',2.37
'0:00.406',2.78
'0:00.410',2.93
'0:00.414',3.7
'0:00.418',4.15
'0:00.422',3.31
'0:00.426',2.1
'0:00.430',1.36
'0:00.434',1.17
'0:00.438',1.18
'0:00.441',0.84
'0:00.445',0.03
'0:00.449',-0.82
'0:00.453',-1.72
'0:00.457',-2.17
'0:00.461',-2.04
'0:00.465',-1.43
'0:00.469',-0.76
'0:00.473',-0.18
'0:00.477',0.78
'0:00.480',1.59
'0:00.484',1.33
'0:00.488',0.94
'0:00.492',0.82
'0:00.496',0.57
'0:00.500',1
'0:00.504',0.33
'0:00.508',-1.64
'0:00.512',-2.97
'0:00.516',-3.4
'0:00.520',-3.53
'0:00.523',-3.48
'0:00.527',-3.19
'0:00.531',-2.84
'0:00.535',-2.45
'0:00.539',-1.74
'0:00.543',-1.45
'0:00.547',-2.28
'0:00.551',-2.88
'0:00.555',-2.82
'0:00.559',-1.9
'0:00.563',0.4
'0:00.566',3.9
'0:00.570',7.2
'0:00.574',8.31
'0:00.578',6.08
'0:00.582',1.77
'0:00.586',-1.97
'0:00.590',-4.21
'0:00.594',-5
'0:00.598',-4.94
'0:00.602',-4.82
'0:00.605',-4.53
'0:00.609',-4.01
'0:00.613',-3.57
'0:00.617',-2.99
'0:00.621',-0.83
'0:00.625',1.77
'0:00.629',0.86
'0:00.633',-1.88
'0:00.637',-3.33
'0:00.641',-3.78
'0:00.645',-3.75
'0:00.648',-3.3
'0:00.652',-2.59
'0:00.656',-1.91
'0:00.660',-1.45
'0:00.664',-1.03
'0:00.668',-0.28
'0:00.672',0.71
'0:00.676',1.27
'0:00.680',1.3
'0:00.684',2.23
'0:00.688',3.71
'0:00.691',4.66
'0:00.695',4.79
'0:00.699',4.6
'0:00.703',4.17
'0:00.707',3.83
'0:00.711',4.14
'0:00.715',4.23
'0:00.719',3.92
'0:00.723',3.75
'0:00.727',3.33
'0:00.730',2.6
'0:00.734',1.54
'0:00.738',0.45
'0:00.742',-0.17
'0:00.746',-0.21
'0:00.750',-0.22
'0:00.754',-0.23
'0:00.758',0.09
'0:00.762',0.28
'0:00.766',-0.05
'0:00.770',-0.04
'0:00.773',-0.05
'0:00.777',0.45
'0:00.781',1.01
'0:00.785',1.34
'0:00.789',1.6
'0:00.793',1.56
'0:00.797',1.43
'0:00.801',1.28
'0:00.805',0.93
'0:00.809',0.43
'0:00.813',-0.05
'0:00.816',-0.52
'0:00.820',-0.83
'0:00.824',-0.97
'0:00.828',-1.04
'0:00.832',-1.22
'0:00.836',-1.51
'0:00.840',-1.6
'0:00.844',-0.91
'0:00.848',0.28
'0:00.852',1.55
'0:00.855',3.18
'0:00.859',5.46
'0:00.863',7.6
'0:00.867',7.64
'0:00.871',5.05
'0:00.875',1.45
'0:00.879',-1.38
'0:00.883',-2.93
'0:00.887',-3.73
'0:00.891',-3.89
'0:00.895',-3.72
'0:00.898',-3.56
'0:00.902',-3.55
'0:00.906',-3.45
'0:00.910',-3.03
'0:00.914',-2.36
'0:00.918',-2.2
'0:00.922',-2.31
'0:00.926',-2.31
'0:00.930',-2.29
'0:00.934',-2.11
'0:00.938',-1.59
'0:00.941',-0.88
'0:00.945',-0.4
'0:00.949',-0.14
'0:00.953',0.07
'0:00.957',0.12
'0:00.961',0.26
'0:00.965',0.66
'0:00.969',1.18
'0:00.973',1.67
'0:00.977',2.08
'0:00.980',2.47
'0:00.984',2.83
'0:00.988',3.18
'0:00.992',3.43
'0:00.996',3.49
'0:01.000',3.65
'0:01.004',3.63
'0:01.008',3.34
'0:01.012',3.08
'0:01.016',2.77
'0:01.020',2.25
'0:01.023',1.8
'0:01.027',1.46
'0:01.031',1.12
'0:01.035',0.6
'0:01.039',0.14
'0:01.043',-0.08
'0:01.047',0.26
'0:01.051',0.7
'0:01.055',0.78
'0:01.059',0.57
'0:01.063',1.23
'0:01.066',1.97
'0:01.070',1.83
'0:01.074',1.68
'0:01.078',1.56
'0:01.082',1.08
'0:01.086',0.55
'0:01.090',0.1
'0:01.094',-0.04
'0:01.098',-0.93
'0:01.102',-1.17
'0:01.105',-1.46
'0:01.109',-1.9
'0:01.113',-2.38
'0:01.117',-2.32
'0:01.121',-0.86
'0:01.125',-0.94
'0:01.129',-1.8
'0:01.133',-1.82
'0:01.137',-1.48
'0:01.141',-0.17
'0:01.145',1.19
'0:01.148',2.24
'0:01.152',3.23
'0:01.156',3.67
'0:01.160',2.01
'0:01.164',-1.7
'0:01.168',-4.59
'0:01.172',-6.18
'0:01.176',-6.51
'0:01.180',-6.05
'0:01.184',-5.47
'0:01.188',-4.88
'0:01.191',-4.4
'0:01.195',-4.12
'0:01.199',-3.77
'0:01.203',-3.48
'0:01.207',-3.2
'0:01.211',-2.9
'0:01.215',-2.68
'0:01.219',-2.17
'0:01.223',-1.12
'0:01.227',-0.23
'0:01.230',0.15
'0:01.234',0.49
'0:01.238',0.51
'0:01.242',-0.45
'0:01.246',-1.9
'0:01.250',-2.75
'0:01.254',-3.05
'0:01.258',-3.58
'0:01.262',-2.06
'0:01.266',-0.21
'0:01.270',0.88
'0:01.273',1.69
'0:01.277',2.01
'0:01.281',2
'0:01.285',2.46
'0:01.289',2.67
'0:01.293',2.32
'0:01.297',2.54
'0:01.301',2.75
'0:01.305',2.33
'0:01.309',2.01
'0:01.313',2.45
'0:01.316',3.37
'0:01.320',3.45
'0:01.324',2.12
'0:01.328',0.96
'0:01.332',-0.52
'0:01.336',-1.91
'0:01.340',-1.68
'0:01.344',-0.56
'0:01.348',0.66
'0:01.352',1.14
'0:01.355',0.67
'0:01.359',0.07
'0:01.363',-0.03
'0:01.367',0.32
'0:01.371',0.86
'0:01.375',1.3
'0:01.379',1.19
'0:01.383',0.38
'0:01.387',-0.4
'0:01.391',-0.97
'0:01.395',-1.25
'0:01.398',-1.34
'0:01.402',-1.32
'0:01.406',-1.16
'0:01.410',-0.89
'0:01.414',-0.93
'0:01.418',-1.37
'0:01.422',-1.84
'0:01.426',-1.99
'0:01.430',-1.46
'0:01.434',-0.17
'0:01.438',1.82
'0:01.441',4.02
'0:01.445',6.17
'0:01.449',6.67
'0:01.453',4.61
'0:01.457',1.01
'0:01.461',-2.17
'0:01.465',-4.3
'0:01.469',-5.22
'0:01.473',-5.3
'0:01.477',-4.86
'0:01.480',-4.33
'0:01.484',-3.69
'0:01.488',-2.66
'0:01.492',-2.01
'0:01.496',-1.84
'0:01.500',-1.9
'0:01.504',-1.88
'0:01.508',-1.72
'0:01.512',-1.25
'0:01.516',-0.95
'0:01.520',-1.4
'0:01.523',-2.08
'0:01.527',-1.97
'0:01.531',-1.42
'0:01.535',-0.79
'0:01.539',-0.33
'0:01.543',0.04
'0:01.547',0.37
'0:01.551',0.98
'0:01.555',2.24
'0:01.559',2.36
'0:01.563',1.55
'0:01.566',1.22
'0:01.570',1.65
'0:01.574',2.19
'0:01.578',1.94
'0:01.582',1.91
'0:01.586',2.32
'0:01.590',2.64
'0:01.594',2.48
'0:01.598',2.04
'0:01.602',1.75
'0:01.605',1.78
'0:01.609',1.58
'0:01.613',1.04
'0:01.617',0.4
'0:01.621',-0.01
'0:01.625',-0.24
'0:01.629',-0.31
'0:01.633',-0.19
'0:01.637',0.02
'0:01.641',0.04
'0:01.645',0.32
'0:01.648',0.49
'0:01.652',0.49
'0:01.656',0.46
'0:01.660',0.59
'0:01.664',0.34
'0:01.668',0.18
'0:01.672',0.39
'0:01.676',0.09
'0:01.680',-0.77
'0:01.684',-1.59
'0:01.688',-1.95
'0:01.691',-2.02
'0:01.695',-2.2
'0:01.699',-2.34
'0:01.703',-2.42
'0:01.707',-2.52
'0:01.711',-2.58
'0:01.715',-2.51
'0:01.719',-1.93
'0:01.723',-0.34
'0:01.727',2.5
'0:01.730',5.79
'0:01.734',8.36
'0:01.738',8.71
'0:01.742',5.77
'0:01.746',0.85
'0:01.750',-3.1
'0:01.754',-5.24
'0:01.758',-5.99
'0:01.762',-5.88
'0:01.766',-5.32
'0:01.770',-4.69
'0:01.773',-4.14
'0:01.777',-3.78
'0:01.781',-3.39
'0:01.785',-2.73
'0:01.789',-1.92
'0:01.793',-1.46
'0:01.797',-1.24
'0:01.801',-1.02
'0:01.805',-1.27
'0:01.809',-1.48
'0:01.813',-1.16
'0:01.816',-0.37
'0:01.820',0.28
'0:01.824',0.51
'0:01.828',0.64
'0:01.832',1
'0:01.836',1.3
'0:01.840',1.59
'0:01.844',1.96
'0:01.848',2.47
'0:01.852',3.09
'0:01.855',3.54
'0:01.859',3.85
'0:01.863',4.17
'0:01.867',4.39
'0:01.871',4.26
'0:01.875',4.01
'0:01.879',3.73
'0:01.883',3.58
'0:01.887',3.21
'0:01.891',2.77
'0:01.895',2.16
'0:01.898',1.6
'0:01.902',1.09
'0:01.906',0.63
'0:01.910',0.38
'0:01.914',0.2
'0:01.918',0.23
'0:01.922',0.85
'0:01.926',1.51
'0:01.930',1.85
'0:01.934',2.89
'0:01.938',3.37
'0:01.941',3.69
'0:01.945',3.47
'0:01.949',1.49
'0:01.953',-0.94
'0:01.957',-2.44
'0:01.961',-2.88
'0:01.965',-2.71
'0:01.969',-2.21
'0:01.973',-1.84
'0:01.977',-1.71
'0:01.980',-1.55
'0:01.984',-1.1
'0:01.988',0.15
'0:01.992',1.07
'0:01.996',0.68
'0:02.000',-0.87
'0:02.004',-2.53
'0:02.008',-2.96
'0:02.012',-2.13
'0:02.016',-0.44
'0:02.020',1.02
'0:02.023',2.44
'0:02.027',4.02
'0:02.031',4.43
'0:02.035',2.55
'0:02.039',-0.64
'0:02.043',-2.86
'0:02.047',-3.74
'0:02.051',-3.88
'0:02.055',-3.94
'0:02.059',-4.07
'0:02.063',-4.38
'0:02.066',-4.39
'0:02.070',-3.52
'0:02.074',-2.74
'0:02.078',-1.91
'0:02.082',0.18
'0:02.086',2.2
'0:02.090',1.52
'0:02.094',-1.82
'0:02.098',-4.43
'0:02.102',-5.13
'0:02.105',-4.88
'0:02.109',-4.14
'0:02.113',-3.15
'0:02.117',-2.17
'0:02.121',-1.24
'0:02.125',-0.64
'0:02.129',-0.25
'0:02.133',0.6
'0:02.137',1.52
'0:02.141',2.19
'0:02.145',2.51
'0:02.148',2.61
'0:02.152',2.94
'0:02.156',3.52
'0:02.160',4
'0:02.164',3.9
'0:02.168',3.42
'0:02.172',3.45
'0:02.176',3.76
'0:02.180',3.95
'0:02.184',3.67
'0:02.188',3.03
'0:02.191',2.89
'0:02.195',3.45
'0:02.199',4.02
'0:02.203',3.93
'0:02.207',2.62
'0:02.211',1.1
'0:02.215',0.97
'0:02.219',1.51
'0:02.223',1.66
'0:02.227',1.28
'0:02.230',0.6
'0:02.234',0.05
'0:02.238',-0.79
'0:02.242',-1.34
'0:02.246',-1.55
'0:02.250',-1.76
'0:02.254',-1.16
'0:02.258',-0.58
'0:02.262',-0.19
'0:02.266',-0.38
'0:02.270',-1.27
'0:02.273',-2.15
'0:02.277',-2.06
'0:02.281',-1.89
'0:02.285',-2.49
'0:02.289',-2.67
'0:02.293',-2.25
'0:02.297',-1.63
'0:02.301',-1.12
'0:02.305',0.41
'0:02.309',2.91
'0:02.313',5.31
'0:02.316',5.78
'0:02.320',3.94
'0:02.324',0.78
'0:02.328',-2.49
'0:02.332',-4.64
'0:02.336',-5.09
'0:02.340',-5.14
'0:02.344',-4.61
'0:02.348',-3.84
'0:02.352',-3.23
'0:02.355',-2.85
'0:02.359',-2.51
'0:02.363',-2.22
'0:02.367',-2.09
'0:02.371',-1.51
'0:02.375',-1.09
'0:02.379',-1.1
'0:02.383',-0.81
'0:02.387',-0.03
'0:02.391',0.17
'0:02.395',-0.08
'0:02.398',-0.18
'0:02.402',-0.24
'0:02.406',-0.04
'0:02.410',0.5
'0:02.414',1.29
'0:02.418',1.78
'0:02.422',1.89
'0:02.426',2.04
'0:02.430',2.1
'0:02.434',2.12
'0:02.438',2.23
'0:02.441',2.55
'0:02.445',2.91
'0:02.449',3.18
'0:02.453',3.34
'0:02.457',3.36
'0:02.461',2.99
'0:02.465',2.52
'0:02.469',2.11
'0:02.473',1.62
'0:02.477',0.97
'0:02.480',0.39
'0:02.484',0.21
'0:02.488',0.35
'0:02.492',0.41
'0:02.496',0.18
'0:02.500',-0.25
'0:02.504',-0.38
'0:02.508',-0.05
'0:02.512',0.45
'0:02.516',0.51
'0:02.520',0.25
'0:02.523',0.07
'0:02.527',0.03
'0:02.531',-0.1
'0:02.535',-0.35
'0:02.539',-0.57
'0:02.543',-0.67
'0:02.547',-0.91
'0:02.551',-1.23
'0:02.555',-1.65
'0:02.559',-2.03
'0:02.563',-2.27
'0:02.566',-2.34
'0:02.570',-2.37
'0:02.574',-2.62
'0:02.578',-2.99
'0:02.582',-3.11
'0:02.586',-2.48
'0:02.590',-1.31
'0:02.594',0.29
'0:02.598',2.67
'0:02.602',5.42
'0:02.605',7.15
'0:02.609',6.23
'0:02.613',3.02
'0:02.617',-0.68
'0:02.621',-3.33
'0:02.625',-4.65
'0:02.629',-4.97
'0:02.633',-4.72
'0:02.637',-4.27
'0:02.641',-3.6
'0:02.645',-3.17
'0:02.648',-2.89
'0:02.652',-2.56
'0:02.656',-2.28
'0:02.660',-2.02
'0:02.664',-1.7
'0:02.668',-1.61
'0:02.672',-1.55
'0:02.676',-1.36
'0:02.680',-1.12
'0:02.684',-0.82
'0:02.688',-0.51
'0:02.691',-0.33
'0:02.695',-0.2
'0:02.699',0.03
'0:02.703',0.11
'0:02.707',0.6
'0:02.711',1.43
'0:02.715',1.75
'0:02.719',2.21
'0:02.723',2.81
'0:02.727',3.07
'0:02.730',3.19
'0:02.734',3.14
'0:02.738',2.94
'0:02.742',2.98
'0:02.746',3.14
'0:02.750',3.01
'0:02.754',2.51
'0:02.758',1.63
'0:02.762',0.92
'0:02.766',0.49
'0:02.770',0.12
'0:02.773',0
'0:02.777',-0.15
'0:02.781',-0.44
'0:02.785',-0.98
'0:02.789',-1.11
'0:02.793',-0.31
'0:02.797',0.51
'0:02.801',0.18
'0:02.805',-0.57
'0:02.809',-0.95
'0:02.813',-0.81
'0:02.816',-0.4
'0:02.820',0.21
'0:02.824',0.52
'0:02.828',-0.36
'0:02.832',-1.66
'0:02.836',-2.12
'0:02.840',-2.1
'0:02.844',-1.99
'0:02.848',-1.23
'0:02.852',-0.55
'0:02.855',-0.69
'0:02.859',-2.06
'0:02.863',-3.47
'0:02.867',-3.79
'0:02.871',-3.33
'0:02.875',-2.78
'0:02.879',-2.43
'0:02.883',-1.65
'0:02.887',0.25
'0:02.891',3.35
'0:02.895',6.36
'0:02.898',7.06
'0:02.902',4.6
'0:02.906',1
'0:02.910',-1.07
'0:02.914',-2.57
'0:02.918',-4.34
'0:02.922',-5.23
'0:02.926',-5.73
'0:02.930',-6.09
'0:02.934',-5.91
'0:02.938',-5.29
'0:02.941',-4.49
'0:02.945',-3.76
'0:02.949',-3.1
'0:02.953',-2.73
'0:02.957',-2.4
'0:02.961',-1.91
'0:02.965',-1.36
'0:02.969',-1.02
'0:02.973',-0.92
'0:02.977',-0.82
'0:02.980',-0.65
'0:02.984',-0.29
'0:02.988',0.22
'0:02.992',0.56
'0:02.996',0.47
'0:03.000',0.35
'0:03.004',0.65
'0:03.008',1.29
'0:03.012',2.06
'0:03.016',2.7
'0:03.020',3.46
'0:03.023',4.25
'0:03.027',4.5
'0:03.031',4.12
'0:03.035',3.38
'0:03.039',3
'0:03.043',2.66
'0:03.047',2.04
'0:03.051',1.8
'0:03.055',1.79
'0:03.059',2.07
'0:03.063',2.36
'0:03.066',1.58
'0:03.070',0.52
'0:03.074',-0.13
'0:03.078',-0.13
'0:03.082',0.21
'0:03.086',0.45
'0:03.090',0.46
'0:03.094',0.65
'0:03.098',1.24
'0:03.102',2.06
'0:03.105',2.73
'0:03.109',2.13
'0:03.113',1.33
'0:03.117',1.01
'0:03.121',0.74
'0:03.125',0.49
'0:03.129',0.4
'0:03.133',0.27
'0:03.137',-0.12
'0:03.141',-0.54
'0:03.145',-1.05
'0:03.148',-1.63
'0:03.152',-2.25
'0:03.156',-2.69
'0:03.160',-2.85
'0:03.164',-2.57
'0:03.168',-1.76
'0:03.172',-0.63
'0:03.176',0.77
'0:03.180',2.78
'0:03.184',5.32
'0:03.188',7.3
'0:03.191',6.7
'0:03.195',3.63
'0:03.199',0.09
'0:03.203',-2.39
'0:03.207',-3.66
'0:03.211',-4.19
'0:03.215',-4.35
'0:03.219',-3.91
'0:03.223',-3.31
'0:03.227',-2.86
'0:03.230',-2.58
'0:03.234',-2.38
'0:03.238',-2.17
'0:03.242',-1.95
'0:03.246',-1.57
'0:03.250',-0.94
'0:03.254',-0.67
'0:03.258',-1
'0:03.262',-1.39
'0:03.266',-1.36
'0:03.270',-1.05
'0:03.273',-0.69
'0:03.277',-0.31
'0:03.281',0.03
'0:03.285',0.02
'0:03.289',-0.06
'0:03.293',0.41
'0:03.297',0.98
'0:03.301',1.45
'0:03.305',2.01
'0:03.309',2.41
'0:03.313',2.54
'0:03.316',2.46
'0:03.320',2.57
'0:03.324',2.76
'0:03.328',2.95
'0:03.332',3.13
'0:03.336',3.27
'0:03.340',3.07
'0:03.344',2.62
'0:03.348',2.06
'0:03.352',1.53
'0:03.355',1.12
'0:03.359',0.79
'0:03.363',0.59
'0:03.367',0.59
'0:03.371',0.66
'0:03.375',0.76
'0:03.379',0.83
'0:03.383',0.99
'0:03.387',1.32
'0:03.391',1.34
'0:03.395',1.23
'0:03.398',1.12
'0:03.402',0.86
'0:03.406',0.56
'0:03.410',0.41
'0:03.414',0.26
'0:03.418',-0.05
'0:03.422',-0.37
'0:03.426',-0.76
'0:03.430',-1.1
'0:03.434',-1.35
'0:03.438',-1.63
'0:03.441',-1.88
'0:03.445',-2.07
'0:03.449',-2.19
'0:03.453',-2.26
'0:03.457',-2.35
'0:03.461',-2.19
'0:03.465',-0.75
'0:03.469',1.6
'0:03.473',4.19
'0:03.477',6.02
'0:03.480',5.99
'0:03.484',3.66
'0:03.488',0.13
'0:03.492',-2.6
'0:03.496',-4.38
'0:03.500',-4.94
'0:03.504',-4.25
'0:03.508',-3.13
'0:03.512',-2.73
'0:03.516',-3.36
'0:03.520',-3.02
'0:03.523',-1.41
'0:03.527',-0.29
'0:03.531',-0.78
'0:03.535',-2.44
'0:03.539',-3.66
'0:03.543',-4.05
'0:03.547',-3.7
'0:03.551',-3.17
'0:03.555',-2.15
'0:03.559',-1.7
'0:03.563',-1.03
'0:03.566',-0.33
'0:03.570',-0.65
'0:03.574',-2.09
'0:03.578',-2.1
'0:03.582',-1.35
'0:03.586',-0.84
'0:03.590',-0.69
'0:03.594',-0.57
'0:03.598',-0.05
'0:03.602',1.15
'0:03.605',2.35
'0:03.609',2.61
'0:03.613',2.29
'0:03.617',2.11
'0:03.621',2.1
'0:03.625',2.67
'0:03.629',3.76
'0:03.633',4.45
'0:03.637',3.43
'0:03.641',2.03
'0:03.645',0.87
'0:03.648',-0.18
'0:03.652',-0.61
'0:03.656',-0.76
'0:03.660',0.12
'0:03.664',0.89
'0:03.668',0.43
'0:03.672',-0.74
'0:03.676',-1.84
'0:03.680',-1.91
'0:03.684',-1.62
'0:03.688',-1.39
'0:03.691',-1.09
'0:03.695',-0.64
'0:03.699',-0.34
'0:03.703',-0.82
'0:03.707',-1.39
'0:03.711',-1.56
'0:03.715',-1.6
'0:03.719',-1.72
'0:03.723',-2.49
'0:03.727',-3.78
'0:03.730',-4.53
'0:03.734',-4.45
'0:03.738',-3.98
'0:03.742',-3.37
'0:03.746',-2.65
'0:03.750',-1.63
'0:03.754',-0.38
'0:03.758',1.14
'0:03.762',3.12
'0:03.766',5.12
'0:03.770',6.7
'0:03.773',6.59
'0:03.777',4.36
'0:03.781',1.21
'0:03.785',-1.13
'0:03.789',-2.33
'0:03.793',-2.65
'0:03.797',-2.22
'0:03.801',-1.55
'0:03.805',-1.19
'0:03.809',-1.01
'0:03.813',-0.9
'0:03.816',-0.92
'0:03.820',-0.99
'0:03.824',-0.92
'0:03.828',-0.56
'0:03.832',-0.1
'0:03.836',0.35
'0:03.840',0.15
'0:03.844',-0.99
'0:03.848',-1.79
'0:03.852',-1.63
'0:03.855',-1.16
'0:03.859',-0.87
'0:03.863',-0.57
'0:03.867',-0.56
'0:03.871',0.13
'0:03.875',0.65
'0:03.879',1.16
'0:03.883',1.71
'0:03.887',2.2
'0:03.891',2.34
'0:03.895',2.6
'0:03.898',3.46
'0:03.902',4.15
'0:03.906',4.32
'0:03.910',4.51
'0:03.914',4.66
'0:03.918',4.72
'0:03.922',4.3
'0:03.926',3.16
'0:03.930',1.73
'0:03.934',0.88
'0:03.938',0.79
'0:03.941',0.68
'0:03.945',0.29
'0:03.949',-0.15
'0:03.953',-0.31
'0:03.957',0.06
'0:03.961',0.85
'0:03.965',1.26
'0:03.969',0.65
'0:03.973',0.15
'0:03.977',0.05
'0:03.980',-0.08
'0:03.984',-0.4
'0:03.988',-0.38
'0:03.992',0.01
'0:03.996',0.2
'0:04.000',-0.33
'0:04.004',-1.2
'0:04.008',-1.73
'0:04.012',-1.83
'0:04.016',-1.67
'0:04.020',-1.61
'0:04.023',-1.82
'0:04.027',-1.93
'0:04.031',-1.95
'0:04.035',-2.35
'0:04.039',-2.82
'0:04.043',-2.69
'0:04.047',-1.72
'0:04.051',0.21
'0:04.055',2.95
'0:04.059',5.77
'0:04.063',7.13
'0:04.066',5.96
'0:04.070',2.5
'0:04.074',-1.3
'0:04.078',-3.94
'0:04.082',-5.49
'0:04.086',-6.14
'0:04.090',-5.88
'0:04.094',-5.25
'0:04.098',-4.64
'0:04.102',-4.11
'0:04.105',-3.7
'0:04.109',-3.23
'0:04.113',-2.77
'0:04.117',-2.55
'0:04.121',-2.45
'0:04.125',-2.2
'0:04.129',-1.9
'0:04.133',-1.65
'0:04.137',-1.44
'0:04.141',-1.03
'0:04.145',-0.54
'0:04.148',-0.06
'0:04.152',0.25
'0:04.156',0.54
'0:04.160',0.53
'0:04.164',0.33
'0:04.168',0.49
'0:04.172',0.95
'0:04.176',1.56
'0:04.180',2.21
'0:04.184',2.97
'0:04.188',3.56
'0:04.191',3.87
'0:04.195',3.9
'0:04.199',3.89
'0:04.203',3.7
'0:04.207',3.13
'0:04.211',2.49
'0:04.215',2.04
'0:04.219',1.52
'0:04.223',0.97
'0:04.227',0.65
'0:04.230',0.34
'0:04.234',-0.18
'0:04.238',-0.41
'0:04.242',-0.25
'0:04.246',-0.26
'0:04.250',-0.23
'0:04.254',0.18
'0:04.258',0.67
'0:04.262',0.83
'0:04.266',0.83
'0:04.270',1.22
'0:04.273',1.56
'0:04.277',1.32
'0:04.281',0.71
'0:04.285',0.25
'0:04.289',0.07
'0:04.293',-0.08
'0:04.297',-0.39
'0:04.301',-0.68
'0:04.305',-1.19
'0:04.309',-1.19
'0:04.313',-1.07
'0:04.316',-1.46
'0:04.320',-1.72
'0:04.324',-1.55
'0:04.328',-1.45
'0:04.332',-1.01
'0:04.336',-0.81
'0:04.340',-0.66
'0:04.344',0.64
'0:04.348',3.13
'0:04.352',6.06
'0:04.355',7.34
'0:04.359',5.47
'0:04.363',1.38
'0:04.367',-2.14
'0:04.371',-4.57
'0:04.375',-5.93
'0:04.379',-5.8
'0:04.383',-4.93
'0:04.387',-4.36
'0:04.391',-3.93
'0:04.395',-2.79
'0:04.398',-1.37
'0:04.402',-1.56
'0:04.406',-3.2
'0:04.410',-4.12
'0:04.414',-4.26
'0:04.418',-4
'0:04.422',-3.24
'0:04.426',-2.73
'0:04.430',-2.36
'0:04.434',-2.17
'0:04.438',-2.06
'0:04.441',-1.79
'0:04.445',-1.42
'0:04.449',-0.82
'0:04.453',-0.4
'0:04.457',-0.18
'0:04.461',0.46
'0:04.465',1.54
'0:04.469',2.48
'0:04.473',3.22
'0:04.477',4.57
'0:04.480',5.52
'0:04.484',4.82
'0:04.488',3.28
'0:04.492',2.04
'0:04.496',1.36
'0:04.500',0.78
'0:04.504',0.22
'0:04.508',0.06
'0:04.512',0.5
'0:04.516',0.99
'0:04.520',1.12
'0:04.523',1.13
'0:04.527',1.39
'0:04.531',1.19
'0:04.535',0.8
'0:04.539',0.36
'0:04.543',0.24
'0:04.547',0.68
'0:04.551',1.56
'0:04.555',2.45
'0:04.559',2.94
'0:04.563',3.33
'0:04.566',3.35
'0:04.570',2.09
'0:04.574',0.56
'0:04.578',-0.2
'0:04.582',-0.42
'0:04.586',-0.76
'0:04.590',-0.93
'0:04.594',-1.16
'0:04.598',-1.58
'0:04.602',-1.57
'0:04.605',-1.73
'0:04.609',-1.31
'0:04.613',0.54
'0:04.617',2.3
'0:04.621',1.71
'0:04.625',0.59
'0:04.629',-0.12
'0:04.633',-0.37
'0:04.637',0.99
'0:04.641',3.39
'0:04.645',5.32
'0:04.648',5.08
'0:04.652',1.88
'0:04.656',-2.24
'0:04.660',-4.27
'0:04.664',-4.53
'0:04.668',-4.7
'0:04.672',-4.8
'0:04.676',-4.43
'0:04.680',-3.61
'0:04.684',-3.53
'0:04.688',-3.66
'0:04.691',-3.14
'0:04.695',-2.28
'0:04.699',-1.89
'0:04.703',-1.61
'0:04.707',-1.36
'0:04.711',-0.91
'0:04.715',-0.72
'0:04.719',-0.63
'0:04.723',-0.2
'0:04.727',0.42
'0:04.730',-0.09
'0:04.734',-0.08
'0:04.738',0.83
'0:04.742',1.41
'0:04.746',1.49
'0:04.750',1.24
'0:04.754',1.32
'0:04.758',1.66
'0:04.762',1.56
'0:04.766',1.72
'0:04.770',2.88
'0:04.773',3.66
'0:04.777',3.71
'0:04.781',3.56
'0:04.785',3.18
'0:04.789',3
'0:04.793',3.19
'0:04.797',3.31
'0:04.801',3.14
'0:04.805',2.56
'0:04.809',1.84
'0:04.813',1.18
'0:04.816',0.98
'0:04.820',1.03
'0:04.824',0.94
'0:04.828',0.78
'0:04.832',0.59
'0:04.836',0.6
'0:04.840',0.86
'0:04.844',0.98
'0:04.848',0.99
'0:04.852',1.27
'0:04.855',1.56
'0:04.859',1.24
'0:04.863',0.39
'0:04.867',-0.32
'0:04.871',-0.69
'0:04.875',-0.63
'0:04.879',-0.42
'0:04.883',-0.56
'0:04.887',-1.49
'0:04.891',-2.4
'0:04.895',-2.98
'0:04.898',-3.2
'0:04.902',-3.04
'0:04.906',-2.85
'0:04.910',-2.93
'0:04.914',-2.87
'0:04.918',-2.39
'0:04.922',-1.61
'0:04.926',-0.36
'0:04.930',2.01
'0:04.934',4.97
'0:04.938',6.7
'0:04.941',5.63
'0:04.945',2.33
'0:04.949',-1.1
'0:04.953',-3.42
'0:04.957',-4.45
'0:04.961',-4.62
'0:04.965',-4.32
'0:04.969',-4
'0:04.973',-3.72
'0:04.977',-3.37
'0:04.980',-3.07
'0:04.984',-2.77
'0:04.988',-2.51
'0:04.992',-2.61
'0:04.996',-2.78
'0:05.000',-2.49
'0:05.004',-1.79
'0:05.008',-1.14
'0:05.012',-0.78
'0:05.016',-0.78
'0:05.020',-0.91
'0:05.023',-0.69
'0:05.027',-0.22
'0:05.031',0.23
'0:05.035',0.68
'0:05.039',1.2
'0:05.043',1.7
'0:05.047',2.09
'0:05.051',2.36
'0:05.055',2.71
'0:05.059',3.14
'0:05.063',3.65
'0:05.066',4.05
'0:05.070',4.22
'0:05.074',4.26
'0:05.078',4.16
'0:05.082',3.96
'0:05.086',3.75
'0:05.090',3.31
'0:05.094',2.49
'0:05.098',1.82
'0:05.102',1.21
'0:05.105',0.62
'0:05.109',0.11
'0:05.113',-0.12
'0:05.117',-0.14
'0:05.121',-0.29
'0:05.125',-0.25
'0:05.129',0.11
'0:05.133',0.47
'0:05.137',0.67
'0:05.141',0.4
'0:05.145',0.13
'0:05.148',0.13
'0:05.152',0.32
'0:05.156',1.13
'0:05.160',1.59
'0:05.164',0.72
'0:05.168',-0.72
'0:05.172',-1.41
'0:05.176',-1.72
'0:05.180',-2.06
'0:05.184',-2.63
'0:05.188',-3.31
'0:05.191',-3.9
'0:05.195',-4.4
'0:05.199',-4.57
'0:05.203',-4.44
'0:05.207',-3.83
'0:05.211',-2.67
'0:05.215',-0.78
'0:05.219',1.93
'0:05.223',5.47
'0:05.227',8.36
'0:05.230',7.72
'0:05.234',4.78
'0:05.238',1.66
'0:05.242',-2.04
'0:05.246',-6.06
'0:05.250',-8.21
'0:05.254',-8.4
'0:05.258',-7.77
'0:05.262',-7.01
'0:05.266',-6.11
'0:05.270',-5.08
'0:05.273',-4.18
'0:05.277',-3.08
'0:05.281',-1.82
'0:05.285',-0.28
'0:05.289',0.46
'0:05.293',-0.21
'0:05.297',-1.82
'0:05.301',-2.89
'0:05.305',-3.04
'0:05.309',-2.81
'0:05.313',-2.8
'0:05.316',-2.61
'0:05.320',-2.1
'0:05.324',-1.31
'0:05.328',-0.35
'0:05.332',0.75
'0:05.336',1.7
'0:05.340',2.23
'0:05.344',2.65
'0:05.348',3.07
'0:05.352',3.5
'0:05.355',3.9
'0:05.359',3.99
'0:05.363',3.64
'0:05.367',3.12
'0:05.371',2.75
'0:05.375',2.67
'0:05.379',2.79
'0:05.383',2.73
'0:05.387',2.43
'0:05.391',1.93
'0:05.395',1.68
'0:05.398',2.27
'0:05.402',1.87
'0:05.406',0.34
'0:05.410',-0.11
'0:05.414',-0.86
'0:05.418',-1.75
'0:05.422',-2.24
'0:05.426',-2.36
'0:05.430',-2.17
'0:05.434',-1.2
'0:05.438',-0.06
'0:05.441',0.96
'0:05.445',1.68
'0:05.449',1.35
'0:05.453',0.46
'0:05.457',-0.64
'0:05.461',-0.94
'0:05.465',-0.56
'0:05.469',-0.6
'0:05.473',-0.8
'0:05.477',-0.61
'0:05.480',-0.57
'0:05.484',-1.43
'0:05.488',-1.74
'0:05.492',-1.09
'0:05.496',-0.48
'0:05.500',-0.75
'0:05.504',-0.88
'0:05.508',0.03
'0:05.512',1.64
'0:05.516',4.15
'0:05.520',6.55
'0:05.523',6.53
'0:05.527',4.43
'0:05.531',0.94
'0:05.535',-2.67
'0:05.539',-4.73
'0:05.543',-5.2
'0:05.547',-4.44
'0:05.551',-3.17
'0:05.555',-2.58
'0:05.559',-2.67
'0:05.563',-2.75
'0:05.566',-2.74
'0:05.570',-2.64
'0:05.574',-2.55
'0:05.578',-2.33
'0:05.582',-2.1
'0:05.586',-1.76
'0:05.590',-1.28
'0:05.594',-1.1
'0:05.598',-0.83
'0:05.602',-0.48
'0:05.605',-0.28
'0:05.609',-0.04
'0:05.613',0.21
'0:05.617',0.53
'0:05.621',0.87
'0:05.625',1.27
'0:05.629',1.82
'0:05.633',2.13
'0:05.637',2.3
'0:05.641',2.8
'0:05.645',3.7
'0:05.648',4.62
'0:05.652',4.83
'0:05.656',4
'0:05.660',3.12
'0:05.664',2.79
'0:05.668',2.62
'0:05.672',2.17
'0:05.676',1.62
'0:05.680',1.18
'0:05.684',0.87
'0:05.688',0.76
'0:05.691',0.72
'0:05.695',0.38
'0:05.699',0.04
'0:05.703',0.21
'0:05.707',0.54
'0:05.711',0.87
'0:05.715',1.38
'0:05.719',1.63
'0:05.723',1.28
'0:05.727',0.99
'0:05.730',1.08
'0:05.734',0.9
'0:05.738',0.03
'0:05.742',-0.68
'0:05.746',-1.07
'0:05.750',-1.56
'0:05.754',-2.13
'0:05.758',-2.42
'0:05.762',-2.26
'0:05.766',-2.19
'0:05.770',-2.24
'0:05.773',-2.12
'0:05.777',-2.14
'0:05.781',-2.28
'0:05.785',-2.63
'0:05.789',-2.27
'0:05.793',-1.12
'0:05.797',0.28
'0:05.801',2.33
'0:05.805',4.57
'0:05.809',5.67
'0:05.813',4.59
'0:05.816',1.24
'0:05.820',-2.28
'0:05.824',-3.62
'0:05.828',-3.63
'0:05.832',-3.13
'0:05.836',-2.97
'0:05.840',-3.14
'0:05.844',-3.83
'0:05.848',-3.54
'0:05.852',-2.48
'0:05.855',-1.35
'0:05.859',-0.79
'0:05.863',-1.06
'0:05.867',-1.48
'0:05.871',-1.39
'0:05.875',-1.06
'0:05.879',-0.92
'0:05.883',-0.66
'0:05.887',-0.52
'0:05.891',-0.77
'0:05.895',-0.31
'0:05.898',0.27
'0:05.902',0.86
'0:05.906',1.57
'0:05.910',1.95
'0:05.914',1.56
'0:05.918',1.25
'0:05.922',1.3
'0:05.926',1.63
'0:05.930',2.15
'0:05.934',2.62
'0:05.938',2.99
'0:05.941',3.28
'0:05.945',3.28
'0:05.949',2.92
'0:05.953',2.28
'0:05.957',2.16
'0:05.961',2.29
'0:05.965',2.31
'0:05.969',2.25
'0:05.973',2.02
'0:05.977',1.81
'0:05.980',1.71
'0:05.984',1.45
'0:05.988',1.8
'0:05.992',2.98
'0:05.996',2.99
'0:06.000',1.09
'0:06.004',-0.3
'0:06.008',0.31
'0:06.012',0.98
'0:06.016',-0.11
'0:06.020',-1.31
'0:06.023',-1.48
'0:06.027',-1.23
'0:06.031',-1.02
'0:06.035',-0.79
'0:06.039',-0.81
'0:06.043',-0.99
'0:06.047',-0.92
'0:06.051',-0.48
'0:06.055',0.14
'0:06.059',0.24
'0:06.063',-0.86
'0:06.066',-2.59
'0:06.070',-3.58
'0:06.074',-3.32
'0:06.078',-1.19
'0:06.082',-0.06
'0:06.086',-0.74
'0:06.090',-0.27
'0:06.094',1.55
'0:06.098',3.67
'0:06.102',5.3
'0:06.105',4.16
'0:06.109',0.43
'0:06.113',-3.23
'0:06.117',-5.66
'0:06.121',-6.68
'0:06.125',-6.31
'0:06.129',-5.24
'0:06.133',-4.66
'0:06.137',-4.39
'0:06.141',-4.1
'0:06.145',-3.61
'0:06.148',-3.17
'0:06.152',-2.04
'0:06.156',-0.71
'0:06.160',-0.18
'0:06.164',-0.42
'0:06.168',-1.99
'0:06.172',-3.84
'0:06.176',-4.49
'0:06.180',-4.16
'0:06.184',-3.21
'0:06.188',-2.4
'0:06.191',-2.22
'0:06.195',-2
'0:06.199',-0.8
'0:06.203',1.02
'0:06.207',3.29
'0:06.211',3.14
'0:06.215',1.22
'0:06.219',0.71
'0:06.223',0.7
'0:06.227',1.13
'0:06.230',2.11
'0:06.234',2.78
'0:06.238',3.08
'0:06.242',3.9
'0:06.246',3.66
'0:06.250',2.7
'0:06.254',2.13
'0:06.258',1.76
'0:06.262',1.55
'0:06.266',1.11
'0:06.270',0.21
'0:06.273',-0.54
'0:06.277',-0.59
'0:06.281',-0.35
'0:06.285',0.04
'0:06.289',0.41
'0:06.293',-0.14
'0:06.297',-0.68
'0:06.301',-0.31
'0:06.305',0.13
'0:06.309',-0.16
'0:06.313',-0.35
'0:06.316',0.12
'0:06.320',0.45
'0:06.324',0.62
'0:06.328',1.05
'0:06.332',2.19
'0:06.336',1.81
'0:06.340',-0.83
'0:06.344',-2.91
'0:06.348',-3.67
'0:06.352',-3.7
'0:06.355',-3.1
'0:06.359',-2.1
'0:06.363',-1.74
'0:06.367',-2.31
'0:06.371',-2.64
'0:06.375',-2
'0:06.379',-0.59
'0:06.383',1.92
'0:06.387',4.91
'0:06.391',7.44
'0:06.395',7.78
'0:06.398',4.77
'0:06.402',0.27
'0:06.406',-3.02
'0:06.410',-4.89
'0:06.414',-5.63
'0:06.418',-5.43
'0:06.422',-5.04
'0:06.426',-4.88
'0:06.430',-4.5
'0:06.434',-3.97
'0:06.438',-3.65
'0:06.441',-3.02
'0:06.445',-2.05
'0:06.449',-1.32
'0:06.453',-1.13
'0:06.457',-0.78
'0:06.461',-0.91
'0:06.465',-1.39
'0:06.469',-1.45
'0:06.473',-1.12
'0:06.477',-0.71
'0:06.480',-0.15
'0:06.484',0.67
'0:06.488',1.23
'0:06.492',1.26
'0:06.496',1.38
'0:06.500',1.76
'0:06.504',2.77
'0:06.508',3.04
'0:06.512',3.46
'0:06.516',3.87
'0:06.520',4.29
'0:06.523',4.24
'0:06.527',4.14
'0:06.531',4.17
'0:06.535',3.64
'0:06.539',2.94
'0:06.543',2.42
'0:06.547',1.89
'0:06.551',1.19
'0:06.555',0.6
'0:06.559',0.37
'0:06.563',0.5
'0:06.566',0.7
'0:06.570',1.08
'0:06.574',0.85
'0:06.578',0.47
'0:06.582',0.78
'0:06.586',0.97
'0:06.590',0.52
'0:06.594',0.29
'0:06.598',0.65
'0:06.602',0.83
'0:06.605',0.8
'0:06.609',1.05
'0:06.613',1.22
'0:06.617',0.77
'0:06.621',-0.01
'0:06.625',-0.72
'0:06.629',-1.03
'0:06.633',-0.96
'0:06.637',-0.97
'0:06.641',-1.04
'0:06.645',-1.27
'0:06.648',-1.52
'0:06.652',-1.79
'0:06.656',-1.78
'0:06.660',-1.38
'0:06.664',-0.74
'0:06.668',0.42
'0:06.672',2.72
'0:06.676',5.14
'0:06.680',6.84
'0:06.684',6.11
'0:06.688',3.04
'0:06.691',-0.38
'0:06.695',-2.82
'0:06.699',-4.29
'0:06.703',-4.99
'0:06.707',-5.04
'0:06.711',-4.37
'0:06.715',-3.83
'0:06.719',-3.21
'0:06.723',-2.56
'0:06.727',-2.09
'0:06.730',-1.87
'0:06.734',-1.59
'0:06.738',-1.49
'0:06.742',-1.41
'0:06.746',-0.87
'0:06.750',-0.69
'0:06.754',-1.17
'0:06.758',-1.03
'0:06.762',-0.64
'0:06.766',-0.1
'0:06.770',0.64
'0:06.773',0.94
'0:06.777',0.93
'0:06.781',0.86
'0:06.785',0.58
'0:06.789',1.23
'0:06.793',1.94
'0:06.797',2.51
'0:06.801',2.58
'0:06.805',1.27
'0:06.809',1.99
'0:06.813',2.42
'0:06.816',3.18
'0:06.820',3.43
'0:06.824',3.7
'0:06.828',3.85
'0:06.832',3.63
'0:06.836',2.93
'0:06.840',2.57
'0:06.844',3.19
'0:06.848',3.92
'0:06.852',2.97
'0:06.855',2.13
'0:06.859',1.64
'0:06.863',1.22
'0:06.867',0.36
'0:06.871',0.04
'0:06.875',-0.09
'0:06.879',-0.86
'0:06.883',-1.46
'0:06.887',-1.33
'0:06.891',-1
'0:06.895',0.02
'0:06.898',0.9
'0:06.902',0.51
'0:06.906',-0.41
'0:06.910',-1.27
'0:06.914',-0.5
'0:06.918',0.77
'0:06.922',-0.36
'0:06.926',-2.29
'0:06.930',-3.69
'0:06.934',-4.94
'0:06.938',-5.27
'0:06.941',-4.69
'0:06.945',-3.73
'0:06.949',-2.71
'0:06.953',-1.85
'0:06.957',-1.18
'0:06.961',0.17
'0:06.965',2.5
'0:06.969',4.63
'0:06.973',5.54
'0:06.977',4.86
'0:06.980',2.45
'0:06.984',-0.02
'0:06.988',-1.14
'0:06.992',-1.21
'0:06.996',-2.37
'0:07.000',-4.32
'0:07.004',-5.33
'0:07.008',-5.07
'0:07.012',-5.06
'0:07.016',-5.94
'0:07.020',-6.18
'0:07.023',-5.23
'0:07.027',-4.17
'0:07.031',-3.59
'0:07.035',-2.93
'0:07.039',-1.89
'0:07.043',-1.11
'0:07.047',-1.42
'0:07.051',-1.93
'0:07.055',-1.25
'0:07.059',-1.24
'0:07.063',-1.24
'0:07.066',0.31
'0:07.070',2.12
'0:07.074',2.63
'0:07.078',1.52
'0:07.082',0.31
'0:07.086',0.51
'0:07.090',1.38
'0:07.094',1.42
'0:07.098',1.08
'0:07.102',1.02
'0:07.105',1.68
'0:07.109',2.36
'0:07.113',3.52
'0:07.117',4.57
'0:07.121',3.26
'0:07.125',1.49
'0:07.129',0.74
'0:07.133',0.55
'0:07.137',0.36
'0:07.141',0.35
'0:07.145',0.66
'0:07.148',0.32
'0:07.152',-0.45
'0:07.156',-0.97
'0:07.160',-1.03
'0:07.164',-0.52
'0:07.168',0.3
'0:07.172',1.07
'0:07.176',1.1
'0:07.180',0.59
'0:07.184',0.34
'0:07.188',0.27
'0:07.191',0.09
'0:07.195',-0.15
'0:07.199',-0.18
'0:07.203',-0.2
'0:07.207',-0.73
'0:07.211',-1.43
'0:07.215',-1.58
'0:07.219',-1.28
'0:07.223',-1.26
'0:07.227',-1.89
'0:07.230',-2.49
'0:07.234',-2.43
'0:07.238',-2.05
'0:07.242',-1.79
'0:07.246',-1.58
'0:07.250',-0.89
'0:07.254',1.12
'0:07.258',3.58
'0:07.262',5.47
'0:07.266',6.83
'0:07.270',6.08
'0:07.273',2.88
'0:07.277',-0.96
'0:07.281',-3.39
'0:07.285',-4.26
'0:07.289',-4.49
'0:07.293',-4.33
'0:07.297',-3.73
'0:07.301',-3.57
'0:07.305',-3.85
'0:07.309',-3.88
'0:07.313',-3.22
'0:07.316',-2.28
'0:07.320',-1.5
'0:07.324',-1.09
'0:07.328',-0.88
'0:07.332',-0.33
'0:07.336',-0.34
'0:07.340',-1.23
'0:07.344',-1.54
'0:07.348',-1.04
'0:07.352',-0.56
'0:07.355',-0.33
'0:07.359',-0.11
'0:07.363',0.54
'0:07.367',0.59
'0:07.371',0.79
'0:07.375',1.39
'0:07.379',2.28
'0:07.383',3.05
'0:07.387',3.52
'0:07.391',4.21
'0:07.395',4.97
'0:07.398',4.97
'0:07.402',4.43
'0:07.406',3.89
'0:07.410',3.35
'0:07.414',3.04
'0:07.418',2.7
'0:07.422',2.03
'0:07.426',1.41
'0:07.430',0.89
'0:07.434',0.43
'0:07.438',0.32
'0:07.441',0.33
'0:07.445',0.6
'0:07.449',0.73
'0:07.453',0.17
'0:07.457',0.02
'0:07.461',0.39
'0:07.465',0.69
'0:07.469',0.84
'0:07.473',0.99
'0:07.477',1.05
'0:07.480',1.05
'0:07.484',0.87
'0:07.488',0.65
'0:07.492',0.49
'0:07.496',0.36
'0:07.500',0.04
'0:07.504',-0.49
'0:07.508',-1.04
'0:07.512',-1.29
'0:07.516',-1.26
'0:07.520',-1.34
'0:07.523',-1.42
'0:07.527',-1.54
'0:07.531',-1.71
'0:07.535',-1.76
'0:07.539',-1.3
'0:07.543',-0.54
'0:07.547',1.39
'0:07.551',4.4
'0:07.555',7.62
'0:07.559',9.11
'0:07.563',7.19
'0:07.566',2.77
'0:07.570',-1.25
'0:07.574',-3.35
'0:07.578',-4.08
'0:07.582',-4.51
'0:07.586',-4.1
'0:07.590',-3.32
'0:07.594',-3.16
'0:07.598',-3.48
'0:07.602',-3.89
'0:07.605',-4.14
'0:07.609',-4.06
'0:07.613',-3.57
'0:07.617',-3.2
'0:07.621',-2.92
'0:07.625',-2.38
'0:07.629',-1.78
'0:07.633',-1.52
'0:07.637',-1.04
'0:07.641',-0.7
'0:07.645',-0.7
'0:07.648',-0.46
'0:07.652',-0.27
'0:07.656',0.13
'0:07.660',1.96
'0:07.664',3.84
'0:07.668',3.88
'0:07.672',2.73
'0:07.676',0.93
'0:07.680',-0.16
'0:07.684',0.13
'0:07.688',1.43
'0:07.691',2.77
'0:07.695',2.85
'0:07.699',1.96
'0:07.703',1.32
'0:07.707',1.09
'0:07.711',1.66
'0:07.715',1.95
'0:07.719',1.29
'0:07.723',0.48
'0:07.727',-0.46
'0:07.730',-0.78
'0:07.734',-0.6
'0:07.738',-0.25
'0:07.742',-0.19
'0:07.746',-0.18
'0:07.750',-0.01
'0:07.754',0.79
'0:07.758',1.46
'0:07.762',1.3
'0:07.766',1.26
'0:07.770',2.53
'0:07.773',3.59
'0:07.777',2.87
'0:07.781',0.65
'0:07.785',-0.82
'0:07.789',-1.07
'0:07.793',-1.03
'0:07.797',-1.49
'0:07.801',-2.31
'0:07.805',-2.29
'0:07.809',-1.56
'0:07.813',-1.61
'0:07.816',-2.17
'0:07.820',-3.05
'0:07.824',-3.59
'0:07.828',-3.71
'0:07.832',-3.47
'0:07.836',-1.79
'0:07.840',1.11
'0:07.844',3.98
'0:07.848',6.56
'0:07.852',6.75
'0:07.855',3.99
'0:07.859',0.4
'0:07.863',-2.07
'0:07.867',-2.53
'0:07.871',-2.56
'0:07.875',-2.93
'0:07.879',-2.91
'0:07.883',-2.88
'0:07.887',-3.05
'0:07.891',-3.83
'0:07.895',-4.22
'0:07.898',-3.17
'0:07.902',-2.2
'0:07.906',-1.38
'0:07.910',-1.24
'0:07.914',-1.57
'0:07.918',-0.7
'0:07.922',-0.02
'0:07.926',0.15
'0:07.930',-0.2
'0:07.934',-0.82
'0:07.938',-0.96
'0:07.941',-0.61
'0:07.945',-0.18
'0:07.949',0.07
'0:07.953',0.37
'0:07.957',0.87
'0:07.961',2.02
'0:07.965',3.06
'0:07.969',3.99
'0:07.973',3.99
'0:07.977',3.05
'0:07.980',2.81
'0:07.984',2.89
'0:07.988',3
'0:07.992',3
'0:07.996',2.71
'0:08.000',2.23
'0:08.004',1.73
'0:08.008',1.43
'0:08.012',1.29
'0:08.016',1.26
'0:08.020',0.9
'0:08.023',0.45
'0:08.027',0.03
'0:08.031',-0.36
'0:08.035',-0.47
'0:08.039',-0.25
'0:08.043',-0.01
'0:08.047',0.15
'0:08.051',0.04
'0:08.055',-0.04
'0:08.059',0.09
'0:08.063',0.26
'0:08.066',0.25
'0:08.070',0.16
'0:08.074',-0.09
'0:08.078',-0.55
'0:08.082',-1.04
'0:08.086',-1.56
'0:08.090',-2.08
'0:08.094',-2.58
'0:08.098',-2.65
'0:08.102',-2.36
'0:08.105',-1.92
'0:08.109',-1.79
'0:08.113',-1.75
'0:08.117',-1.05
'0:08.121',-0.31
'0:08.125',-0.43
'0:08.129',-0.39
'0:08.133',1.11
'0:08.137',3.38
'0:08.141',4.4
'0:08.145',2.96
'0:08.148',-0.26
'0:08.152',-3.18
'0:08.156',-4.64
'0:08.160',-4.83
'0:08.164',-4.44
'0:08.168',-3.93
'0:08.172',-3.53
'0:08.176',-3.08
'0:08.180',-2.43
'0:08.184',-1.81
'0:08.188',-1.66
'0:08.191',-1.66
'0:08.195',-1.59
'0:08.199',-1.16
'0:08.203',-0.47
'0:08.207',-0.53
'0:08.211',-0.86
'0:08.215',-0.48
'0:08.219',0.81
'0:08.223',1.79
'0:08.227',2.09
'0:08.230',1.86
'0:08.234',0.92
'0:08.238',-0.01
'0:08.242',-0.04
'0:08.246',0.47
'0:08.250',1.75
'0:08.254',4.33
'0:08.258',7.16
'0:08.262',6.71
'0:08.266',3.89
'0:08.270',0.76
'0:08.273',-0.99
'0:08.277',-1.17
'0:08.281',-1.03
'0:08.285',-0.71
'0:08.289',-0.15
'0:08.293',-0.05
'0:08.297',-0.35
'0:08.301',-0.46
'0:08.305',-0.38
'0:08.309',-0.27
'0:08.313',-0.29
'0:08.316',-0.12
'0:08.320',0.69
'0:08.324',1.54
'0:08.328',1.03
'0:08.332',0.19
'0:08.336',-0.76
'0:08.340',-1.96
'0:08.344',-2.57
'0:08.348',-2.57
'0:08.352',-2.31
'0:08.355',-1.86
'0:08.359',-1.52
'0:08.363',-1.19
'0:08.367',-1.07
'0:08.371',-1.45
'0:08.375',-2.08
'0:08.379',-2.66
'0:08.383',-1.82
'0:08.387',1.24
'0:08.391',2.35
'0:08.395',0.78
'0:08.398',-1.79
'0:08.402',-5.01
'0:08.406',-6.41
'0:08.410',-5.72
'0:08.414',-3.72
'0:08.418',-0.91
'0:08.422',2.01
'0:08.426',4.97
'0:08.430',7.48
'0:08.434',7.26
'0:08.438',3.76
'0:08.441',0.14
'0:08.445',-1.34
'0:08.449',-1.61
'0:08.453',-2.44
'0:08.457',-3.89
'0:08.461',-4.58
'0:08.465',-3.87
'0:08.469',-4.34
'0:08.473',-5.55
'0:08.477',-5.14
'0:08.480',-4.53
'0:08.484',-3.78
'0:08.488',-2.6
'0:08.492',-1.69
'0:08.496',-1.37
'0:08.500',-1.34
'0:08.504',-1.03
'0:08.508',0.87
'0:08.512',3.37
'0:08.516',2.82
'0:08.520',0.13
'0:08.523',-1.36
'0:08.527',-0.84
'0:08.531',1.89
'0:08.535',4.81
'0:08.539',4.15
'0:08.543',0.94
'0:08.547',-1.23
'0:08.551',-1.88
'0:08.555',-0.8
'0:08.559',1.31
'0:08.563',3.21
'0:08.566',3.83
'0:08.570',3.45
'0:08.574',2.86
'0:08.578',2.18
'0:08.582',1.39
'0:08.586',1.39
'0:08.590',1.74
'0:08.594',1.47
'0:08.598',1.43
'0:08.602',1.98
'0:08.605',1.69
'0:08.609',1.73
'0:08.613',1.93
'0:08.617',2.57
'0:08.621',2.51
'0:08.625',1.19
'0:08.629',-0.21
'0:08.633',-0.15
'0:08.637',0.36
'0:08.641',0.79
'0:08.645',1.21
'0:08.648',1.62
'0:08.652',1.33
'0:08.656',0.71
'0:08.660',0.27
'0:08.664',0.08
'0:08.668',0.1
'0:08.672',0.16
'0:08.676',0.32
'0:08.680',-0.31
'0:08.684',-1.48
'0:08.688',-1.68
'0:08.691',-1.03
'0:08.695',-0.61
'0:08.699',-0.03
'0:08.703',0.58
'0:08.707',1.24
'0:08.711',2.45
'0:08.715',4.67
'0:08.719',7.55
'0:08.723',7.79
'0:08.727',4.76
'0:08.730',0.83
'0:08.734',-2
'0:08.738',-3.62
'0:08.742',-4.29
'0:08.746',-4
'0:08.750',-3.21
'0:08.754',-3.02
'0:08.758',-3.12
'0:08.762',-3.01
'0:08.766',-2.65
'0:08.770',-2.13
'0:08.773',-1.5
'0:08.777',-1.27
'0:08.781',-1.52
'0:08.785',-1.39
'0:08.789',-0.73
'0:08.793',-0.44
'0:08.797',-0.38
'0:08.801',-0.41
'0:08.805',-0.18
'0:08.809',-0.08
'0:08.813',-0.34
'0:08.816',-0.34
'0:08.820',0.04
'0:08.824',0.35
'0:08.828',0.64
'0:08.832',1.02
'0:08.836',1.42
'0:08.840',1.93
'0:08.844',2.59
'0:08.848',3.09
'0:08.852',3.7
'0:08.855',3.97
'0:08.859',3.21
'0:08.863',2.35
'0:08.867',1.86
'0:08.871',1.83
'0:08.875',1.55
'0:08.879',1.09
'0:08.883',0.25
'0:08.887',-0.37
'0:08.891',-0.29
'0:08.895',0.57
'0:08.898',0.93
'0:08.902',0.83
'0:08.906',0.81
'0:08.910',0.61
'0:08.914',0.98
'0:08.918',2.32
'0:08.922',2.68
'0:08.926',2.19
'0:08.930',2.31
'0:08.934',3.11
'0:08.938',3.98
'0:08.941',2.99
'0:08.945',0.72
'0:08.949',-1.27
'0:08.953',-2.48
'0:08.957',-3.73
'0:08.961',-4.59
'0:08.965',-4.37
'0:08.969',-3.12
'0:08.973',-0.54
'0:08.977',3.76
'0:08.980',7.32
'0:08.984',5.65
'0:08.988',0.21
'0:08.992',-4.25
'0:08.996',-6.39
'0:09.000',-6.47
'0:09.004',-4.78
'0:09.008',-1.7
'0:09.012',0.65
'0:09.016',0.59
'0:09.020',-0.57
'0:09.023',0.84
'0:09.027',2.62
'0:09.031',-0.35
'0:09.035',-5.74
'0:09.039',-8.09
'0:09.043',-6.24
'0:09.047',-3.93
'0:09.051',-3.98
'0:09.055',-4.66
'0:09.059',-4.7
'0:09.063',-3.56
'0:09.066',-2.03
'0:09.070',-0.12
'0:09.074',1.43
'0:09.078',2.27
'0:09.082',1.73
'0:09.086',-0.48
'0:09.090',-1.91
'0:09.094',-0.4
'0:09.098',0.81
'0:09.102',-0.62
'0:09.105',-2.53
'0:09.109',-2.63
'0:09.113',-0.74
'0:09.117',0.68
'0:09.121',0.51
'0:09.125',0.17
'0:09.129',1.08
'0:09.133',1.45
'0:09.137',1.62
'0:09.141',1.39
'0:09.145',2.59
'0:09.148',5
'0:09.152',6.41
'0:09.156',5.25
'0:09.160',3.35
'0:09.164',1.38
'0:09.168',-0.16
'0:09.172',-1.08
'0:09.176',-1.55
'0:09.180',-0.66
'0:09.184',1.33
'0:09.188',3.26
'0:09.191',2.89
'0:09.195',0.05
'0:09.199',-2.44
'0:09.203',-2.78
'0:09.207',-1.84
'0:09.211',-0.22
'0:09.215',0.93
'0:09.219',0.43
'0:09.223',-1.14
'0:09.227',-1.33
'0:09.230',0.26
'0:09.234',2.05
'0:09.238',2.76
'0:09.242',1.81
'0:09.246',0.78
'0:09.250',0.11
'0:09.254',0.84
'0:09.258',0
'0:09.262',-1.25
'0:09.266',-1.67
'0:09.270',-2.03
'0:09.273',-2.81
'0:09.277',-3.26
'0:09.281',-2.26
'0:09.285',0.41
'0:09.289',2.47
'0:09.293',2.19
'0:09.297',1.86
'0:09.301',2.66
'0:09.305',2.3
'0:09.309',0.36
'0:09.313',-1.46
'0:09.316',-1.78
'0:09.320',-2.32
'0:09.324',-3.65
'0:09.328',-4.89
'0:09.332',-5.07
'0:09.336',-4.3
'0:09.340',-4.44
'0:09.344',-4.56
'0:09.348',-2.86
'0:09.352',0.5
'0:09.355',2.27
'0:09.359',1.21
'0:09.363',-0.41
'0:09.367',-0.78
'0:09.371',0.68
'0:09.375',1.94
'0:09.379',2.5
'0:09.383',1.21
'0:09.387',-1.1
'0:09.391',-3.75
'0:09.395',-4.48
'0:09.398',-3.36
'0:09.402',-1.6
'0:09.406',-0.73
'0:09.410',-0.18
'0:09.414',1
'0:09.418',2.73
'0:09.422',4.22
'0:09.426',4.42
'0:09.430',4.11
'0:09.434',4.13
'0:09.438',4.93
'0:09.441',5.74
'0:09.445',4.29
'0:09.449',1.59
'0:09.453',0.76
'0:09.457',2.02
'0:09.461',2.62
'0:09.465',1.39
'0:09.469',-0.02
'0:09.473',-0.72
'0:09.477',-0.52
'0:09.480',-0.64
'0:09.484',1.24
'0:09.488',4.34
'0:09.492',3.46
'0:09.496',-0.48
'0:09.500',-2.81
'0:09.504',-2.61
'0:09.508',-1.9
'0:09.512',-1.57
'0:09.516',-1.45
'0:09.520',-1.28
'0:09.523',-1.08
'0:09.527',-1.05
'0:09.531',-1.13
'0:09.535',-1.72
'0:09.539',-2.53
'0:09.543',-3.03
'0:09.547',-3.34
'0:09.551',-3.62
'0:09.555',-3.67
'0:09.559',-3.54
'0:09.563',-3.16
'0:09.566',-2.91
'0:09.570',-2.73
'0:09.574',-2.19
'0:09.578',-0.71
'0:09.582',1.79
'0:09.586',4.57
'0:09.590',6.83
'0:09.594',7.23
'0:09.598',4.7
'0:09.602',0.56
'0:09.605',-2.44
'0:09.609',-3.82
'0:09.613',-4.39
'0:09.617',-4.55
'0:09.621',-4.71
'0:09.625',-5.19
'0:09.629',-4.85
'0:09.633',-3.76
'0:09.637',-2.32
'0:09.641',-1.15
'0:09.645',-1
'0:09.648',-1.96
'0:09.652',-2.46
'0:09.656',-1.57
'0:09.660',-0.03
'0:09.664',0.57
'0:09.668',-0.43
'0:09.672',-1.56
'0:09.676',-2.17
'0:09.680',-2.22
'0:09.684',-1.75
'0:09.688',-0.63
'0:09.691',0.3
'0:09.695',0.67
'0:09.699',0.81
'0:09.703',1
'0:09.707',1.61
'0:09.711',2.31
'0:09.715',2.91
'0:09.719',3.32
'0:09.723',3.83
'0:09.727',4.53
'0:09.730',4.46
'0:09.734',3.92
'0:09.738',3.38
'0:09.742',3.28
'0:09.746',4.23
'0:09.750',4.35
'0:09.754',2.06
'0:09.758',-0.12
'0:09.762',-0.62
'0:09.766',-1.32
'0:09.770',-2.27
'0:09.773',-1.26
'0:09.777',1.75
'0:09.781',4.15
'0:09.785',3.88
'0:09.789',3.7
'0:09.793',5.32
'0:09.797',5.86
'0:09.801',3.14
'0:09.805',0
'0:09.809',-1.12
'0:09.813',-1.63
'0:09.816',-2.2
'0:09.820',-2.09
'0:09.824',-1.08
'0:09.828',-0.72
'0:09.832',-0.74
'0:09.836',-0.73
'0:09.840',-0.18
'0:09.844',1.2
'0:09.848',1.23
'0:09.852',0.04
'0:09.855',-1.77
'0:09.859',-3.41
'0:09.863',-3.72
'0:09.867',-2.55
'0:09.871',-0.8
'0:09.875',1.3
'0:09.879',3.91
'0:09.883',7.12
'0:09.887',8.54
'0:09.891',6.28
'0:09.895',2.95
'0:09.898',1.04
'0:09.902',-0.73
'0:09.906',-2.17
'0:09.910',-3.01
'0:09.914',-4.06
'0:09.918',-5.94
'0:09.922',-6.71
'0:09.926',-6.02
'0:09.930',-4.7
'0:09.934',-2.35
'0:09.938',-0.05
'0:09.941',-0.03
'0:09.945',-1.82
'0:09.949',-3.63
'0:09.953',-4.72
'0:09.957',-4.76
'0:09.961',-4.4
'0:09.965',-4.24
'0:09.969',-3.84
'0:09.973',-2.92
'0:09.977',-1.86
'0:09.980',-1.01
'0:09.984',0.17
'0:09.988',1.56
'0:09.992',2.67
'0:09.996',3.32
'0:10.000',3.18
'0:10.004',2.48
'0:10.008',2.04
'0:10.012',2.76
'0:10.016',4.91
'0:10.020',6.75
'0:10.023',5.64
'0:10.027',3.05
'0:10.031',1.73
'0:10.035',3.66
'0:10.039',5.93
'0:10.043',5.12
'0:10.047',1.91
'0:10.051',-2.37
'0:10.055',-5.27
'0:10.059',-5.44
'0:10.063',-5.11
'0:10.066',-4.29
'0:10.070',-2.71
'0:10.074',-0.22
'0:10.078',1.84
'0:10.082',2.5
'0:10.086',2.73
'0:10.090',3.21
'0:10.094',4.91
'0:10.098',7.08
'0:10.102',6.07
'0:10.105',2.74
'0:10.109',0.24
'0:10.113',-0.86
'0:10.117',-0.83
'0:10.121',-0.05
'0:10.125',-0.21
'0:10.129',-1.57
'0:10.133',-2.71
'0:10.137',-2.96
'0:10.141',-2.61
'0:10.145',-0.55
'0:10.148',2.08
'0:10.152',-0.31
'0:10.156',-4.73
'0:10.160',-6.71
'0:10.164',-4.81
'0:10.168',-0.59
'0:10.172',3.86
'0:10.176',6.37
'0:10.180',5.53
'0:10.184',2.66
'0:10.188',-0.19
'0:10.191',-1.88
'0:10.195',-2.39
'0:10.199',-2.55
'0:10.203',-2.68
'0:10.207',-2.53
'0:10.211',-3.03
'0:10.215',-4.36
'0:10.219',-5.28
'0:10.223',-4.76
'0:10.227',-3.34
'0:10.230',-2.19
'0:10.234',-0.3
'0:10.238',0.69
'0:10.242',-0.64
'0:10.246',-1.73
'0:10.250',-1.6
'0:10.254',-1.39
'0:10.258',-1.31
'0:10.262',-0.95
'0:10.266',-1.41
'0:10.270',-0.77
'0:10.273',-0.18
'0:10.277',0.38
'0:10.281',1.24
'0:10.285',1.64
'0:10.289',1.92
'0:10.293',2.16
'0:10.297',2.52
'0:10.301',2.89
'0:10.305',3.14
'0:10.309',3.42
'0:10.313',3.91
'0:10.316',4.21
'0:10.320',4.04
'0:10.324',3.78
'0:10.328',3.75
'0:10.332',3.25
'0:10.336',2.29
'0:10.340',1.14
'0:10.344',0.18
'0:10.348',-0.47
'0:10.352',-0.65
'0:10.355',-0.35
'0:10.359',0.08
'0:10.363',0.47
'0:10.367',0.7
'0:10.371',0.73
'0:10.375',0.82
'0:10.379',0.98
'0:10.383',0.89
'0:10.387',0.6
'0:10.391',0.65
'0:10.395',0.89
'0:10.398',1.01
'0:10.402',0.49
'0:10.406',-0.5
'0:10.410',-1.5
'0:10.414',-1.97
'0:10.418',-2.22
'0:10.422',-2.4
'0:10.426',-2.37
'0:10.430',-2.25
'0:10.434',-2.19
'0:10.438',-2.19
'0:10.441',-2.3
'0:10.445',-2.41
'0:10.449',-2.1
'0:10.453',-1.18
'0:10.457',0.31
'0:10.461',2.42
'0:10.465',4.65
'0:10.469',5.65
'0:10.473',4.07
'0:10.477',0.75
'0:10.480',-2.22
'0:10.484',-3.91
'0:10.488',-4.47
'0:10.492',-4.51
'0:10.496',-4.16
'0:10.500',-3.58
'0:10.504',-3.2
'0:10.508',-3.14
'0:10.512',-3.05
'0:10.516',-2.79
'0:10.520',-2.4
'0:10.523',-2.15
'0:10.527',-2
'0:10.531',-1.96
'0:10.535',-2
'0:10.539',-1.72
'0:10.543',-1.02
'0:10.547',-0.52
'0:10.551',-0.49
'0:10.555',-0.42
'0:10.559',-0.3
'0:10.563',-0.12
'0:10.566',0.23
'0:10.570',0.87
'0:10.574',1.4
'0:10.578',1.7
'0:10.582',1.99
'0:10.586',2.35
'0:10.590',2.8
'0:10.594',3.25
'0:10.598',3.63
'0:10.602',3.78
'0:10.605',3.75
'0:10.609',3.48
'0:10.613',3
'0:10.617',2.69
'0:10.621',2.94
'0:10.625',3.27
'0:10.629',2.64
'0:10.633',1.72
'0:10.637',0.91
'0:10.641',0.06
'0:10.645',-0.55
'0:10.648',0.29
'0:10.652',1.95
'0:10.656',2.86
'0:10.660',1.77
'0:10.664',0.29
'0:10.668',-0.66
'0:10.672',-0.87
'0:10.676',-1.44
'0:10.680',-1.63
'0:10.684',-1.12
'0:10.688',-0.48
'0:10.691',0.35
'0:10.695',0.31
'0:10.699',-1.28
'0:10.703',-1.77
'0:10.707',-2.27
'0:10.711',-4.35
'0:10.715',-5.77
'0:10.719',-5.63
'0:10.723',-5.04
'0:10.727',-4.36
'0:10.730',-4.02
'0:10.734',-3.72
'0:10.738',-2.66
'0:10.742',-0.99
'0:10.746',0.56
'0:10.750',2.58
'0:10.754',5.77
'0:10.758',8.23
'0:10.762',7.09
'0:10.766',2.65
'0:10.770',-1.95
'0:10.773',-5.56
'0:10.777',-7.51
'0:10.781',-7.48
'0:10.785',-6.51
'0:10.789',-5.25
'0:10.793',-3.8
'0:10.797',-3.33
'0:10.801',-3.83
'0:10.805',-4.31
'0:10.809',-3.54
'0:10.813',-2.47
'0:10.816',-2.69
'0:10.820',-4.2
'0:10.824',-5.22
'0:10.828',-4.83
'0:10.832',-3.5
'0:10.836',-1.84
'0:10.840',-0.84
'0:10.844',-0.58
'0:10.848',-0.52
'0:10.852',0.33
'0:10.855',3.2
'0:10.859',6.57
'0:10.863',5.84
'0:10.867',1.84
'0:10.871',-0.57
'0:10.875',-0.06
'0:10.879',1.29
'0:10.883',2.45
'0:10.887',2.94
'0:10.891',2.91
'0:10.895',2.52
'0:10.898',2.26
'0:10.902',2.03
'0:10.906',1.95
'0:10.910',2.23
'0:10.914',2.9
'0:10.918',2.86
'0:10.922',1.69
'0:10.926',1.02
'0:10.930',2.35
'0:10.934',3.46
'0:10.938',1.68
'0:10.941',-0.66
'0:10.945',-1.92
'0:10.949',-1.73
'0:10.953',-0.57
'0:10.957',1.36
'0:10.961',2.47
'0:10.965',1.99
'0:10.969',0.38
'0:10.973',-0.82
'0:10.977',-0.89
'0:10.980',-0.18
'0:10.984',0.52
'0:10.988',0.55
'0:10.992',0.16
'0:10.996',0.21
'0:11.000',0.28
'0:11.004',-0.06
'0:11.008',-0.6
'0:11.012',-1.32
'0:11.016',-1.55
'0:11.020',-1.53
'0:11.023',-1.84
'0:11.027',-1.54
'0:11.031',-0.48
'0:11.035',0.75
'0:11.039',2.1
'0:11.043',3.71
'0:11.047',5.82
'0:11.051',7.55
'0:11.055',6.88
'0:11.059',3.61
'0:11.063',-0.02
'0:11.066',-2.32
'0:11.070',-3.9
'0:11.074',-4.41
'0:11.078',-4.04
'0:11.082',-3.78
'0:11.086',-3.4
'0:11.090',-2.99
'0:11.094',-2.5
'0:11.098',-2.18
'0:11.102',-2.07
'0:11.105',-2.45
'0:11.109',-2.31
'0:11.113',-1.16
'0:11.117',-0.17
'0:11.121',0.23
'0:11.125',-0.23
'0:11.129',-0.29
'0:11.133',-0.61
'0:11.137',-0.85
'0:11.141',-0.36
'0:11.145',0.36
'0:11.148',1.21
'0:11.152',1.84
'0:11.156',2.16
'0:11.160',2.64
'0:11.164',3.11
'0:11.168',3.36
'0:11.172',3.36
'0:11.176',3.52
'0:11.180',3.65
'0:11.184',3.72
'0:11.188',3.48
'0:11.191',3
'0:11.195',2.43
'0:11.199',2.34
'0:11.203',2.37
'0:11.207',2.58
'0:11.211',2.22
'0:11.215',1.47
'0:11.219',0.9
'0:11.223',0.46
'0:11.227',0.61
'0:11.230',0.47
'0:11.234',0.4
'0:11.238',0.39
'0:11.242',0.41
'0:11.246',0.87
'0:11.250',1.45
'0:11.254',1.69
'0:11.258',1.35
'0:11.262',0.97
'0:11.266',0.92
'0:11.270',1.3
'0:11.273',1.44
'0:11.277',1.03
'0:11.281',-0.05
'0:11.285',-0.8
'0:11.289',-1.23
'0:11.293',-1.54
'0:11.297',-2.29
'0:11.301',-2.16
'0:11.305',-2.02
'0:11.309',-1.93
'0:11.313',-1.9
'0:11.316',-1.86
'0:11.320',-1.29
'0:11.324',-0.63
'0:11.328',-0.06
'0:11.332',1.11
'0:11.336',3.24
'0:11.340',5.21
'0:11.344',4.69
'0:11.348',1.93
'0:11.352',-1.78
'0:11.355',-4.58
'0:11.359',-5.72
'0:11.363',-5.96
'0:11.367',-5.51
'0:11.371',-4.38
'0:11.375',-3.11
'0:11.379',-2.51
'0:11.383',-2.79
'0:11.387',-2.28
'0:11.391',-1.41
'0:11.395',-1.18
'0:11.398',-1.39
'0:11.402',-1.01
'0:11.406',-0.54
'0:11.410',0
'0:11.414',0.15
'0:11.418',0.3
'0:11.422',0.39
'0:11.426',0.59
'0:11.430',0.52
'0:11.434',0.88
'0:11.438',1.68
'0:11.441',2.02
'0:11.445',2.48
'0:11.449',2.97
'0:11.453',2.84
'0:11.457',2.46
'0:11.461',2.88
'0:11.465',3.83
'0:11.469',4.06
'0:11.473',4.76
'0:11.477',5.97
'0:11.480',6.59
'0:11.484',5.13
'0:11.488',3.12
'0:11.492',1.77
'0:11.496',0.87
'0:11.500',-0.45
'0:11.504',-1.62
'0:11.508',-2.05
'0:11.512',-2.17
'0:11.516',-2.28
'0:11.520',-2.55
'0:11.523',-2.57
'0:11.527',-2.31
'0:11.531',-2.02
'0:11.535',-1.74
'0:11.539',-1.28
'0:11.543',-0.06
'0:11.547',1.38
'0:11.551',1.58
'0:11.555',0.55
'0:11.559',-0.13
'0:11.563',-0.34
'0:11.566',-0.33
'0:11.570',-1.81
'0:11.574',-4.06
'0:11.578',-5.28
'0:11.582',-5.46
'0:11.586',-5.04
'0:11.590',-4.69
'0:11.594',-4.53
'0:11.598',-4.1
'0:11.602',-3.38
'0:11.605',-3.12
'0:11.609',-3.16
'0:11.613',-3.31
'0:11.617',-3.26
'0:11.621',-3.02
'0:11.625',-1.15
'0:11.629',1.89
'0:11.633',4.38
'0:11.637',5.06
'0:11.641',3.08
'0:11.645',-0.24
'0:11.648',-2.22
'0:11.652',-1.95
'0:11.656',-1.03
'0:11.660',-2.32
'0:11.664',-4.63
'0:11.668',-5.52
'0:11.672',-5.14
'0:11.676',-4.75
'0:11.680',-4.11
'0:11.684',-3.56
'0:11.688',-2.74
'0:11.691',-1.93
'0:11.695',-1.29
'0:11.699',-1.1
'0:11.703',-1.47
'0:11.707',-1.7
'0:11.711',-1.39
'0:11.715',-0.84
'0:11.719',-0.54
'0:11.723',-0.46
'0:11.727',-0.28
'0:11.730',0.25
'0:11.734',0.75
'0:11.738',1.1
'0:11.742',2.08
'0:11.746',3.74
'0:11.750',4.93
'0:11.754',4.22
'0:11.758',2.91
'0:11.762',2.42
'0:11.766',2.57
'0:11.770',3.09
'0:11.773',3.57
'0:11.777',3.74
'0:11.781',3.47
'0:11.785',3.32
'0:11.789',3.27
'0:11.793',3.55
'0:11.797',3.9
'0:11.801',3.32
'0:11.805',2.01
'0:11.809',0.49
'0:11.813',-0.79
'0:11.816',-1.35
'0:11.820',-1.28
'0:11.824',-0.56
'0:11.828',0.32
'0:11.832',0.77
'0:11.836',0.69
'0:11.840',0.55
'0:11.844',0.5
'0:11.848',0.56
'0:11.852',0.76
'0:11.855',1.2
'0:11.859',0.98
'0:11.863',-0.17
'0:11.867',-1.28
'0:11.871',-2.11
'0:11.875',-2.43
'0:11.879',-2.04
'0:11.883',-1.69
'0:11.887',-1.94
'0:11.891',-2.84
'0:11.895',-3
'0:11.898',-2.38
'0:11.902',-0.87
'0:11.906',0.37
'0:11.910',0.66
'0:11.914',1.18
'0:11.918',3.09
'0:11.922',5.5
'0:11.926',6.49
'0:11.930',4.72
'0:11.934',0.74
'0:11.938',-2.87
'0:11.941',-5.13
'0:11.945',-6.05
'0:11.949',-5.98
'0:11.953',-5.43
'0:11.957',-4.94
'0:11.961',-4.41
'0:11.965',-3.59
'0:11.969',-2.47
'0:11.973',-1.67
'0:11.977',-1.45
'0:11.980',-1.79
'0:11.984',-1.97
'0:11.988',-1.91
'0:11.992',-1.8
'0:11.996',-2.03
'0:12.000',-2.15
'0:12.004',-1.74
'0:12.008',-1.16
'0:12.012',-0.57
'0:12.016',-0.08
'0:12.020',0.31
'0:12.023',0.54
'0:12.027',0.91
'0:12.031',1.08
'0:12.035',0.95
'0:12.039',1.13
'0:12.043',1.73
'0:12.047',2.92
'0:12.051',4.04
'0:12.055',4.43
'0:12.059',4.09
'0:12.063',3.67
'0:12.066',3.47
'0:12.070',3.44
'0:12.074',3.06
'0:12.078',2.46
'0:12.082',1.81
'0:12.086',1.17
'0:12.090',0.86
'0:12.094',0.81
'0:12.098',0.81
'0:12.102',0.69
'0:12.105',0.57
'0:12.109',0.33
'0:12.113',0.27
'0:12.117',0.41
'0:12.121',0.74
'0:12.125',1.06
'0:12.129',1.01
'0:12.133',0.98
'0:12.137',1.1
'0:12.141',1.19
'0:12.145',1.2
'0:12.148',1.04
'0:12.152',0.6
'0:12.156',0.07
'0:12.160',-0.51
'0:12.164',-1.16
'0:12.168',-1.73
'0:12.172',-1.71
'0:12.176',-1.4
'0:12.180',-1.19
'0:12.184',-1.45
'0:12.188',-1.79
'0:12.191',-1.6
'0:12.195',-0.84
'0:12.199',0.18
'0:12.203',1.71
'0:12.207',4.18
'0:12.211',7.13
'0:12.215',9.17
'0:12.219',8.23
'0:12.223',4.19
'0:12.227',-0.19
'0:12.230',-3.22
'0:12.234',-4.84
'0:12.238',-5.04
'0:12.242',-4.81
'0:12.246',-4.66
'0:12.250',-4.11
'0:12.254',-3.45
'0:12.258',-3.06
'0:12.262',-2.65
'0:12.266',-2.02
'0:12.270',-1.58
'0:12.273',-1.08
'0:12.277',-0.83
'0:12.281',-0.97
'0:12.285',-0.16
'0:12.289',0.92
'0:12.293',1.4
'0:12.297',1.32
'0:12.301',1.45
'0:12.305',0.6
'0:12.309',-0.59
'0:12.313',-0.83
'0:12.316',-0.27
'0:12.320',0.27
'0:12.324',0.61
'0:12.328',1.17
'0:12.332',1.86
'0:12.336',1.92
'0:12.340',1.36
'0:12.344',0.91
'0:12.348',0.84
'0:12.352',1.56
'0:12.355',1.92
'0:12.359',1.44
'0:12.363',0.54
'0:12.367',0.27
'0:12.371',0.39
'0:12.375',0.53
'0:12.379',0.75
'0:12.383',0.35
'0:12.387',-0.47
'0:12.391',0.09
'0:12.395',1.98
'0:12.398',2.6
'0:12.402',1.73
'0:12.406',-0.03
'0:12.410',-1.4
'0:12.414',-2.12
'0:12.418',-3.3
'0:12.422',-4.23
'0:12.426',-3.74
'0:12.430',-2.86
'0:12.434',-1.98
'0:12.438',-1.26
'0:12.441',-0.96
'0:12.445',-1.01
'0:12.449',-1.36
'0:12.453',-2.15
'0:12.457',-1.92
'0:12.461',-1.36
'0:12.465',-1.31
'0:12.469',-1.45
'0:12.473',-1.51
'0:12.477',-1.19
'0:12.480',-0.56
'0:12.484',-0.79
'0:12.488',-2.1
'0:12.492',-2.69
'0:12.496',-1.89
'0:12.500',0.03
'0:12.504',2.3
'0:12.508',4.17
'0:12.512',3.98
'0:12.516',2.75
'0:12.520',0.43
'0:12.523',-1.97
'0:12.527',-3.84
'0:12.531',-4.72
'0:12.535',-5.17
'0:12.539',-3.11
'0:12.543',0.04
'0:12.547',0.68
'0:12.551',-0.75
'0:12.555',-1.83
'0:12.559',-1.98
'0:12.563',-1.71
'0:12.566',-1.29
'0:12.570',-0.66
'0:12.574',0.2
'0:12.578',0.84
'0:12.582',1.21
'0:12.586',1.11
'0:12.590',0.49
'0:12.594',0.54
'0:12.598',0.95
'0:12.602',1.29
'0:12.605',1.76
'0:12.609',1.97
'0:12.613',1.63
'0:12.617',1.95
'0:12.621',2.57
'0:12.625',3.22
'0:12.629',3.87
'0:12.633',4.94
'0:12.637',5.5
'0:12.641',5.31
'0:12.645',4.79
'0:12.648',4.82
'0:12.652',4.83
'0:12.656',4.55
'0:12.660',3.91
'0:12.664',3.41
'0:12.668',3.07
'0:12.672',2.23
'0:12.676',1.3
'0:12.680',0.63
'0:12.684',-0.04
'0:12.688',-0.81
'0:12.691',-1.28
'0:12.695',-0.37
'0:12.699',0.25
'0:12.703',1.1
'0:12.707',1.47
'0:12.711',1.16
'0:12.715',0.81
'0:12.719',0.66
'0:12.723',-0.53
'0:12.727',-1.37
'0:12.730',-1.57
'0:12.734',-1.81
'0:12.738',-2.13
'0:12.742',-2.15
'0:12.746',-1.79
'0:12.750',-1.52
'0:12.754',-1.41
'0:12.758',-2.09
'0:12.762',-2.76
'0:12.766',-2.75
'0:12.770',-2.97
'0:12.773',-3.29
'0:12.777',-2.9
'0:12.781',-2.06
'0:12.785',-1
'0:12.789',0.47
'0:12.793',2.79
'0:12.797',5.14
'0:12.801',5.64
'0:12.805',3.47
'0:12.809',-0.1
'0:12.813',-3.22
'0:12.816',-5
'0:12.820',-5.47
'0:12.824',-5.34
'0:12.828',-4.95
'0:12.832',-4.43
'0:12.836',-3.78
'0:12.840',-3.23
'0:12.844',-2.95
'0:12.848',-2.68
'0:12.852',-2.47
'0:12.855',-2.41
'0:12.859',-2.34
'0:12.863',-1.94
'0:12.867',-1.7
'0:12.871',-1.7
'0:12.875',-1.56
'0:12.879',-1.27
'0:12.883',-1
'0:12.887',-0.72
'0:12.891',-0.38
'0:12.895',0.04
'0:12.898',0.35
'0:12.902',0.63
'0:12.906',1.03
'0:12.910',1.73
'0:12.914',2.44
'0:12.918',2.9
'0:12.922',3.24
'0:12.926',3.43
'0:12.930',3.44
'0:12.934',3.41
'0:12.938',3.25
'0:12.941',2.96
'0:12.945',2.3
'0:12.949',1.45
'0:12.953',0.82
'0:12.957',0.74
'0:12.961',0.89
'0:12.965',1.07
'0:12.969',1.07
'0:12.973',0.72
'0:12.977',0.15
'0:12.980',-0.23
'0:12.984',-0.37
'0:12.988',-0.16
'0:12.992',0.05
'0:12.996',0.1
'0:13.000',0.19
'0:13.004',0.39
'0:13.008',0.23
'0:13.012',0.1
'0:13.016',0.1
'0:13.020',0.16
'0:13.023',0.04
'0:13.027',-0.27
'0:13.031',-0.73
'0:13.035',-1.1
'0:13.039',-1.33
'0:13.043',-1.5
'0:13.047',-1.62
'0:13.051',-1.66
'0:13.055',-1.77
'0:13.059',-1.99
'0:13.063',-1.95
'0:13.066',-1.57
'0:13.070',-0.87
'0:13.074',0.11
'0:13.078',1.82
'0:13.082',4.46
'0:13.086',7.19
'0:13.090',8.81
'0:13.094',7.25
'0:13.098',3.85
'0:13.102',1.21
'0:13.105',-2.28
'0:13.109',-5.73
'0:13.113',-5.98
'0:13.117',-3.72
'0:13.121',-2.28
'0:13.125',-3.32
'0:13.129',-5.12
'0:13.133',-6.28
'0:13.137',-6.48
'0:13.141',-6.36
'0:13.145',-5.52
'0:13.148',-4.47
'0:13.152',-3.38
'0:13.156',-2.55
'0:13.160',-1.95
'0:13.164',-1.17
'0:13.168',-0.73
'0:13.172',-0.9
'0:13.176',-0.9
'0:13.180',-0.79
'0:13.184',-0.46
'0:13.188',0.7
'0:13.191',2.98
'0:13.195',5.11
'0:13.199',5.73
'0:13.203',4.38
'0:13.207',1.68
'0:13.211',0.86
'0:13.215',1
'0:13.219',0.87
'0:13.223',0.28
'0:13.227',-0.39
'0:13.230',-0.13
'0:13.234',0.45
'0:13.238',0.73
'0:13.242',0.75
'0:13.246',0.55
'0:13.250',-0.02
'0:13.254',-0.36
'0:13.258',-0.08
'0:13.262',0.13
'0:13.266',-0.28
'0:13.270',-0.74
'0:13.273',-0.71
'0:13.277',-0.33
'0:13.281',0.44
'0:13.285',1.82
'0:13.289',3.94
'0:13.293',6
'0:13.297',5.35
'0:13.301',1.7
'0:13.305',-1.43
'0:13.309',-2.61
'0:13.313',-2.4
'0:13.316',-1.9
'0:13.320',-1.45
'0:13.324',-1.1
'0:13.328',-1.11
'0:13.332',-1.28
'0:13.336',-1.48
'0:13.340',-2.06
'0:13.344',-2.98
'0:13.348',-3.05
'0:13.352',-2.62
'0:13.355',-2.18
'0:13.359',-1.7
'0:13.363',-0.76
'0:13.367',0.42
'0:13.371',1.75
'0:13.375',3.83
'0:13.379',6.39
'0:13.383',7.61
'0:13.387',5.97
'0:13.391',2.64
'0:13.395',-0.41
'0:13.398',-2.4
'0:13.402',-3.37
'0:13.406',-3.46
'0:13.410',-3.54
'0:13.414',-3.48
'0:13.418',-2.79
'0:13.422',-2.16
'0:13.426',-1.78
'0:13.430',-1.62
'0:13.434',-1.93
'0:13.438',-2.02
'0:13.441',-1.75
'0:13.445',-0.7
'0:13.449',0.7
'0:13.453',1.81
'0:13.457',1.34
'0:13.461',0.23
'0:13.465',-0.51
'0:13.469',-0.68
'0:13.473',-0.26
'0:13.477',-0.07
'0:13.480',0.55
'0:13.484',1.34
'0:13.488',1.35
'0:13.492',1.2
'0:13.496',1.99
'0:13.500',3.15
'0:13.504',3.83
'0:13.508',3.61
'0:13.512',3.33
'0:13.516',3.05
'0:13.520',3.5
'0:13.523',4.55
'0:13.527',4.34
'0:13.531',3.72
'0:13.535',3.03
'0:13.539',2.18
'0:13.543',1.44
'0:13.547',0.73
'0:13.551',0.38
'0:13.555',0.56
'0:13.559',0.31
'0:13.563',0.37
'0:13.566',-0.14
'0:13.570',-0.92
'0:13.574',-0.78
'0:13.578',0.02
'0:13.582',0.41
'0:13.586',0.54
'0:13.590',1.3
'0:13.594',1.46
'0:13.598',1.32
'0:13.602',0.78
'0:13.605',-0.75
'0:13.609',-1.01
'0:13.613',-0.24
'0:13.617',-0.11
'0:13.621',-0.42
'0:13.625',-0.72
'0:13.629',-1
'0:13.633',-1.39
'0:13.637',-1.93
'0:13.641',-2.01
'0:13.645',-1.78
'0:13.648',-1.79
'0:13.652',-1.57
'0:13.656',-1.09
'0:13.660',0
'0:13.664',2.04
'0:13.668',4.41
'0:13.672',5.51
'0:13.676',4.15
'0:13.680',1.07
'0:13.684',-2
'0:13.688',-3.73
'0:13.691',-4.34
'0:13.695',-4.36
'0:13.699',-4.12
'0:13.703',-3.88
'0:13.707',-3.73
'0:13.711',-3.7
'0:13.715',-3.66
'0:13.719',-3.26
'0:13.723',-2.77
'0:13.727',-2.33
'0:13.730',-1.89
'0:13.734',-1.61
'0:13.738',-1.42
'0:13.742',-1.22
'0:13.746',-0.75
'0:13.750',-0.35
'0:13.754',-0.36
'0:13.758',-0.52
'0:13.762',-0.63
'0:13.766',-0.42
'0:13.770',0.08
'0:13.773',0.52
'0:13.777',1.05
'0:13.781',1.5
'0:13.785',1.7
'0:13.789',2.1
'0:13.793',2.73
'0:13.797',3.29
'0:13.801',3.65
'0:13.805',3.69
'0:13.809',3.62
'0:13.813',3.54
'0:13.816',3.37
'0:13.820',3.15
'0:13.824',2.87
'0:13.828',2.33
'0:13.832',1.61
'0:13.836',0.94
'0:13.840',0.6
'0:13.844',0.33
'0:13.848',0.09
'0:13.852',-0.04
'0:13.855',0.21
'0:13.859',0.57
'0:13.863',0.85
'0:13.867',1.08
'0:13.871',1.43
'0:13.875',1.45
'0:13.879',1.07
'0:13.883',0.8
'0:13.887',0.88
'0:13.891',0.74
'0:13.895',0.17
'0:13.898',-0.28
'0:13.902',-0.64
'0:13.906',-1.11
'0:13.910',-1.64
'0:13.914',-1.99
'0:13.918',-2.24
'0:13.922',-2.41
'0:13.926',-2.5
'0:13.930',-2.88
'0:13.934',-3.09
'0:13.938',-3.12
'0:13.941',-2.02
'0:13.945',-0.21
'0:13.949',0.82
'0:13.953',3.43
'0:13.957',5.51
'0:13.961',6.46
'0:13.965',5.83
'0:13.969',3.56
'0:13.973',0.48
'0:13.977',-2.22
'0:13.980',-4.75
'0:13.984',-7.16
'0:13.988',-8.33
'0:13.992',-8.2
'0:13.996',-7.7
'0:14.000',-6.98
'0:14.004',-6.09
'0:14.008',-5.09
'0:14.012',-3.43
'0:14.016',-2.44
'0:14.020',-3.34
'0:14.023',-4.58
'0:14.027',-4.8
'0:14.031',-3.85
'0:14.035',-2.11
'0:14.039',-1.04
'0:14.043',-1.1
'0:14.047',-1.36
'0:14.051',-1.8
'0:14.055',-2.45
'0:14.059',-1.95
'0:14.063',-1.19
'0:14.066',-0.67
'0:14.070',0.31
'0:14.074',1.07
'0:14.078',2.02
'0:14.082',3.08
'0:14.086',2.86
'0:14.090',2.66
'0:14.094',2.73
'0:14.098',2.4
'0:14.102',2.07
'0:14.105',1.33
'0:14.109',0.24
'0:14.113',-0.77
'0:14.117',-1.07
'0:14.121',-0.52
'0:14.125',0.45
'0:14.129',0.51
'0:14.133',0.15
'0:14.137',0.39
'0:14.141',1.05
'0:14.145',3.2
'0:14.148',4.36
'0:14.152',1.68
'0:14.156',-1.07
'0:14.160',-2.16
'0:14.164',-1.94
'0:14.168',-1.31
'0:14.172',-0.63
'0:14.176',-0.07
'0:14.180',0.15
'0:14.184',0.08
'0:14.188',0.11
'0:14.191',0.27
'0:14.195',-0.02
'0:14.199',-0.54
'0:14.203',-0.69
'0:14.207',-0.53
'0:14.211',-0.33
'0:14.215',0.1
'0:14.219',0.62
'0:14.223',0.51
'0:14.227',-0.7
'0:14.230',-1.72
'0:14.234',-0.71
'0:14.238',1.09
'0:14.242',1.57
'0:14.246',1.25
'0:14.250',2.89
'0:14.254',5.38
'0:14.258',6.34
'0:14.262',4.66
'0:14.266',1.44
'0:14.270',-1.51
'0:14.273',-3.45
'0:14.277',-4.23
'0:14.281',-4.08
'0:14.285',-3.34
'0:14.289',-2.02
'0:14.293',-1.48
'0:14.297',-1.99
'0:14.301',-2.78
'0:14.305',-3.02
'0:14.309',-2.82
'0:14.313',-2.26
'0:14.316',-1.18
'0:14.320',-0.47
'0:14.324',-0.07
'0:14.328',0.04
'0:14.332',-0.23
'0:14.336',-0.12
'0:14.340',-0.12
'0:14.344',-0.28
'0:14.348',-0.14
'0:14.352',0.33
'0:14.355',0.5
'0:14.359',1.21
'0:14.363',2.2
'0:14.367',3.28
'0:14.371',3.73
'0:14.375',3.38
'0:14.379',3.18
'0:14.383',3.87
'0:14.387',4.41
'0:14.391',4.24
'0:14.395',4.47
'0:14.398',4.77
'0:14.402',0.51
'0:14.406',-2.27
'0:14.410',-1.57
'0:14.414',-0.81
'0:14.418',-0.34
'0:14.422',0.13
'0:14.426',0.82
'0:14.430',1.1
'0:14.434',0.78
'0:14.438',0.96
'0:14.441',1.39
'0:14.445',1.91
'0:14.449',1.96
'0:14.453',1.34
'0:14.457',1.23
'0:14.461',1.83
'0:14.465',2.26
'0:14.469',2.2
'0:14.473',1.87
'0:14.477',1.29
'0:14.480',0.62
'0:14.484',0.07
'0:14.488',-0.23
'0:14.492',-0.34
'0:14.496',-0.26
'0:14.500',-0.39
'0:14.504',-0.76
'0:14.508',-1.14
'0:14.512',-1.27
'0:14.516',-1.35
'0:14.520',-1.55
'0:14.523',-1.53
'0:14.527',-0.94
'0:14.531',-0.03
'0:14.535',0.98
'0:14.539',2.94
'0:14.543',4.73
'0:14.547',4.86
'0:14.551',3.52
'0:14.555',-0.16
'0:14.559',-3.27
'0:14.563',-4.13
'0:14.566',-4.63
'0:14.570',-4.92
'0:14.574',-3.92
'0:14.578',-2.72
'0:14.582',-2.34
'0:14.586',-2.25
'0:14.590',-2.15
'0:14.594',-1.76
'0:14.598',-1.44
'0:14.602',-1.69
'0:14.605',-1.51
'0:14.609',-0.96
'0:14.613',-0.86
'0:14.617',-0.38
'0:14.621',-0.41
'0:14.625',-0.08
'0:14.629',0.11
'0:14.633',0.17
'0:14.637',0.69
'0:14.641',1.11
'0:14.645',1.5
'0:14.648',1.89
'0:14.652',2.4
'0:14.656',2.82
'0:14.660',3
'0:14.664',2.95
'0:14.668',2.89
'0:14.672',3.02
'0:14.676',3.14
'0:14.680',3.41
'0:14.684',3.56
'0:14.688',3.33
'0:14.691',2.81
'0:14.695',2.32
'0:14.699',2.13
'0:14.703',1.8
'0:14.707',1.22
'0:14.711',0.62
'0:14.715',0.3
'0:14.719',-0.01
'0:14.723',-0.23
'0:14.727',-0.22
'0:14.730',0.06
'0:14.734',0.48
'0:14.738',1.04
'0:14.742',2.02
'0:14.746',1.85
'0:14.750',1.3
'0:14.754',1.52
'0:14.758',1.73
'0:14.762',1.19
'0:14.766',1.45
'0:14.770',3
'0:14.773',3.02
'0:14.777',1.48
'0:14.781',0.42
'0:14.785',-0.74
'0:14.789',-1.84
'0:14.793',-3.16
'0:14.797',-5.33
'0:14.801',-6.58
'0:14.805',-6.38
'0:14.809',-5.74
'0:14.813',-4.95
'0:14.816',-4.14
'0:14.820',-3.25
'0:14.824',-2.67
'0:14.828',-1.4
'0:14.832',0.75
'0:14.836',3.25
'0:14.840',5.31
'0:14.844',5.17
'0:14.848',2.27
'0:14.852',-1.11
'0:14.855',-3.49
'0:14.859',-4.19
'0:14.863',-3.78
'0:14.867',-5.09
'0:14.871',-7.26
'0:14.875',-8.36
'0:14.879',-8.04
'0:14.883',-6.63
'0:14.887',-4.68
'0:14.891',-2.74
'0:14.895',-2.09
'0:14.898',-2.56
'0:14.902',-2.73
'0:14.906',-2.64
'0:14.910',-2.38
'0:14.914',-1.66
'0:14.918',-1.12
'0:14.922',-1.41
'0:14.926',-1.94
'0:14.930',-1.93
'0:14.934',-1.07
'0:14.938',0.14
'0:14.941',0.52
'0:14.945',0.6
'0:14.949',0.35
'0:14.953',-0.52
'0:14.957',-0.93
'0:14.961',-0.22
'0:14.965',0.75
'0:14.969',1.45
'0:14.973',2.02
'0:14.977',2.78
'0:14.980',3.21
'0:14.984',3.27
'0:14.988',3.38
'0:14.992',3.74
'0:14.996',3.51
'0:15.000',2.81
'0:15.004',2.24
'0:15.008',1.76
'0:15.012',0.95
'0:15.016',0.84
'0:15.020',1.63
'0:15.023',2.05
'0:15.027',1.48
'0:15.031',1.4
'0:15.035',1.65
'0:15.039',1.81
'0:15.043',1.64
'0:15.047',1.41
'0:15.051',1.48
'0:15.055',1.63
'0:15.059',1.52
'0:15.063',1.03
'0:15.066',0.17
'0:15.070',-0.58
'0:15.074',-1.22
'0:15.078',-1.32
'0:15.082',-1.1
'0:15.086',-1.12
'0:15.090',-1.12
'0:15.094',-0.4
'0:15.098',0.77
'0:15.102',0.67
'0:15.105',-1.04
'0:15.109',-2.04
'0:15.113',-2.83
'0:15.117',-1.86
'0:15.121',1.43
'0:15.125',5.1
'0:15.129',7.76
'0:15.133',8.07
'0:15.137',5.16
'0:15.141',0.42
'0:15.145',-3.05
'0:15.148',-4.78
'0:15.152',-5.37
'0:15.156',-5.21
'0:15.160',-4.65
'0:15.164',-3.85
'0:15.168',-3.1
'0:15.172',-3.63
'0:15.176',-4.2
'0:15.180',-3.99
'0:15.184',-3.27
'0:15.188',-2.1
'0:15.191',-0.9
'0:15.195',0.1
'0:15.199',-0.43
'0:15.203',-1.22
'0:15.207',-1.55
'0:15.211',-1.56
'0:15.215',-1.42
'0:15.219',-0.64
'0:15.223',0.15
'0:15.227',0.79
'0:15.230',1.16
'0:15.234',1.26
'0:15.238',1.57
'0:15.242',1.91
'0:15.246',2.21
'0:15.250',2.57
'0:15.254',2.99
'0:15.258',3.43
'0:15.262',3.79
'0:15.266',3.97
'0:15.270',3.92
'0:15.273',3.53
'0:15.277',2.9
'0:15.281',2.38
'0:15.285',2.04
'0:15.289',1.79
'0:15.293',1.27
'0:15.297',0.51
'0:15.301',0.32
'0:15.305',0.47
'0:15.309',0.69
'0:15.313',0.57
'0:15.316',0.29
'0:15.320',0.03
'0:15.324',0.03
'0:15.328',0.05
'0:15.332',0.35
'0:15.336',0.86
'0:15.340',1.34
'0:15.344',1.23
'0:15.348',0.9
'0:15.352',-0.01
'0:15.355',-0.58
'0:15.359',-0.58
'0:15.363',-0.51
'0:15.367',-0.41
'0:15.371',-0.71
'0:15.375',-1.45
'0:15.379',-2.08
'0:15.383',-2.18
'0:15.387',-1.74
'0:15.391',-1.55
'0:15.395',-1.58
'0:15.398',-1.58
'0:15.402',-1.38
'0:15.406',-0.48
'0:15.410',1.8
'0:15.414',5.09
'0:15.418',8.05
'0:15.422',7.84
'0:15.426',4.1
'0:15.430',-0.83
'0:15.434',-4.18
'0:15.438',-5.34
'0:15.441',-5.31
'0:15.445',-4.47
'0:15.449',-3.37
'0:15.453',-2.65
'0:15.457',-2.44
'0:15.461',-2.47
'0:15.465',-2.53
'0:15.469',-2.58
'0:15.473',-2.37
'0:15.477',-2.36
'0:15.480',-2.51
'0:15.484',-2.4
'0:15.488',-1.92
'0:15.492',-1.34
'0:15.496',-0.98
'0:15.500',-0.87
'0:15.504',-0.96
'0:15.508',-0.72
'0:15.512',-0.04
'0:15.516',0.55
'0:15.520',0.89
'0:15.523',1.06
'0:15.527',1.34
'0:15.531',2.24
'0:15.535',2.89
'0:15.539',2.84
'0:15.543',3.38
'0:15.547',4.57
'0:15.551',4.95
'0:15.555',4.65
'0:15.559',4.49
'0:15.563',4.7
'0:15.566',4.42
'0:15.570',2.93
'0:15.574',2.33
'0:15.578',3.52
'0:15.582',3.25
'0:15.586',1.89
'0:15.590',0.34
'0:15.594',-0.09
'0:15.598',0.14
'0:15.602',0.6
'0:15.605',-0.27
'0:15.609',-1.9
'0:15.613',-3.46
'0:15.617',-3.24
'0:15.621',-1.91
'0:15.625',-0.87
'0:15.629',-0.82
'0:15.633',-0.7
'0:15.637',-0.93
'0:15.641',-1.43
'0:15.645',-1.58
'0:15.648',-1.54
'0:15.652',-0.91
'0:15.656',0.01
'0:15.660',-1.03
'0:15.664',-3.21
'0:15.668',-5.15
'0:15.672',-6.45
'0:15.676',-6.66
'0:15.680',-5.47
'0:15.684',-4.37
'0:15.688',-3.58
'0:15.691',-1.86
'0:15.695',0.1
'0:15.699',0.41
'0:15.703',-0.24
'0:15.707',1.01
'0:15.711',2.69
'0:15.715',2.73
'0:15.719',1.46
'0:15.723',0.31
'0:15.727',-0.46
'0:15.730',-1.05
'0:15.734',-1.61
'0:15.738',-2.65
'0:15.742',-4.54
'0:15.746',-5.96
'0:15.750',-6.38
'0:15.754',-6.31
'0:15.758',-6
'0:15.762',-4.42
'0:15.766',-2.5
'0:15.770',-0.52
'0:15.773',0.67
'0:15.777',-0.18
'0:15.781',-2.02
'0:15.785',-2.94
'0:15.789',-2.37
'0:15.793',-1.48
'0:15.797',-1.01
'0:15.801',-0.62
'0:15.805',-0.23
'0:15.809',0.23
'0:15.813',0.67
'0:15.816',0.27
'0:15.820',0.63
'0:15.824',1.88
'0:15.828',2.97
'0:15.832',3.36
'0:15.836',3.64
'0:15.840',4.1
'0:15.844',4.76
'0:15.848',5.45
'0:15.852',6.81
'0:15.855',8.71
'0:15.859',8.05
'0:15.863',5.05
'0:15.867',2.86
'0:15.871',1.97
'0:15.875',1.85
'0:15.879',1.28
'0:15.883',0.46
'0:15.887',0.22
'0:15.891',0.5
'0:15.895',0.64
'0:15.898',0.4
'0:15.902',0.55
'0:15.906',0.96
'0:15.910',1.17
'0:15.914',0.82
'0:15.918',0.29
'0:15.922',0.29
'0:15.926',0.33
'0:15.930',0.09
'0:15.934',-0.19
'0:15.938',0.01
'0:15.941',0.34
'0:15.945',0.29
'0:15.949',-0.43
'0:15.953',-1.1
'0:15.957',-1.23
'0:15.961',-0.96
'0:15.965',-1.04
'0:15.969',-1.79
'0:15.973',-2.79
'0:15.977',-2.93
'0:15.980',-2.02
'0:15.984',-0.41
'0:15.988',1.41
'0:15.992',3.11
'0:15.996',5.06
'0:16.000',6.93
'0:16.004',6.68
'0:16.008',3.96
'0:16.012',0.07
'0:16.016',-3.03
'0:16.020',-4.67
'0:16.023',-5.06
'0:16.027',-4.67
'0:16.031',-4.39
'0:16.035',-4.17
'0:16.039',-4.05
'0:16.043',-3.84
'0:16.047',-3.63
'0:16.051',-3.51
'0:16.055',-3.11
'0:16.059',-2.3
'0:16.063',-1.44
'0:16.066',-0.87
'0:16.070',-0.59
'0:16.074',-0.6
'0:16.078',-1.01
'0:16.082',-1.17
'0:16.086',-0.89
'0:16.090',-0.64
'0:16.094',-0.53
'0:16.098',-0.46
'0:16.102',-0.13
'0:16.105',0.42
'0:16.109',0.91
'0:16.113',1.47
'0:16.117',2.01
'0:16.121',2.36
'0:16.125',2.52
'0:16.129',2.95
'0:16.133',3.56
'0:16.137',3.66
'0:16.141',3.25
'0:16.145',2.82
'0:16.148',2.31
'0:16.152',2.08
'0:16.156',1.93
'0:16.160',1.69
'0:16.164',1.37
'0:16.168',1.16
'0:16.172',0.87
'0:16.176',0.2
'0:16.180',-0.35
'0:16.184',-0.58
'0:16.188',-0.73
'0:16.191',-0.48
'0:16.195',-0.31
'0:16.199',-0.43
'0:16.203',-0.46
'0:16.207',-0.28
'0:16.211',0.13
'0:16.215',0.35
'0:16.219',0.42
'0:16.223',0.54
'0:16.227',0.54
'0:16.230',0.19
'0:16.234',-0.28
'0:16.238',-0.6
'0:16.242',-0.89
'0:16.246',-1.28
'0:16.250',-1.74
'0:16.254',-2.29
'0:16.258',-2.79
'0:16.262',-2.8
'0:16.266',-2.57
'0:16.270',-1.93
'0:16.273',-0.85
'0:16.277',0.74
'0:16.281',2.98
'0:16.285',5.66
'0:16.289',8.17
'0:16.293',8.46
'0:16.297',4.92
'0:16.301',-0.08
'0:16.305',-3.81
'0:16.309',-5.8
'0:16.313',-6.4
'0:16.316',-6.08
'0:16.320',-5.39
'0:16.324',-4.47
'0:16.328',-3.77
'0:16.332',-3.18
'0:16.336',-2.92
'0:16.340',-2.88
'0:16.344',-2.62
'0:16.348',-2.07
'0:16.352',-1.41
'0:16.355',-1.05
'0:16.359',-0.79
'0:16.363',-0.64
'0:16.367',-0.3
'0:16.371',-0.12
'0:16.375',0.12
'0:16.379',0.21
'0:16.383',0.67
'0:16.387',1.15
'0:16.391',2.2
'0:16.395',3.65
'0:16.398',3.47
'0:16.402',2.7
'0:16.406',2.72
'0:16.410',3.06
'0:16.414',3.18
'0:16.418',2.72
'0:16.422',2.88
'0:16.426',3.49
'0:16.430',3.88
'0:16.434',3.75
'0:16.438',2.49
'0:16.441',1.17
'0:16.445',-0.04
'0:16.449',-0.08
'0:16.453',0.24
'0:16.457',0.35
'0:16.461',-0.25
'0:16.465',-2.06
'0:16.469',-2.21
'0:16.473',-0.73
'0:16.477',1.02
'0:16.480',1.72
'0:16.484',0.72
'0:16.488',-0.53
'0:16.492',-1.91
'0:16.496',-2.49
'0:16.500',-2.05
'0:16.504',-1.22
'0:16.508',-0.2
'0:16.512',0.34
'0:16.516',0.28
'0:16.520',-0.1
'0:16.523',-0.75
'0:16.527',-1.17
'0:16.531',-1.06
'0:16.535',-0.36
'0:16.539',-0.34
'0:16.543',-1.58
'0:16.547',-3.05
'0:16.551',-3.65
'0:16.555',-3.75
'0:16.559',-3.78
'0:16.563',-3.36
'0:16.566',-2.2
'0:16.570',-0.77
'0:16.574',0.89
'0:16.578',2.67
'0:16.582',4.46
'0:16.586',4.52
'0:16.590',2.53
'0:16.594',-0.06
'0:16.598',-1.53
'0:16.602',-1.87
'0:16.605',-2.39
'0:16.609',-2.89
'0:16.613',-3.13
'0:16.617',-3.71
'0:16.621',-3.33
'0:16.625',-2.27
'0:16.629',-1.67
'0:16.633',-1.29
'0:16.637',-0.82
'0:16.641',-0.52
'0:16.645',-0.62
'0:16.648',-0.83
'0:16.652',-0.57
'0:16.656',-0.16
'0:16.660',0
'0:16.664',-0.04
'0:16.668',-0.29
'0:16.672',-0.33
'0:16.676',-0.37
'0:16.680',0.4
'0:16.684',1.78
'0:16.688',2.97
'0:16.691',3.49
'0:16.695',3.39
'0:16.699',3.27
'0:16.703',3.13
'0:16.707',3.43
'0:16.711',4.39
'0:16.715',4.36
'0:16.719',3.43
'0:16.723',2.46
'0:16.727',2.2
'0:16.730',2.91
'0:16.734',2.57
'0:16.738',2.76
'0:16.742',3
'0:16.746',2.82
'0:16.750',1.46
'0:16.754',0.63
'0:16.758',0.86
'0:16.762',1.52
'0:16.766',1.71
'0:16.770',0.88
'0:16.773',0.03
'0:16.777',-0.23
'0:16.781',0
'0:16.785',-0.04
'0:16.789',0.16
'0:16.793',0.98
'0:16.797',0.97
'0:16.801',0.23
'0:16.805',-0.61
'0:16.809',-1.05
'0:16.813',-1.79
'0:16.816',-1.78
'0:16.820',-1.46
'0:16.824',-0.73
'0:16.828',-0.39
'0:16.832',-0.74
'0:16.836',-1.13
'0:16.840',-1.29
'0:16.844',-1.51
'0:16.848',-1.65
'0:16.852',-1.29
'0:16.855',-0.41
'0:16.859',0.65
'0:16.863',2.23
'0:16.867',4.41
'0:16.871',6.31
'0:16.875',6.35
'0:16.879',4.08
'0:16.883',0.77
'0:16.887',-2.05
'0:16.891',-3.92
'0:16.895',-4.69
'0:16.898',-4.36
'0:16.902',-3.55
'0:16.906',-3.07
'0:16.910',-3.09
'0:16.914',-3.28
'0:16.918',-3.46
'0:16.922',-3.56
'0:16.926',-3.7
'0:16.930',-3.84
'0:16.934',-3.78
'0:16.938',-3.44
'0:16.941',-2.9
'0:16.945',-2.37
'0:16.949',-2.02
'0:16.953',-1.72
'0:16.957',-1.45
'0:16.961',-1.41
'0:16.965',-1.42
'0:16.969',-1.16
'0:16.973',-0.26
'0:16.977',0.77
'0:16.980',1.63
'0:16.984',1.98
'0:16.988',2
'0:16.992',1.94
'0:16.996',2.12
'0:17.000',2.47
'0:17.004',2.77
'0:17.008',3.11
'0:17.012',3.29
'0:17.016',3.11
'0:17.020',2.72
'0:17.023',2.4
'0:17.027',2.18
'0:17.031',1.84
'0:17.035',1.26
'0:17.039',0.82
'0:17.043',0.39
'0:17.047',0.11
'0:17.051',-0.02
'0:17.055',0.14
'0:17.059',0.29
'0:17.063',0.52
'0:17.066',0.84
'0:17.070',1
'0:17.074',0.81
'0:17.078',0.66
'0:17.082',0.71
'0:17.086',0.47
'0:17.090',0.09
'0:17.094',-0.23
'0:17.098',-0.46
'0:17.102',-0.6
'0:17.105',-0.89
'0:17.109',-1.35
'0:17.113',-1.75
'0:17.117',-1.92
'0:17.121',-1.94
'0:17.125',-2.11
'0:17.129',-2.19
'0:17.133',-2.33
'0:17.137',-2.78
'0:17.141',-2.85
'0:17.145',-2.19
'0:17.148',-1.01
'0:17.152',0.43
'0:17.156',2.73
'0:17.160',5.72
'0:17.164',7.86
'0:17.168',7.48
'0:17.172',4.82
'0:17.176',1.36
'0:17.180',-2.05
'0:17.184',-5.27
'0:17.188',-6.61
'0:17.191',-6.6
'0:17.195',-6.22
'0:17.199',-5.92
'0:17.203',-5.64
'0:17.207',-5.33
'0:17.211',-5.08
'0:17.215',-5.12
'0:17.219',-4.8
'0:17.223',-3.53
'0:17.227',-1.92
'0:17.230',-1.03
'0:17.234',-1.22
'0:17.238',-1.12
'0:17.242',-1.32
'0:17.246',-1.64
'0:17.250',-0.57
'0:17.254',1.46
'0:17.258',2.38
'0:17.262',0.08
'0:17.266',-2.37
'0:17.270',-3.73
'0:17.273',-3.58
'0:17.277',-2.1
'0:17.281',-0.56
'0:17.285',0.6
'0:17.289',1.5
'0:17.293',2.03
'0:17.297',2.53
'0:17.301',3.11
'0:17.305',3.09
'0:17.309',2.53
'0:17.313',2.49
'0:17.316',4.18
'0:17.320',3.96
'0:17.324',1.37
'0:17.328',0.13
'0:17.332',-0.07
'0:17.336',0.42
'0:17.340',0.46
'0:17.344',-0.63
'0:17.348',-1.85
'0:17.352',-2.47
'0:17.355',-2.44
'0:17.359',-1.9
'0:17.363',-0.77
'0:17.367',0.45
'0:17.371',1.27
'0:17.375',1.45
'0:17.379',1.31
'0:17.383',1.25
'0:17.387',1.45
'0:17.391',1.81
'0:17.395',1.84
'0:17.398',0.8
'0:17.402',-0.47
'0:17.406',-1.38
'0:17.410',-1.91
'0:17.414',-1.54
'0:17.418',0.07
'0:17.422',0.16
'0:17.426',-1.73
'0:17.430',-3.02
'0:17.434',-3.04
'0:17.438',-2.34
'0:17.441',-1.31
'0:17.445',0.87
'0:17.449',3.91
'0:17.453',6.58
'0:17.457',7.3
'0:17.461',5.69
'0:17.465',2.63
'0:17.469',-0.47
'0:17.473',-1.46
'0:17.477',-1.62
'0:17.480',-3.5
'0:17.484',-4.5
'0:17.488',-3.9
'0:17.492',-3.2
'0:17.496',-3.14
'0:17.500',-3.45
'0:17.504',-2.81
'0:17.508',-1.08
'0:17.512',0.43
'0:17.516',0.49
'0:17.520',-0.5
'0:17.523',-1.54
'0:17.527',-0.87
'0:17.531',0.35
'0:17.535',0.89
'0:17.539',0.53
'0:17.543',0.47
'0:17.547',0.46
'0:17.551',0.7
'0:17.555',1.23
'0:17.559',1.11
'0:17.563',1.53
'0:17.566',2.76
'0:17.570',4.04
'0:17.574',4.71
'0:17.578',4.89
'0:17.582',4.88
'0:17.586',4.62
'0:17.590',3.86
'0:17.594',3.11
'0:17.598',2.79
'0:17.602',2.94
'0:17.605',3.29
'0:17.609',2.64
'0:17.613',1.73
'0:17.617',1.07
'0:17.621',0.53
'0:17.625',0.23
'0:17.629',0.45
'0:17.633',0.67
'0:17.637',0.58
'0:17.641',0.71
'0:17.645',0.73
'0:17.648',1.32
'0:17.652',1.66
'0:17.656',1.57
'0:17.660',1.14
'0:17.664',0.91
'0:17.668',0.79
'0:17.672',0.21
'0:17.676',-0.1
'0:17.680',-0.34
'0:17.684',-0.29
'0:17.688',-0.51
'0:17.691',-0.75
'0:17.695',-1.13
'0:17.699',-1.75
'0:17.703',-1.99
'0:17.707',-1.9
'0:17.711',-1.57
'0:17.715',-1.43
'0:17.719',-1.71
'0:17.723',-1.78
'0:17.727',-1.38
'0:17.730',-0.67
'0:17.734',0.63
'0:17.738',2.89
'0:17.742',4.76
'0:17.746',4.8
'0:17.750',2.49
'0:17.754',-0.6
'0:17.758',-2.9
'0:17.762',-4.19
'0:17.766',-4.82
'0:17.770',-5.28
'0:17.773',-5.12
'0:17.777',-5.11
'0:17.781',-3.97
'0:17.785',-2.67
'0:17.789',-1.96
'0:17.793',-1.83
'0:17.797',-1.93
'0:17.801',-1.97
'0:17.805',-1.79
'0:17.809',-1.49
'0:17.813',-1.12
'0:17.816',-0.53
'0:17.820',-0.29
'0:17.824',-0.07
'0:17.828',0.64
'0:17.832',1.28
'0:17.836',1.58
'0:17.840',1.73
'0:17.844',1.85
'0:17.848',1.92
'0:17.852',2
'0:17.855',2.37
'0:17.859',2.76
'0:17.863',3.09
'0:17.867',3.33
'0:17.871',3.45
'0:17.875',3.58
'0:17.879',3.75
'0:17.883',3.9
'0:17.887',3.87
'0:17.891',3.38
'0:17.895',2.92
'0:17.898',2.47
'0:17.902',2.06
'0:17.906',1.63
'0:17.910',0.81
'0:17.914',0.23
'0:17.918',0.25
'0:17.922',1.14
'0:17.926',1.12
'0:17.930',0.25
'0:17.934',0.33
'0:17.938',0.6
'0:17.941',0.67
'0:17.945',0.85
'0:17.949',1.23
'0:17.953',1.67
'0:17.957',1.9
'0:17.961',1.72
'0:17.965',1.06
'0:17.969',-0.25
'0:17.973',-0.94
'0:17.977',-1.02
'0:17.980',-1.19
'0:17.984',-1.5
'0:17.988',-1.96
'0:17.992',-2.03
'0:17.996',-1.92
'0:18.000',-2.34
'0:18.004',-3.26
'0:18.008',-3.95
'0:18.012',-4.52
'0:18.016',-4.65
'0:18.020',-4.51
'0:18.023',-3.3
'0:18.027',-0.68
'0:18.031',2.3
'0:18.035',5.02
'0:18.039',5.35
'0:18.043',2.58
'0:18.047',-1.63
'0:18.051',-5.71
'0:18.055',-8.78
'0:18.059',-8.69
'0:18.063',-7.91
'0:18.066',-6.9
'0:18.070',-5.73
'0:18.074',-8.35
'0:18.078',-8.03
'0:18.082',-6.09
'0:18.086',-4.53
'0:18.090',-3.44
'0:18.094',-3.01
'0:18.098',-2.76
'0:18.102',-2.68
'0:18.105',-2.87
'0:18.109',-2.67
'0:18.113',-2.19
'0:18.117',-1.25
'0:18.121',-0.71
'0:18.125',-0.56
'0:18.129',-0.31
'0:18.133',-0.01
'0:18.137',-0.09
'0:18.141',-0.02
'0:18.145',0.04
'0:18.148',1.07
'0:18.152',3.23
'0:18.156',5.21
'0:18.160',4.93
'0:18.164',4.06
'0:18.168',4.83
'0:18.172',5.84
'0:18.176',4.67
'0:18.180',2.95
'0:18.184',2.14
'0:18.188',1.88
'0:18.191',1.86
'0:18.195',1.7
'0:18.199',1.45
'0:18.203',1.83
'0:18.207',2.3
'0:18.211',2.3
'0:18.215',1.99
'0:18.219',1.74
'0:18.223',1.71
'0:18.227',1.8
'0:18.230',2.04
'0:18.234',2.15
'0:18.238',1.87
'0:18.242',1.62
'0:18.246',1.33
'0:18.250',0.99
'0:18.254',0.48
'0:18.258',0.42
'0:18.262',1.05
'0:18.266',1.35
'0:18.270',0.21
'0:18.273',-1.28
'0:18.277',-1.71
'0:18.281',-1.75
'0:18.285',-1.5
'0:18.289',-0.24
'0:18.293',0.4
'0:18.297',-0.79
'0:18.301',-2.04
'0:18.305',-2.5
'0:18.309',-2.25
'0:18.313',-1.41
'0:18.316',0.9
'0:18.320',4.3
'0:18.324',7.61
'0:18.328',8.58
'0:18.332',5.91
'0:18.336',1.4
'0:18.340',-2.19
'0:18.344',-4.68
'0:18.348',-6.12
'0:18.352',-6.86
'0:18.355',-6.81
'0:18.359',-5.77
'0:18.363',-4.59
'0:18.367',-3.64
'0:18.371',-3.01
'0:18.375',-2.76
'0:18.379',-2.72
'0:18.383',-2.73
'0:18.387',-2.59
'0:18.391',-2.35
'0:18.395',-2.22
'0:18.398',-2.38
'0:18.402',-1.95
'0:18.406',-1
'0:18.410',-0.42
'0:18.414',-0.4
'0:18.418',-0.56
'0:18.422',0.18
'0:18.426',1.28
'0:18.430',1.96
'0:18.434',2.27
'0:18.438',2.27
'0:18.441',2.53
'0:18.445',3.18
'0:18.449',3.86
'0:18.453',4.11
'0:18.457',4.15
'0:18.461',3.77
'0:18.465',3.38
'0:18.469',3.11
'0:18.473',2.86
'0:18.477',2.64
'0:18.480',2.33
'0:18.484',1.85
'0:18.488',1.38
'0:18.492',1.1
'0:18.496',0.98
'0:18.500',0.75
'0:18.504',0.33
'0:18.508',-0.01
'0:18.512',-0.12
'0:18.516',0.19
'0:18.520',0.6
'0:18.523',1.06
'0:18.527',1.36
'0:18.531',1.34
'0:18.535',1.06
'0:18.539',0.9
'0:18.543',0.85
'0:18.547',0.69
'0:18.551',0.33
'0:18.555',-0.03
'0:18.559',-0.47
'0:18.563',-1
'0:18.566',-1.37
'0:18.570',-1.96
'0:18.574',-2.76
'0:18.578',-2.88
'0:18.582',-2.52
'0:18.586',-2.15
'0:18.590',-2.09
'0:18.594',-1.94
'0:18.598',-1.43
'0:18.602',-0.38
'0:18.605',1.42
'0:18.609',4.09
'0:18.613',6.69
'0:18.617',6.7
'0:18.621',3.43
'0:18.625',-0.73
'0:18.629',-3.7
'0:18.633',-5.2
'0:18.637',-5.6
'0:18.641',-5.12
'0:18.645',-4.53
'0:18.648',-3.98
'0:18.652',-4.12
'0:18.656',-4.45
'0:18.660',-4.38
'0:18.664',-3.34
'0:18.668',-2.51
'0:18.672',-2.65
'0:18.676',-2.26
'0:18.680',-0.92
'0:18.684',-0.18
'0:18.688',-0.26
'0:18.691',-0.44
'0:18.695',-0.27
'0:18.699',-0.15
'0:18.703',0.09
'0:18.707',0.42
'0:18.711',0.78
'0:18.715',0.67
'0:18.719',1.14
'0:18.723',1.32
'0:18.727',0.8
'0:18.730',1.54
'0:18.734',3.08
'0:18.738',4.1
'0:18.742',4.59
'0:18.746',4.8
'0:18.750',4.97
'0:18.754',5.16
'0:18.758',5.29
'0:18.762',3.89
'0:18.766',1.96
'0:18.770',1.09
'0:18.773',1.01
'0:18.777',0.73
'0:18.781',1.8
'0:18.785',3.47
'0:18.789',2.96
'0:18.793',0.76
'0:18.797',-1.22
'0:18.801',-2.45
'0:18.805',-2.61
'0:18.809',-1.71
'0:18.813',-0.94
'0:18.816',-1.01
'0:18.820',-0.89
'0:18.824',-0.35
'0:18.828',-0.66
'0:18.832',-1.46
'0:18.836',-1.65
'0:18.840',-1.93
'0:18.844',-2.89
'0:18.848',-3.22
'0:18.852',-2.43
'0:18.855',-2.19
'0:18.859',-2.81
'0:18.863',-3.03
'0:18.867',-2.34
'0:18.871',-2.03
'0:18.875',-1.97
'0:18.879',-2.08
'0:18.883',-2.47
'0:18.887',-2.51
'0:18.891',-1.32
'0:18.895',0.17
'0:18.898',2.19
'0:18.902',5.22
'0:18.906',6.64
'0:18.910',4.29
'0:18.914',0.03
'0:18.918',-2.93
'0:18.922',-3.77
'0:18.926',-3.04
'0:18.930',-2.46
'0:18.934',-3.01
'0:18.938',-3.78
'0:18.941',-3.81
'0:18.945',-3.47
'0:18.949',-2.68
'0:18.953',-2.02
'0:18.957',-1.43
'0:18.961',-0.89
'0:18.965',-0.88
'0:18.969',-1.72
'0:18.973',-0.8
'0:18.977',1.82
'0:18.980',2.71
'0:18.984',1.73
'0:18.988',0
'0:18.992',-1.52
'0:18.996',-1.49
'0:19.000',-0.42
'0:19.004',0.75
'0:19.008',1.2
'0:19.012',1.26
'0:19.016',1.73
'0:19.020',2.6
'0:19.023',3.48
'0:19.027',4.18
'0:19.031',4.83
'0:19.035',5.18
'0:19.039',5.36
'0:19.043',5.73
'0:19.047',6.1
'0:19.051',5.19
'0:19.055',3.65
'0:19.059',2.68
'0:19.063',2.21
'0:19.066',1.58
'0:19.070',1.29
'0:19.074',1.38
'0:19.078',1.59
'0:19.082',1.14
'0:19.086',0
'0:19.090',-1.39
'0:19.094',-2.11
'0:19.098',-1.73
'0:19.102',-1.01
'0:19.105',-0.64
'0:19.109',-0.48
'0:19.113',-0.24
'0:19.117',-0.13
'0:19.121',-0.18
'0:19.125',-0.42
'0:19.129',-0.51
'0:19.133',-0.62
'0:19.137',-0.93
'0:19.141',-1.39
'0:19.145',-1.92
'0:19.148',-2.24
'0:19.152',-2.03
'0:19.156',-1.68
'0:19.160',-1.69
'0:19.164',-2.54
'0:19.168',-3.23
'0:19.172',-3.34
'0:19.176',-2.89
'0:19.180',-2.17
'0:19.184',-0.61
'0:19.188',2.21
'0:19.191',5.18
'0:19.195',6.41
'0:19.199',4.74
'0:19.203',1.11
'0:19.207',-2.5
'0:19.211',-4.84
'0:19.215',-5.85
'0:19.219',-5.88
'0:19.223',-5.5
'0:19.227',-4.82
'0:19.230',-3.99
'0:19.234',-3.52
'0:19.238',-3.29
'0:19.242',-3.33
'0:19.246',-3.41
'0:19.250',-3.05
'0:19.254',-2.36
'0:19.258',-1.48
'0:19.262',-0.98
'0:19.266',-0.94
'0:19.270',-0.93
'0:19.273',-0.9
'0:19.277',-0.9
'0:19.281',-1.02
'0:19.285',-1.02
'0:19.289',-0.85
'0:19.293',-0.24
'0:19.297',0.27
'0:19.301',0.58
'0:19.305',1.2
'0:19.309',2.17
'0:19.313',3.14
'0:19.316',3.81
'0:19.320',4.02
'0:19.324',4.14
'0:19.328',3.92
'0:19.332',3.47
'0:19.336',3.38
'0:19.340',3.22
'0:19.344',2.81
'0:19.348',1.93
'0:19.352',1.05
'0:19.355',0.37
'0:19.359',0.03
'0:19.363',0.05
'0:19.367',-0.02
'0:19.371',-0.19
'0:19.375',-0.24
'0:19.379',-0.24
'0:19.383',-0.15
'0:19.387',0.09
'0:19.391',0.35
'0:19.395',0.25
'0:19.398',0.03
'0:19.402',0.17
'0:19.406',0.4
'0:19.410',0.3
'0:19.414',0.06
'0:19.418',-0.2
'0:19.422',-0.53
'0:19.426',-0.81
'0:19.430',-1.08
'0:19.434',-1.28
'0:19.438',-1.53
'0:19.441',-1.62
'0:19.445',-1.68
'0:19.449',-1.68
'0:19.453',-1.77
'0:19.457',-1.85
'0:19.461',-1.8
'0:19.465',-1.31
'0:19.469',-0.47
'0:19.473',1.48
'0:19.477',4.53
'0:19.480',7.61
'0:19.484',9.48
'0:19.488',7.9
'0:19.492',3.5
'0:19.496',-0.8
'0:19.500',-3.65
'0:19.504',-5.39
'0:19.508',-5.82
'0:19.512',-5.22
'0:19.516',-4.19
'0:19.520',-3.12
'0:19.523',-2.51
'0:19.527',-2.55
