'0:00.000',1.74
'0:00.004',1.54
'0:00.008',1.4
'0:00.012',1.27
'0:00.016',1.16
'0:00.020',0.98
'0:00.023',0.65
'0:00.027',0.4
'0:00.031',0.37
'0:00.035',0.44
'0:00.039',0.56
'0:00.043',0.73
'0:00.047',1.09
'0:00.051',1.36
'0:00.055',1.43
'0:00.059',1.49
'0:00.063',1.49
'0:00.066',1.56
'0:00.070',1.5
'0:00.074',1.2
'0:00.078',0.81
'0:00.082',0.58
'0:00.086',0.59
'0:00.090',0.56
'0:00.094',0.4
'0:00.098',0.18
'0:00.102',-0.04
'0:00.105',-0.24
'0:00.109',-0.36
'0:00.113',-0.5
'0:00.117',-0.67
'0:00.121',-0.96
'0:00.125',-1.26
'0:00.129',-1.26
'0:00.133',-0.91
'0:00.137',0.13
'0:00.141',1.8
'0:00.145',4.08
'0:00.148',6.68
'0:00.152',8.38
'0:00.156',7.67
'0:00.160',4.93
'0:00.164',1.56
'0:00.168',-0.99
'0:00.172',-2.5
'0:00.176',-3.15
'0:00.180',-3.24
'0:00.184',-3.13
'0:00.188',-2.9
'0:00.191',-2.58
'0:00.195',-2.28
'0:00.199',-1.93
'0:00.203',-1.57
'0:00.207',-1.32
'0:00.211',-1.21
'0:00.215',-1.2
'0:00.219',-1.05
'0:00.223',-0.81
'0:00.227',-0.37
'0:00.230',-0.01
'0:00.234',0.23
'0:00.238',0.68
'0:00.242',1.07
'0:00.246',1.26
'0:00.250',1.74
'0:00.254',2.28
'0:00.258',2.56
'0:00.262',2.73
'0:00.266',2.9
'0:00.270',2.76
'0:00.273',2.29
'0:00.277',1.64
'0:00.281',1.18
'0:00.285',0.87
'0:00.289',0.82
'0:00.293',1.25
'0:00.297',2.13
'0:00.301',2.87
'0:00.305',2.99
'0:00.309',2.97
'0:00.313',3.66
'0:00.316',4.38
'0:00.320',3.81
'0:00.324',2.59
'0:00.328',1.35
'0:00.332',0.22
'0:00.336',-0.29
'0:00.340',-0.1
'0:00.344',0.22
'0:00.348',0.06
'0:00.352',-0.05
'0:00.355',0.19
'0:00.359',0.24
'0:00.363',0.72
'0:00.367',1.52
'0:00.371',1.67
'0:00.375',1.39
'0:00.379',1.81
'0:00.383',2.24
'0:00.387',1.78
'0:00.391',1.26
'0:00.395',0.89
'0:00.398',0.47
'0:00.402',0.29
'0:00.406',0.6
'0:00.410',0.74
'0:00.414',-0.4
'0:00.418',-1.82
'0:00.422',-1.79
'0:00.426',-0.36
'0:00.430',0.65
'0:00.434',0.04
'0:00.438',-0.95
'0:00.441',-1.44
'0:00.445',-1.27
'0:00.449',-1.51
'0:00.453',-2.42
'0:00.457',-2.85
'0:00.461',-1.8
'0:00.465',0.93
'0:00.469',4.39
'0:00.473',7.2
'0:00.477',7.48
'0:00.480',5.16
'0:00.484',1.92
'0:00.488',-0.72
'0:00.492',-2.47
'0:00.496',-3.65
'0:00.500',-4.17
'0:00.504',-4.14
'0:00.508',-3.81
'0:00.512',-3.61
'0:00.516',-3.49
'0:00.520',-3.29
'0:00.523',-2.91
'0:00.527',-2.16
'0:00.531',-1.51
'0:00.535',-1.42
'0:00.539',-0.52
'0:00.543',1.74
'0:00.547',2.42
'0:00.551',-0.25
'0:00.555',-3.2
'0:00.559',-4.35
'0:00.563',-4.13
'0:00.566',-3.15
'0:00.570',-2.24
'0:00.574',-1.69
'0:00.578',-1.14
'0:00.582',-0.6
'0:00.586',-0.25
'0:00.590',0.07
'0:00.594',0.45
'0:00.598',0.93
'0:00.602',1.34
'0:00.605',1.47
'0:00.609',1.65
'0:00.613',1.89
'0:00.617',2.18
'0:00.621',2.48
'0:00.625',2.58
'0:00.629',2.57
'0:00.633',2.51
'0:00.637',2.49
'0:00.641',2.35
'0:00.645',2.08
'0:00.648',1.77
'0:00.652',1.45
'0:00.656',1.27
'0:00.660',1.05
'0:00.664',0.85
'0:00.668',0.78
'0:00.672',0.64
'0:00.676',0.56
'0:00.680',0.49
'0:00.684',0.41
'0:00.688',0.48
'0:00.691',0.74
'0:00.695',0.93
'0:00.699',0.67
'0:00.703',0.27
'0:00.707',-0.08
'0:00.711',-0.19
'0:00.715',-0.19
'0:00.719',-0.27
'0:00.723',-0.37
'0:00.727',-0.56
'0:00.730',-0.82
'0:00.734',-1.06
'0:00.738',-1.23
'0:00.742',-1.31
'0:00.746',-1.25
'0:00.750',-1.29
'0:00.754',-1.26
'0:00.758',-1.38
'0:00.762',-1.74
'0:00.766',-2.04
'0:00.770',-1.85
'0:00.773',-1.36
'0:00.777',-0.35
'0:00.781',1.26
'0:00.785',3.45
'0:00.789',5.69
'0:00.793',6.7
'0:00.797',5.43
'0:00.801',2.5
'0:00.805',-0.6
'0:00.809',-2.67
'0:00.813',-3.9
'0:00.816',-4.35
'0:00.820',-4.26
'0:00.824',-3.96
'0:00.828',-3.78
'0:00.832',-3.59
'0:00.836',-3.52
'0:00.840',-3.36
'0:00.844',-3.01
'0:00.848',-2.62
'0:00.852',-2.28
'0:00.855',-1.96
'0:00.859',-1.76
'0:00.863',-1.72
'0:00.867',-1.58
'0:00.871',-1.36
'0:00.875',-1.29
'0:00.879',-1.32
'0:00.883',-1.24
'0:00.887',-1.1
'0:00.891',-0.97
'0:00.895',-0.79
'0:00.898',-0.51
'0:00.902',-0.22
'0:00.906',0.19
'0:00.910',0.51
'0:00.914',0.75
'0:00.918',1.23
'0:00.922',1.75
'0:00.926',2.23
'0:00.930',2.62
'0:00.934',2.8
'0:00.938',2.87
'0:00.941',2.81
'0:00.945',2.78
'0:00.949',2.95
'0:00.953',3.17
'0:00.957',2.82
'0:00.961',2.1
'0:00.965',1.36
'0:00.969',0.65
'0:00.973',0.48
'0:00.977',0.56
'0:00.980',0.33
'0:00.984',-0.22
'0:00.988',-0.43
'0:00.992',-0.15
'0:00.996',-0.25
'0:01.000',-0.29
'0:01.004',0.28
'0:01.008',0.76
'0:01.012',0.6
'0:01.016',-0.19
'0:01.020',-0.85
'0:01.023',-1.14
'0:01.027',-1.1
'0:01.031',-0.9
'0:01.035',-0.94
'0:01.039',-1.07
'0:01.043',-1.05
'0:01.047',-0.65
'0:01.051',-0.66
'0:01.055',-1.58
'0:01.059',-2.18
'0:01.063',-2.12
'0:01.066',-1.9
'0:01.070',-2.37
'0:01.074',-2.86
'0:01.078',-2.99
'0:01.082',-3.02
'0:01.086',-2.88
'0:01.090',-2.26
'0:01.094',-1.33
'0:01.098',-0.7
'0:01.102',-0.16
'0:01.105',1.69
'0:01.109',5.28
'0:01.113',7.82
'0:01.117',6.11
'0:01.121',2.54
'0:01.125',-0.56
'0:01.129',-2.71
'0:01.133',-3.48
'0:01.137',-3.34
'0:01.141',-3.84
'0:01.145',-4.97
'0:01.148',-5.38
'0:01.152',-4.75
'0:01.156',-3.4
'0:01.160',-1.99
'0:01.164',-1.49
'0:01.168',-1.5
'0:01.172',-2.33
'0:01.176',-3.41
'0:01.180',-3.51
'0:01.184',-3.08
'0:01.188',-2.81
'0:01.191',-2.43
'0:01.195',-1.93
'0:01.199',-1.5
'0:01.203',-0.85
'0:01.207',0.47
'0:01.211',1.35
'0:01.215',2.09
'0:01.219',2.43
'0:01.223',0.81
'0:01.227',-1.01
'0:01.230',-1.58
'0:01.234',-1.23
'0:01.238',-1.34
'0:01.242',-1.37
'0:01.246',-0.65
'0:01.250',0.29
'0:01.254',1.15
'0:01.258',1.79
'0:01.262',2.08
'0:01.266',2.12
'0:01.270',2.08
'0:01.273',1.99
'0:01.277',1.86
'0:01.281',1.57
'0:01.285',1.14
'0:01.289',0.75
'0:01.293',0.52
'0:01.297',0.27
'0:01.301',0.01
'0:01.305',0.01
'0:01.309',0.08
'0:01.313',0.07
'0:01.316',0.28
'0:01.320',1.15
'0:01.324',1.78
'0:01.328',1.12
'0:01.332',0.34
'0:01.336',0.1
'0:01.340',0.17
'0:01.344',0.29
'0:01.348',0.34
'0:01.352',0.39
'0:01.355',0.52
'0:01.359',0.5
'0:01.363',0.33
'0:01.367',-0.08
'0:01.371',-0.67
'0:01.375',-0.93
'0:01.379',-0.97
'0:01.383',-1.11
'0:01.387',-1.54
'0:01.391',-2.03
'0:01.395',-2.27
'0:01.398',-2.3
'0:01.402',-2.35
'0:01.406',-2.57
'0:01.410',-2.79
'0:01.414',-2.69
'0:01.418',-1.71
'0:01.422',0.26
'0:01.426',2.9
'0:01.430',5.47
'0:01.434',6.34
'0:01.438',4.75
'0:01.441',1.7
'0:01.445',-1.22
'0:01.449',-3.15
'0:01.453',-4.12
'0:01.457',-4.33
'0:01.461',-4.14
'0:01.465',-3.87
'0:01.469',-3.57
'0:01.473',-3.34
'0:01.477',-3.1
'0:01.480',-2.95
'0:01.484',-2.88
'0:01.488',-2.64
'0:01.492',-2.18
'0:01.496',-1.93
'0:01.500',-1.88
'0:01.504',-1.61
'0:01.508',-1.15
'0:01.512',-0.9
'0:01.516',-0.85
'0:01.520',-0.76
'0:01.523',-0.59
'0:01.527',-0.45
'0:01.531',-0.22
'0:01.535',0.12
'0:01.539',0.27
'0:01.543',0.37
'0:01.547',0.6
'0:01.551',0.85
'0:01.555',1.18
'0:01.559',1.53
'0:01.563',1.84
'0:01.566',2.09
'0:01.570',2.34
'0:01.574',2.69
'0:01.578',2.8
'0:01.582',2.76
'0:01.586',2.74
'0:01.590',2.47
'0:01.594',2.04
'0:01.598',1.73
'0:01.602',1.54
'0:01.605',1.26
'0:01.609',0.77
'0:01.613',0.35
'0:01.617',0.18
'0:01.621',-0.02
'0:01.625',-0.36
'0:01.629',-0.41
'0:01.633',-0.22
'0:01.637',-0.12
'0:01.641',-0.12
'0:01.645',-0.1
'0:01.648',0.07
'0:01.652',0.34
'0:01.656',0.6
'0:01.660',0.72
'0:01.664',0.73
'0:01.668',0.71
'0:01.672',0.68
'0:01.676',0.63
'0:01.680',0.55
'0:01.684',0.47
'0:01.688',0.37
'0:01.691',0
'0:01.695',-0.38
'0:01.699',-0.6
'0:01.703',-0.73
'0:01.707',-0.82
'0:01.711',-0.99
'0:01.715',-1.28
'0:01.719',-1.36
'0:01.723',-1.38
'0:01.727',-1.39
'0:01.730',-1.06
'0:01.734',-0.02
'0:01.738',1.96
'0:01.742',4.14
'0:01.746',6.18
'0:01.750',8.33
'0:01.754',9.3
'0:01.758',8.05
'0:01.762',4.67
'0:01.766',0.19
'0:01.770',-2.95
'0:01.773',-3.96
'0:01.777',-4.46
'0:01.781',-4.94
'0:01.785',-5.04
'0:01.789',-4.81
'0:01.793',-4.47
'0:01.797',-3.96
'0:01.801',-3.42
'0:01.805',-2.68
'0:01.809',-1.7
'0:01.813',-1.2
'0:01.816',-1.29
'0:01.820',-1.16
'0:01.824',-0.81
'0:01.828',-0.82
'0:01.832',-1.11
'0:01.836',-1.57
'0:01.840',-1.85
'0:01.844',-1.64
'0:01.848',-1.16
'0:01.852',-0.83
'0:01.855',-0.4
'0:01.859',0.54
'0:01.863',1.66
'0:01.867',2.5
'0:01.871',2.14
'0:01.875',0.9
'0:01.879',0.58
'0:01.883',1.71
'0:01.887',3.79
'0:01.891',4.49
'0:01.895',2.76
'0:01.898',0.94
'0:01.902',0.19
'0:01.906',0.05
'0:01.910',0.29
'0:01.914',0.67
'0:01.918',1.14
'0:01.922',1.33
'0:01.926',1.38
'0:01.930',1.76
'0:01.934',2.96
'0:01.938',4.48
'0:01.941',5.05
'0:01.945',3.52
'0:01.949',-0.06
'0:01.953',-2.85
'0:01.957',-3.27
'0:01.961',-2.67
'0:01.965',-1.8
'0:01.969',-1.17
'0:01.973',-0.69
'0:01.977',-0.22
'0:01.980',0.12
'0:01.984',0.37
'0:01.988',0.63
'0:01.992',0.9
'0:01.996',1.4
'0:02.000',2.22
'0:02.004',2.6
'0:02.008',1.55
'0:02.012',-0.13
'0:02.016',-1.2
'0:02.020',-1.77
'0:02.023',-1.99
'0:02.027',-1.88
'0:02.031',-1.66
'0:02.035',-1.72
'0:02.039',-1.99
'0:02.043',-2.19
'0:02.047',-2.26
'0:02.051',-2.05
'0:02.055',-1.36
'0:02.059',0.12
'0:02.063',2.14
'0:02.066',4.1
'0:02.070',5.81
'0:02.074',6.8
'0:02.078',5.75
'0:02.082',3.24
'0:02.086',0.37
'0:02.090',-1.9
'0:02.094',-3.38
'0:02.098',-4.01
'0:02.102',-4
'0:02.105',-3.76
'0:02.109',-3.4
'0:02.113',-2.99
'0:02.117',-2.97
'0:02.121',-2.6
'0:02.125',-2.47
'0:02.129',-2.31
'0:02.133',-2.06
'0:02.137',-1.73
'0:02.141',-1.49
'0:02.145',-1.31
'0:02.148',-1.13
'0:02.152',-0.79
'0:02.156',-0.44
'0:02.160',-0.34
'0:02.164',-0.43
'0:02.168',-0.6
'0:02.172',-0.67
'0:02.176',-0.46
'0:02.180',-0.15
'0:02.184',0.02
'0:02.188',0.16
'0:02.191',0.48
'0:02.195',0.94
'0:02.199',1.38
'0:02.203',1.79
'0:02.207',2.12
'0:02.211',2.42
'0:02.215',2.74
'0:02.219',2.99
'0:02.223',3.07
'0:02.227',2.98
'0:02.230',2.77
'0:02.234',2.58
'0:02.238',2.46
'0:02.242',2.23
'0:02.246',1.84
'0:02.250',1.45
'0:02.254',1.15
'0:02.258',0.9
'0:02.262',0.71
'0:02.266',0.56
'0:02.270',0.4
'0:02.273',0.34
'0:02.277',0.35
'0:02.281',0.26
'0:02.285',0.12
'0:02.289',0.22
'0:02.293',0.59
'0:02.297',1.04
'0:02.301',1.11
'0:02.305',0.89
'0:02.309',0.78
'0:02.313',0.85
'0:02.316',0.71
'0:02.320',0.33
'0:02.324',-0.01
'0:02.328',-0.23
'0:02.332',-0.5
'0:02.336',-0.7
'0:02.340',-0.85
'0:02.344',-0.92
'0:02.348',-0.96
'0:02.352',-1.18
'0:02.355',-1.71
'0:02.359',-2.18
'0:02.363',-2.49
'0:02.367',-2.58
'0:02.371',-2.3
'0:02.375',-1.67
'0:02.379',-0.52
'0:02.383',1.22
'0:02.387',3.36
'0:02.391',5.55
'0:02.395',6.57
'0:02.398',5.4
'0:02.402',2.73
'0:02.406',0.07
'0:02.410',-1.72
'0:02.414',-2.66
'0:02.418',-3.07
'0:02.422',-3.13
'0:02.426',-3.02
'0:02.430',-2.88
'0:02.434',-2.66
'0:02.438',-2.36
'0:02.441',-2.08
'0:02.445',-1.67
'0:02.449',-1.06
'0:02.453',-0.87
'0:02.457',-1.41
'0:02.461',-1.21
'0:02.465',-0.08
'0:02.469',0.89
'0:02.473',0.7
'0:02.477',0.25
'0:02.480',-0.13
'0:02.484',-0.93
'0:02.488',-1.55
'0:02.492',-1.82
'0:02.496',-1.51
'0:02.500',-1.29
'0:02.504',-1.03
'0:02.508',-0.48
'0:02.512',0.03
'0:02.516',0.4
'0:02.520',0.82
'0:02.523',1.73
'0:02.527',2.78
'0:02.531',3.36
'0:02.535',3.75
'0:02.539',4.26
'0:02.543',4.53
'0:02.547',4.1
'0:02.551',2.87
'0:02.555',1.77
'0:02.559',1.86
'0:02.563',2.29
'0:02.566',1.61
'0:02.570',0.27
'0:02.574',-0.68
'0:02.578',-0.78
'0:02.582',-0.08
'0:02.586',0.6
'0:02.590',0.28
'0:02.594',-0.17
'0:02.598',0.4
'0:02.602',1.56
'0:02.605',2.35
'0:02.609',2.44
'0:02.613',1.77
'0:02.617',1.34
'0:02.621',1.61
'0:02.625',1.12
'0:02.629',0.03
'0:02.633',-1
'0:02.637',-1.38
'0:02.641',-1.39
'0:02.645',-1.46
'0:02.648',-0.66
'0:02.652',0.76
'0:02.656',1.03
'0:02.660',-0.39
'0:02.664',-1.97
'0:02.668',-2.77
'0:02.672',-2.22
'0:02.676',-1.05
'0:02.680',-1.41
'0:02.684',-2.65
'0:02.688',-3.14
'0:02.691',-2.67
'0:02.695',-1.09
'0:02.699',1.28
'0:02.703',3.67
'0:02.707',5.04
'0:02.711',5.29
'0:02.715',4.33
'0:02.719',2.4
'0:02.723',-0.07
'0:02.727',-1.89
'0:02.730',-1.94
'0:02.734',-1.72
'0:02.738',-2.75
'0:02.742',-3.85
'0:02.746',-4.35
'0:02.750',-4.2
'0:02.754',-3.66
'0:02.758',-3.2
'0:02.762',-2.94
'0:02.766',-2.66
'0:02.770',-2.41
'0:02.773',-2.22
'0:02.777',-2
'0:02.781',-1.81
'0:02.785',-1.59
'0:02.789',-0.74
'0:02.793',1.68
'0:02.797',3.31
'0:02.801',1.53
'0:02.805',-1.11
'0:02.809',-2.42
'0:02.813',-2.56
'0:02.816',-1.94
'0:02.820',-1.11
'0:02.824',-0.4
'0:02.828',0.09
'0:02.832',0.5
'0:02.836',0.83
'0:02.840',1.09
'0:02.844',1.5
'0:02.848',2.03
'0:02.852',2.56
'0:02.855',2.96
'0:02.859',3.31
'0:02.863',3.51
'0:02.867',3.51
'0:02.871',3.34
'0:02.875',3.08
'0:02.879',2.52
'0:02.883',1.87
'0:02.887',1.35
'0:02.891',0.89
'0:02.895',0.41
'0:02.898',-0.09
'0:02.902',-0.42
'0:02.906',-0.58
'0:02.910',-0.54
'0:02.914',-0.43
'0:02.918',-0.22
'0:02.922',0.06
'0:02.926',0.36
'0:02.930',0.58
'0:02.934',0.75
'0:02.938',0.81
'0:02.941',0.74
'0:02.945',0.52
'0:02.949',0.47
'0:02.953',0.32
'0:02.957',-0.06
'0:02.961',-0.46
'0:02.965',-0.7
'0:02.969',-0.92
'0:02.973',-1.14
'0:02.977',-1.41
'0:02.980',-1.67
'0:02.984',-1.68
'0:02.988',-1.47
'0:02.992',-1.11
'0:02.996',-1.04
'0:03.000',-1.4
'0:03.004',-1.99
'0:03.008',-2.4
'0:03.012',-2.19
'0:03.016',-1.16
'0:03.020',0.5
'0:03.023',2.23
'0:03.027',4.12
'0:03.031',5.62
'0:03.035',5.23
'0:03.039',3.23
'0:03.043',0.67
'0:03.047',-1.39
'0:03.051',-2.77
'0:03.055',-3.54
'0:03.059',-3.8
'0:03.063',-3.85
'0:03.066',-3.78
'0:03.070',-3.56
'0:03.074',-3.34
'0:03.078',-3.06
'0:03.082',-2.73
'0:03.086',-2.4
'0:03.090',-2.14
'0:03.094',-2.05
'0:03.098',-1.93
'0:03.102',-1.82
'0:03.105',-1.63
'0:03.109',-1.39
'0:03.113',-1.1
'0:03.117',-0.78
'0:03.121',-0.5
'0:03.125',-0.34
'0:03.129',-0.17
'0:03.133',0.05
'0:03.137',0.27
'0:03.141',0.51
'0:03.145',0.73
'0:03.148',1.01
'0:03.152',1.33
'0:03.156',1.65
'0:03.160',1.96
'0:03.164',2.31
'0:03.168',2.6
'0:03.172',2.76
'0:03.176',2.87
'0:03.180',3.09
'0:03.184',3.2
'0:03.188',3.13
'0:03.191',2.95
'0:03.195',2.73
'0:03.199',2.42
'0:03.203',2.18
'0:03.207',1.91
'0:03.211',1.72
'0:03.215',1.45
'0:03.219',1.5
'0:03.223',2.36
'0:03.227',2.69
'0:03.230',1.08
'0:03.234',-0.46
'0:03.238',-0.57
'0:03.242',-0.24
'0:03.246',-0.12
'0:03.250',-0.26
'0:03.254',-0.53
'0:03.258',-0.66
'0:03.262',-0.65
'0:03.266',-0.47
'0:03.270',-0.19
'0:03.273',-0.02
'0:03.277',-0.06
'0:03.281',-0.1
'0:03.285',0.36
'0:03.289',0.77
'0:03.293',0.3
'0:03.297',-0.4
'0:03.301',-0.15
'0:03.305',-0.42
'0:03.309',-1.79
'0:03.313',-3.16
'0:03.316',-3.86
'0:03.320',-3.73
'0:03.324',-3.44
'0:03.328',-3.15
'0:03.332',-2.51
'0:03.336',-1.09
'0:03.340',0.78
'0:03.344',3.18
'0:03.348',6.5
'0:03.352',8.95
'0:03.355',7.58
'0:03.359',3.78
'0:03.363',0.44
'0:03.367',-1.87
'0:03.371',-3.73
'0:03.375',-5.04
'0:03.379',-5.13
'0:03.383',-3.78
'0:03.387',-1.77
'0:03.391',-1.59
'0:03.395',-3.57
'0:03.398',-5.09
'0:03.402',-5.15
'0:03.406',-4.33
'0:03.410',-3.11
'0:03.414',-1.43
'0:03.418',-0.23
'0:03.422',-0.82
'0:03.426',-2.06
'0:03.430',-2.51
'0:03.434',-2.25
'0:03.438',-1.2
'0:03.441',0.19
'0:03.445',0.8
'0:03.449',0.19
'0:03.453',-0.33
'0:03.457',0.06
'0:03.461',-0.02
'0:03.465',-1.23
'0:03.469',-2.11
'0:03.473',-1.91
'0:03.477',-0.9
'0:03.480',0.18
'0:03.484',0.99
'0:03.488',1.55
'0:03.492',1.76
'0:03.496',1.86
'0:03.500',1.92
'0:03.504',1.97
'0:03.508',2.07
'0:03.512',2.08
'0:03.516',1.77
'0:03.520',1.15
'0:03.523',0.74
'0:03.527',0.9
'0:03.531',0.86
'0:03.535',0.05
'0:03.539',-0.77
'0:03.543',-0.79
'0:03.547',-0.44
'0:03.551',-0.34
'0:03.555',-0.22
'0:03.559',0.38
'0:03.563',0.99
'0:03.566',0.72
'0:03.570',0.2
'0:03.574',0.33
'0:03.578',0.86
'0:03.582',1.23
'0:03.586',1.48
'0:03.590',1.32
'0:03.594',0.77
'0:03.598',0.35
'0:03.602',0.27
'0:03.605',0.18
'0:03.609',-0.08
'0:03.613',-0.57
'0:03.617',-0.89
'0:03.621',-1.06
'0:03.625',-1.18
'0:03.629',-1.46
'0:03.633',-1.76
'0:03.637',-1.97
'0:03.641',-1.93
'0:03.645',-1.83
'0:03.648',-1.56
'0:03.652',-1.25
'0:03.656',-0.76
'0:03.660',0.48
'0:03.664',2.48
'0:03.668',5.06
'0:03.672',7.29
'0:03.676',7.28
'0:03.680',4.85
'0:03.684',1.34
'0:03.688',-1.43
'0:03.691',-2.87
'0:03.695',-3.57
'0:03.699',-3.75
'0:03.703',-3.58
'0:03.707',-3.39
'0:03.711',-3.24
'0:03.715',-3.12
'0:03.719',-3.07
'0:03.723',-2.9
'0:03.727',-2.61
'0:03.730',-2.2
'0:03.734',-1.73
'0:03.738',-1.34
'0:03.742',-1.13
'0:03.746',-0.95
'0:03.750',-0.85
'0:03.754',-0.78
'0:03.758',-0.52
'0:03.762',-0.19
'0:03.766',0.1
'0:03.770',0.32
'0:03.773',0.3
'0:03.777',0.3
'0:03.781',0.44
'0:03.785',0.63
'0:03.789',0.85
'0:03.793',1.07
'0:03.797',1.26
'0:03.801',1.46
'0:03.805',1.82
'0:03.809',2.28
'0:03.813',2.61
'0:03.816',2.82
'0:03.820',2.93
'0:03.824',2.96
'0:03.828',3
'0:03.832',2.88
'0:03.836',2.59
'0:03.840',2.14
'0:03.844',1.64
'0:03.848',1.28
'0:03.852',0.96
'0:03.855',0.64
'0:03.859',0.42
'0:03.863',0.25
'0:03.867',0.06
'0:03.871',-0.05
'0:03.875',-0.04
'0:03.879',0.1
'0:03.883',0.33
'0:03.887',0.6
'0:03.891',0.85
'0:03.895',1.07
'0:03.898',1.2
'0:03.902',1.25
'0:03.906',1.23
'0:03.910',1.15
'0:03.914',1.1
'0:03.918',1.08
'0:03.922',1.03
'0:03.926',0.93
'0:03.930',0.49
'0:03.934',0.06
'0:03.938',-0.16
'0:03.941',-0.33
'0:03.945',-0.27
'0:03.949',0.07
'0:03.953',-0.28
'0:03.957',-1.23
'0:03.961',-1.82
'0:03.965',-1.66
'0:03.969',-1.41
'0:03.973',-1.62
'0:03.977',-1.54
'0:03.980',-0.68
'0:03.984',1.27
'0:03.988',4.12
'0:03.992',6.7
'0:03.996',6.97
'0:04.000',4.68
'0:04.004',1.09
'0:04.008',-1.94
'0:04.012',-3.43
'0:04.016',-3.79
'0:04.020',-3.23
'0:04.023',-2.26
'0:04.027',-2.66
'0:04.031',-3.95
'0:04.035',-4.55
'0:04.039',-4.25
'0:04.043',-3.36
'0:04.047',-2.85
'0:04.051',-2.64
'0:04.055',-2.4
'0:04.059',-2.01
'0:04.063',-1.53
'0:04.066',-1.1
'0:04.070',-0.96
'0:04.074',-1.13
'0:04.078',-0.76
'0:04.082',0.43
'0:04.086',0.9
'0:04.090',0.37
'0:04.094',0.2
'0:04.098',0.72
'0:04.102',1.05
'0:04.105',0.46
'0:04.109',0.13
'0:04.113',0.62
'0:04.117',0.9
'0:04.121',0.67
'0:04.125',0.59
'0:04.129',0.94
'0:04.133',1.5
'0:04.137',2.13
'0:04.141',2.34
'0:04.145',2.04
'0:04.148',2.04
'0:04.152',2.75
'0:04.156',4.99
'0:04.160',5.73
'0:04.164',2.35
'0:04.168',-1.48
'0:04.172',-3.14
'0:04.176',-2.7
'0:04.180',-0.78
'0:04.184',0.09
'0:04.188',-0.52
'0:04.191',-0.97
'0:04.195',-1
'0:04.199',-0.62
'0:04.203',-0.04
'0:04.207',0.2
'0:04.211',0.06
'0:04.215',0.14
'0:04.219',0.71
'0:04.223',1.67
'0:04.227',1.96
'0:04.230',0.73
'0:04.234',-0.67
'0:04.238',-1.31
'0:04.242',-1.26
'0:04.246',-0.62
'0:04.250',0.75
'0:04.254',1.45
'0:04.258',0.26
'0:04.262',-0.41
'0:04.266',-0.43
'0:04.270',-2.11
'0:04.273',-3.96
'0:04.277',-4.58
'0:04.281',-4.35
'0:04.285',-3.71
'0:04.289',-2.87
'0:04.293',-2.18
'0:04.297',-1.34
'0:04.301',0.12
'0:04.305',2.38
'0:04.309',4.89
'0:04.313',6.43
'0:04.316',5.64
'0:04.320',3.05
'0:04.324',0.16
'0:04.328',-1.81
'0:04.332',-2.92
'0:04.336',-3.54
'0:04.340',-3.6
'0:04.344',-3.27
'0:04.348',-3.07
'0:04.352',-2.91
'0:04.355',-2.52
'0:04.359',-2.07
'0:04.363',-1.52
'0:04.367',-1.24
'0:04.371',-1.26
'0:04.375',-1.53
'0:04.379',-1.8
'0:04.383',-1.8
'0:04.387',-1.49
'0:04.391',-1.22
'0:04.395',-1.12
'0:04.398',-1.08
'0:04.402',-0.88
'0:04.406',-0.67
'0:04.410',-0.51
'0:04.414',-0.36
'0:04.418',-0.31
'0:04.422',-0.26
'0:04.426',-0.17
'0:04.430',0
'0:04.434',0.24
'0:04.438',0.58
'0:04.441',0.93
'0:04.445',1.31
'0:04.449',1.8
'0:04.453',2.26
'0:04.457',2.58
'0:04.461',2.71
'0:04.465',2.75
'0:04.469',2.71
'0:04.473',2.49
'0:04.477',2.4
'0:04.480',2.01
'0:04.484',1.35
'0:04.488',0.81
'0:04.492',0.4
'0:04.496',-0.01
'0:04.500',-0.4
'0:04.504',-0.56
'0:04.508',-0.54
'0:04.512',-0.45
'0:04.516',-0.3
'0:04.520',-0.14
'0:04.523',-0.09
'0:04.527',-0.09
'0:04.531',0.16
'0:04.535',0.38
'0:04.539',0.32
'0:04.543',0.06
'0:04.547',0.06
'0:04.551',0.18
'0:04.555',0.08
'0:04.559',-0.13
'0:04.563',-0.41
'0:04.566',-0.81
'0:04.570',-1.21
'0:04.574',-1.48
'0:04.578',-1.68
'0:04.582',-1.88
'0:04.586',-2.16
'0:04.590',-2.5
'0:04.594',-2.75
'0:04.598',-2.85
'0:04.602',-2.9
'0:04.605',-2.92
'0:04.609',-2.66
'0:04.613',-2.09
'0:04.617',-1
'0:04.621',0.64
'0:04.625',2.7
'0:04.629',4.64
'0:04.633',5.13
'0:04.637',3.68
'0:04.641',1.14
'0:04.645',-1.29
'0:04.648',-2.83
'0:04.652',-3.49
'0:04.656',-3.18
'0:04.660',-2.45
'0:04.664',-2.29
'0:04.668',-2.76
'0:04.672',-3.25
'0:04.676',-3.84
'0:04.680',-3.85
'0:04.684',-3.06
'0:04.688',-1.96
'0:04.691',-1.66
'0:04.695',-2.35
'0:04.699',-2.67
'0:04.703',-2.14
'0:04.707',-1.54
'0:04.711',-1.62
'0:04.715',-1.85
'0:04.719',-1.91
'0:04.723',-1.69
'0:04.727',-1.2
'0:04.730',-0.46
'0:04.734',0.23
'0:04.738',0.97
'0:04.742',2.09
'0:04.746',2.73
'0:04.750',1.59
'0:04.754',0.17
'0:04.758',0
'0:04.762',0.81
'0:04.766',1.52
'0:04.770',1.49
'0:04.773',1.28
'0:04.777',1.25
'0:04.781',1.36
'0:04.785',1.56
'0:04.789',1.73
'0:04.793',1.95
'0:04.797',2.42
'0:04.801',2.48
'0:04.805',1.76
'0:04.809',0.45
'0:04.813',-0.66
'0:04.816',-1.07
'0:04.820',-0.67
'0:04.824',0.39
'0:04.828',1.02
'0:04.832',0.82
'0:04.836',0.35
'0:04.840',0.6
'0:04.844',1.61
'0:04.848',1.6
'0:04.852',0.56
'0:04.855',0.22
'0:04.859',0.47
'0:04.863',-0.12
'0:04.867',-1
'0:04.871',-1.36
'0:04.875',-1.29
'0:04.879',-1
'0:04.883',-0.4
'0:04.887',0.12
'0:04.891',0.31
'0:04.895',0.86
'0:04.898',0.93
'0:04.902',-0.54
'0:04.906',-2.42
'0:04.910',-3.46
'0:04.914',-3.63
'0:04.918',-2.97
'0:04.922',-2.28
'0:04.926',-1.37
'0:04.930',-0.55
'0:04.934',-0.89
'0:04.938',-1.12
'0:04.941',0.13
'0:04.945',2.48
'0:04.949',4.71
'0:04.953',5.46
'0:04.957',4.44
'0:04.961',1.91
'0:04.965',-0.93
'0:04.969',-3.03
'0:04.973',-4.08
'0:04.977',-4.38
'0:04.980',-4.15
'0:04.984',-3.83
'0:04.988',-3.49
'0:04.992',-3.36
'0:04.996',-3.19
'0:05.000',-2.84
'0:05.004',-2.42
'0:05.008',-1.98
'0:05.012',-1.8
'0:05.016',-1.68
'0:05.020',-1.16
'0:05.023',0.05
'0:05.027',1.37
'0:05.031',0.62
'0:05.035',-1.54
'0:05.039',-2.59
'0:05.043',-2.52
'0:05.047',-2.03
'0:05.051',-1.19
'0:05.055',-0.38
'0:05.059',0.17
'0:05.063',0.32
'0:05.066',0.27
'0:05.070',0.37
'0:05.074',0.84
'0:05.078',1.53
'0:05.082',1.94
'0:05.086',2.08
'0:05.090',2.21
'0:05.094',2.29
'0:05.098',2.29
'0:05.102',2.35
'0:05.105',2.48
'0:05.109',2.53
'0:05.113',2.37
'0:05.117',2.1
'0:05.121',2.1
'0:05.125',0.45
'0:05.129',0.05
'0:05.133',-0.09
'0:05.137',-0.26
'0:05.141',-0.51
'0:05.145',-0.76
'0:05.148',-0.71
'0:05.152',-0.46
'0:05.156',-0.22
'0:05.160',-0.14
'0:05.164',0.07
'0:05.168',0.4
'0:05.172',0.61
'0:05.176',0.69
'0:05.180',0.74
'0:05.184',0.7
'0:05.188',0.6
'0:05.191',0.52
'0:05.195',0.44
'0:05.199',0.46
'0:05.203',0.28
'0:05.207',-0.08
'0:05.211',-0.54
'0:05.215',-0.96
'0:05.219',-1.3
'0:05.223',-1.5
'0:05.227',-1.56
'0:05.230',-1.7
'0:05.234',-1.7
'0:05.238',-1.68
'0:05.242',-1.49
'0:05.246',-1.11
'0:05.250',-0.34
'0:05.254',1.2
'0:05.258',3.48
'0:05.262',6.14
'0:05.266',8.11
'0:05.270',7.73
'0:05.273',5.17
'0:05.277',1.78
'0:05.281',-0.82
'0:05.285',-2.35
'0:05.289',-3.15
'0:05.293',-3.55
'0:05.297',-3.73
'0:05.301',-3.54
'0:05.305',-3.2
'0:05.309',-2.84
'0:05.313',-2.64
'0:05.316',-2.57
'0:05.320',-2.48
'0:05.324',-2.35
'0:05.328',-2.26
'0:05.332',-2.05
'0:05.336',-1.71
'0:05.340',-1.41
'0:05.344',-1.13
'0:05.348',-0.9
'0:05.352',-0.74
'0:05.355',-0.58
'0:05.359',-0.29
'0:05.363',0.02
'0:05.367',0.32
'0:05.371',0.63
'0:05.375',0.99
'0:05.379',1.31
'0:05.383',1.52
'0:05.387',1.75
'0:05.391',1.99
'0:05.395',2.27
'0:05.398',2.56
'0:05.402',2.8
'0:05.406',3
'0:05.410',3.16
'0:05.414',3.26
'0:05.418',3.23
'0:05.422',3.08
'0:05.426',2.82
'0:05.430',2.57
'0:05.434',2.32
'0:05.438',2.13
'0:05.441',2.01
'0:05.445',1.76
'0:05.449',1.39
'0:05.453',1.27
'0:05.457',1.41
'0:05.461',1.68
'0:05.465',1.31
'0:05.469',0.48
'0:05.473',0.24
'0:05.477',0.45
'0:05.480',0.21
'0:05.484',-0.21
'0:05.488',-0.22
'0:05.492',0.16
'0:05.496',0.57
'0:05.500',0.76
'0:05.504',1.02
'0:05.508',1.09
'0:05.512',0.88
'0:05.516',0.73
'0:05.520',0.64
'0:05.523',0.47
'0:05.527',0.25
'0:05.531',-0.09
'0:05.535',0.05
'0:05.539',0.78
'0:05.543',0.94
'0:05.547',-0.45
'0:05.551',-1.62
'0:05.555',-1.14
'0:05.559',-0.56
'0:05.563',-1.65
'0:05.566',-3.21
'0:05.570',-3.59
'0:05.574',-2.26
'0:05.578',0.21
'0:05.582',3.27
'0:05.586',6.11
'0:05.590',7.18
'0:05.594',5.78
'0:05.598',2.87
'0:05.602',0.36
'0:05.605',-1.21
'0:05.609',-2.22
'0:05.613',-2.79
'0:05.617',-2.76
'0:05.621',-1.78
'0:05.625',-0.55
'0:05.629',-0.69
'0:05.633',-1.73
'0:05.637',-1.69
'0:05.641',-1.58
'0:05.645',-2.12
'0:05.648',-2.88
'0:05.652',-3.43
'0:05.656',-3.65
'0:05.660',-3.49
'0:05.664',-2.85
'0:05.668',-2.17
'0:05.672',-1.61
'0:05.676',-1.27
'0:05.680',-1.05
'0:05.684',-0.81
'0:05.688',-0.23
'0:05.691',0.92
'0:05.695',1.82
'0:05.699',1.24
'0:05.703',0.22
'0:05.707',-0.19
'0:05.711',0.02
'0:05.715',0.74
'0:05.719',1.57
'0:05.723',2.2
'0:05.727',2.53
'0:05.730',2.65
'0:05.734',2.85
'0:05.738',3
'0:05.742',2.95
'0:05.746',2.71
'0:05.750',2.38
'0:05.754',2.03
'0:05.758',1.71
'0:05.762',1.37
'0:05.766',1.12
'0:05.770',0.8
'0:05.773',0.23
'0:05.777',-0.14
'0:05.781',0.03
'0:05.785',0.18
'0:05.789',0.06
'0:05.793',0.02
'0:05.797',0.12
'0:05.801',0.32
'0:05.805',0.54
'0:05.809',0.76
'0:05.813',1.02
'0:05.816',0.98
'0:05.820',0.81
'0:05.824',0.82
'0:05.828',0.83
'0:05.832',0.69
'0:05.836',0.71
'0:05.840',0.87
'0:05.844',0.7
'0:05.848',0.02
'0:05.852',-0.76
'0:05.855',-1.35
'0:05.859',-1.67
'0:05.863',-1.92
'0:05.867',-1.97
'0:05.871',-2
'0:05.875',-2.06
'0:05.879',-2.14
'0:05.883',-1.97
'0:05.887',-1.64
'0:05.891',-0.63
'0:05.895',0.99
'0:05.898',2.95
'0:05.902',5.02
'0:05.906',6.3
'0:05.910',5.47
'0:05.914',2.89
'0:05.918',-0.06
'0:05.922',-2.11
'0:05.926',-3.24
'0:05.930',-3.8
'0:05.934',-3.99
'0:05.938',-3.93
'0:05.941',-3.68
'0:05.945',-3.39
'0:05.949',-3.11
'0:05.953',-2.88
'0:05.957',-2.73
'0:05.961',-2.61
'0:05.965',-2.49
'0:05.969',-2.27
'0:05.973',-1.93
'0:05.977',-1.57
'0:05.980',-1.19
'0:05.984',-0.95
'0:05.988',-0.81
'0:05.992',-0.66
'0:05.996',-0.53
'0:06.000',-0.35
'0:06.004',-0.12
'0:06.008',0.23
'0:06.012',0.5
'0:06.016',0.47
'0:06.020',0.35
'0:06.023',0.49
'0:06.027',0.9
'0:06.031',1.2
'0:06.035',1.39
'0:06.039',1.7
'0:06.043',2.18
'0:06.047',2.51
'0:06.051',2.72
'0:06.055',2.75
'0:06.059',2.76
'0:06.063',2.39
'0:06.066',2.11
'0:06.070',1.81
'0:06.074',1.52
'0:06.078',1.18
'0:06.082',0.79
'0:06.086',0.33
'0:06.090',-0.01
'0:06.094',-0.21
'0:06.098',-0.27
'0:06.102',-0.21
'0:06.105',-0.07
'0:06.109',0.15
'0:06.113',0.4
'0:06.117',0.49
'0:06.121',0.51
'0:06.125',0.72
'0:06.129',0.95
'0:06.133',1.07
'0:06.137',1.05
'0:06.141',1.03
'0:06.145',0.86
'0:06.148',0.66
'0:06.152',0.35
'0:06.156',0.09
'0:06.160',-0.02
'0:06.164',-0.28
'0:06.168',-0.7
'0:06.172',-0.96
'0:06.176',-1.07
'0:06.180',-1.12
'0:06.184',-1.24
'0:06.188',-1.36
'0:06.191',-1.41
'0:06.195',-1.39
'0:06.199',-1.03
'0:06.203',-0.85
'0:06.207',-0.78
'0:06.211',-0.31
'0:06.215',0.59
'0:06.219',2.19
'0:06.223',4.06
'0:06.227',4.71
'0:06.230',3.54
'0:06.234',1.18
'0:06.238',-1.19
'0:06.242',-2.66
'0:06.246',-3.26
'0:06.250',-3.27
'0:06.254',-3.33
'0:06.258',-3.29
'0:06.262',-3.05
'0:06.266',-2.62
'0:06.270',-2.02
'0:06.273',-1.09
'0:06.277',-0.03
'0:06.281',-0.4
'0:06.285',-2.03
'0:06.289',-3.17
'0:06.293',-2.96
'0:06.297',-2.13
'0:06.301',-1.92
'0:06.305',-1.93
'0:06.309',-1.56
'0:06.313',-0.77
'0:06.316',0.44
'0:06.320',1.29
'0:06.324',0.94
'0:06.328',0.52
'0:06.332',0.82
'0:06.336',1.72
'0:06.340',1.79
'0:06.344',1.18
'0:06.348',1.55
'0:06.352',2.42
'0:06.355',2.11
'0:06.359',1.4
'0:06.363',1.76
'0:06.367',2.79
'0:06.371',2.34
'0:06.375',1.13
'0:06.379',0.56
'0:06.383',0.51
'0:06.387',0.83
'0:06.391',0.98
'0:06.395',0.79
'0:06.398',0.7
'0:06.402',0.66
'0:06.406',0.71
'0:06.410',0.9
'0:06.414',1
'0:06.418',0.53
'0:06.422',-0.11
'0:06.426',0.53
'0:06.430',3.41
'0:06.434',4.55
'0:06.438',1.59
'0:06.441',-1.52
'0:06.445',-2.74
'0:06.449',-2.52
'0:06.453',-1.81
'0:06.457',-1.04
'0:06.461',-0.52
'0:06.465',-0.36
'0:06.469',-0.34
'0:06.473',-0.45
'0:06.477',-0.72
'0:06.480',-0.87
'0:06.484',-0.86
'0:06.488',-0.83
'0:06.492',-1.23
'0:06.496',-2
'0:06.500',-2.35
'0:06.504',-2.36
'0:06.508',-2.34
'0:06.512',-2.32
'0:06.516',-2.46
'0:06.520',-2.44
'0:06.523',-2.06
'0:06.527',-1.21
'0:06.531',0.33
'0:06.535',2.44
'0:06.539',4.39
'0:06.543',5.52
'0:06.547',5.43
'0:06.551',3.7
'0:06.555',0.87
'0:06.559',-1.64
'0:06.563',-3.07
'0:06.566',-3.43
'0:06.570',-3.37
'0:06.574',-3.24
'0:06.578',-3.05
'0:06.582',-2.88
'0:06.586',-2.75
'0:06.590',-2.35
'0:06.594',-1.75
'0:06.598',-1.26
'0:06.602',-1
'0:06.605',-1.09
'0:06.609',-1.26
'0:06.613',-1.37
'0:06.617',-1.34
'0:06.621',-1.43
'0:06.625',-1.63
'0:06.629',-1.79
'0:06.633',-1.87
'0:06.637',-1.76
'0:06.641',-1.59
'0:06.645',-1.34
'0:06.648',-1.07
'0:06.652',-0.74
'0:06.656',-0.37
'0:06.660',-0.05
'0:06.664',0.36
'0:06.668',0.77
'0:06.672',1.19
'0:06.676',1.53
'0:06.680',1.85
'0:06.684',2.16
'0:06.688',2.38
'0:06.691',2.61
'0:06.695',2.94
'0:06.699',3.16
'0:06.703',3.1
'0:06.707',3
'0:06.711',2.72
'0:06.715',1.94
'0:06.719',1
'0:06.723',0.23
'0:06.727',-0.14
'0:06.730',-0.22
'0:06.734',-0.28
'0:06.738',-0.24
'0:06.742',-0.1
'0:06.746',0.05
'0:06.750',0.22
'0:06.754',0.35
'0:06.758',0.55
'0:06.762',0.8
'0:06.766',1.04
'0:06.770',1.09
'0:06.773',0.89
'0:06.777',0.52
'0:06.781',0.41
'0:06.785',0.44
'0:06.789',0.37
'0:06.793',0.27
'0:06.797',-0.11
'0:06.801',-0.86
'0:06.805',-1.26
'0:06.809',-1.43
'0:06.813',-1.65
'0:06.816',-1.85
'0:06.820',-2.04
'0:06.824',-2.26
'0:06.828',-2.46
'0:06.832',-2.67
'0:06.836',-2.56
'0:06.840',-2.17
'0:06.844',-1.48
'0:06.848',-0.22
'0:06.852',1.78
'0:06.855',4.35
'0:06.859',6.8
'0:06.863',7.89
'0:06.867',6.67
'0:06.871',3.49
'0:06.875',0.17
'0:06.879',-2.05
'0:06.883',-3.24
'0:06.887',-3.77
'0:06.891',-3.94
'0:06.895',-3.95
'0:06.898',-3.63
'0:06.902',-3.2
'0:06.906',-2.92
'0:06.910',-2.45
'0:06.914',-1.79
'0:06.918',-1.44
'0:06.922',-1.6
'0:06.926',-1.63
'0:06.930',-1.54
'0:06.934',-1.42
'0:06.938',-1.25
'0:06.941',-0.65
'0:06.945',0.13
'0:06.949',0.01
'0:06.953',-0.71
'0:06.957',-0.81
'0:06.961',-0.32
'0:06.965',-0.07
'0:06.969',-0.33
'0:06.973',-0.58
'0:06.977',-0.4
'0:06.980',0.35
'0:06.984',1.28
'0:06.988',1.56
'0:06.992',1.32
'0:06.996',1.23
'0:07.000',1.44
'0:07.004',1.96
'0:07.008',2.65
'0:07.012',2.97
'0:07.016',2.77
'0:07.020',2.47
'0:07.023',2.2
'0:07.027',2.07
'0:07.031',1.91
'0:07.035',1.82
'0:07.039',1.88
'0:07.043',1.77
'0:07.047',1.68
'0:07.051',1.61
'0:07.055',1.31
'0:07.059',0.65
'0:07.063',-0.06
'0:07.066',-0.5
'0:07.070',-0.96
'0:07.074',-1.22
'0:07.078',-0.75
'0:07.082',-0.11
'0:07.086',0.29
'0:07.090',0.58
'0:07.094',0.66
'0:07.098',0.68
'0:07.102',0.89
'0:07.105',1.55
'0:07.109',2.83
'0:07.113',3.79
'0:07.117',3.36
'0:07.121',1.34
'0:07.125',-1.28
'0:07.129',-2.9
'0:07.133',-2.81
'0:07.137',-2.15
'0:07.141',-2.19
'0:07.145',-2.6
'0:07.148',-2.77
'0:07.152',-2.63
'0:07.156',-2.46
'0:07.160',-1.8
'0:07.164',-0.16
'0:07.168',1.7
'0:07.172',3.32
'0:07.176',5.08
'0:07.180',6.67
'0:07.184',6.88
'0:07.188',5.23
'0:07.191',2.47
'0:07.195',0.08
'0:07.199',-1.37
'0:07.203',-2.77
'0:07.207',-4.43
'0:07.211',-5.02
'0:07.215',-4.29
'0:07.219',-3.61
'0:07.223',-3.55
'0:07.227',-3.94
'0:07.230',-4.45
'0:07.234',-4.65
'0:07.238',-4.35
'0:07.242',-3.79
'0:07.246',-2.93
'0:07.250',-1.92
'0:07.254',-1.06
'0:07.258',-1.02
'0:07.262',-1.67
'0:07.266',-2.01
'0:07.270',-1.72
'0:07.273',-1.3
'0:07.277',-1.07
'0:07.281',-0.99
'0:07.285',-0.8
'0:07.289',-0.52
'0:07.293',-0.34
'0:07.297',0.02
'0:07.301',0.55
'0:07.305',0.85
'0:07.309',1
'0:07.313',1.16
'0:07.316',1.39
'0:07.320',1.7
'0:07.324',1.97
'0:07.328',2.35
'0:07.332',2.49
'0:07.336',2.23
'0:07.340',1.93
'0:07.344',1.85
'0:07.348',1.88
'0:07.352',1.6
'0:07.355',1.08
'0:07.359',0.64
'0:07.363',0.35
'0:07.367',-0.06
'0:07.371',-0.53
'0:07.375',-0.78
'0:07.379',-0.76
'0:07.383',-0.65
'0:07.387',-0.49
'0:07.391',-0.41
'0:07.395',-0.44
'0:07.398',-0.42
'0:07.402',-0.13
'0:07.406',0.14
'0:07.410',0.22
'0:07.414',0.23
'0:07.418',0.28
'0:07.422',0.27
'0:07.426',0.2
'0:07.430',0.13
'0:07.434',0.01
'0:07.438',-0.07
'0:07.441',-0.33
'0:07.445',-0.65
'0:07.449',-1.06
'0:07.453',-1.41
'0:07.457',-1.67
'0:07.461',-1.99
'0:07.465',-2.16
'0:07.469',-2.28
'0:07.473',-2.31
'0:07.477',-2.08
'0:07.480',-1.59
'0:07.484',-0.87
'0:07.488',0.45
'0:07.492',2.4
'0:07.496',4.63
'0:07.500',6.43
'0:07.504',6.52
'0:07.508',4.53
'0:07.512',1.38
'0:07.516',-1.27
'0:07.520',-2.87
'0:07.523',-3.61
'0:07.527',-3.85
'0:07.531',-3.92
'0:07.535',-4.01
'0:07.539',-4.23
'0:07.543',-4.21
'0:07.547',-3.9
'0:07.551',-3.38
'0:07.555',-2.57
'0:07.559',-2.07
'0:07.563',-2.12
'0:07.566',-2.4
'0:07.570',-2.53
'0:07.574',-2.39
'0:07.578',-2.12
'0:07.582',-1.78
'0:07.586',-1.61
'0:07.590',-1.61
'0:07.594',-1.22
'0:07.598',-0.97
'0:07.602',-0.71
'0:07.605',-0.54
'0:07.609',-0.47
'0:07.613',-0.36
'0:07.617',-0.17
'0:07.621',0.22
'0:07.625',0.58
'0:07.629',0.97
'0:07.633',1.33
'0:07.637',1.67
'0:07.641',1.93
'0:07.645',2.14
'0:07.648',2.39
'0:07.652',2.66
'0:07.656',2.69
'0:07.660',2.61
'0:07.664',2.48
'0:07.668',2.35
'0:07.672',2.31
'0:07.676',1.97
'0:07.680',2
'0:07.684',2.38
'0:07.688',2.25
'0:07.691',1.03
'0:07.695',-0.5
'0:07.699',-1.04
'0:07.703',-0.72
'0:07.707',-0.6
'0:07.711',-0.96
'0:07.715',-1.23
'0:07.719',-1.12
'0:07.723',-0.73
'0:07.727',-0.02
'0:07.730',0.88
'0:07.734',1.32
'0:07.738',0.91
'0:07.742',0.09
'0:07.746',-0.5
'0:07.750',-0.87
'0:07.754',-1.28
'0:07.758',-1.74
'0:07.762',-1.78
'0:07.766',-1.7
'0:07.770',-0.74
'0:07.773',-0.7
'0:07.777',-1.3
'0:07.781',-1.68
'0:07.785',-1.92
'0:07.789',-2.54
'0:07.793',-3.18
'0:07.797',-2.95
'0:07.801',-1.9
'0:07.805',-0.67
'0:07.809',0.35
'0:07.813',1.47
'0:07.816',3.09
'0:07.820',4.99
'0:07.824',5.89
'0:07.828',4.68
'0:07.832',2.05
'0:07.836',-0.35
'0:07.840',-1.88
'0:07.844',-2.48
'0:07.848',-2.05
'0:07.852',-2.35
'0:07.855',-3.92
'0:07.859',-4.68
'0:07.863',-4.16
'0:07.867',-3.59
'0:07.871',-3.58
'0:07.875',-3.98
'0:07.879',-3.9
'0:07.883',-3.28
'0:07.887',-2.93
'0:07.891',-2.62
'0:07.895',-2.26
'0:07.898',-1.53
'0:07.902',-0.45
'0:07.906',1.14
'0:07.910',2.65
'0:07.914',1.83
'0:07.918',-1.1
'0:07.922',-2.83
'0:07.926',-2.73
'0:07.930',-2.01
'0:07.934',-1.47
'0:07.938',-1.26
'0:07.941',-0.81
'0:07.945',-0.09
'0:07.949',0.57
'0:07.953',1.09
'0:07.957',1.51
'0:07.961',1.76
'0:07.965',1.78
'0:07.969',2.02
'0:07.973',3
'0:07.977',4.74
'0:07.980',5.46
'0:07.984',4.19
'0:07.988',1.9
'0:07.992',-0.09
'0:07.996',-1.1
'0:08.000',-1.39
'0:08.004',-1.08
'0:08.008',-0.65
'0:08.012',-0.54
'0:08.016',-0.7
'0:08.020',-0.75
'0:08.023',-0.34
'0:08.027',-0.07
'0:08.031',-0.07
'0:08.035',-0.05
'0:08.039',0.26
'0:08.043',0.78
'0:08.047',0.71
'0:08.051',0.08
'0:08.055',-0.14
'0:08.059',0.15
'0:08.063',0.41
'0:08.066',0.63
'0:08.070',0.85
'0:08.074',0.83
'0:08.078',0.49
'0:08.082',-0.06
'0:08.086',-0.57
'0:08.090',-0.78
'0:08.094',-0.95
'0:08.098',-1.37
'0:08.102',-1.65
'0:08.105',-1.67
'0:08.109',-1.58
'0:08.113',-1.46
'0:08.117',-1.21
'0:08.121',-0.84
'0:08.125',-0.08
'0:08.129',1.25
'0:08.133',3.05
'0:08.137',5.09
'0:08.141',6.37
'0:08.145',5.63
'0:08.148',3.27
'0:08.152',0.42
'0:08.156',-1.68
'0:08.160',-2.9
'0:08.164',-3.53
'0:08.168',-3.73
'0:08.172',-3.78
'0:08.176',-3.63
'0:08.180',-3.36
'0:08.184',-2.95
'0:08.188',-2.61
'0:08.191',-2.3
'0:08.195',-2
'0:08.199',-1.76
'0:08.203',-1.56
'0:08.207',-1.23
'0:08.211',-0.98
'0:08.215',-0.73
'0:08.219',-0.58
'0:08.223',-0.47
'0:08.227',-0.46
'0:08.230',-0.56
'0:08.234',-0.58
'0:08.238',-0.54
'0:08.242',-0.31
'0:08.246',0
'0:08.250',0.22
'0:08.254',0.41
'0:08.258',0.58
'0:08.262',0.78
'0:08.266',0.97
'0:08.270',1.17
'0:08.273',1.49
'0:08.277',1.9
'0:08.281',2.3
'0:08.285',2.61
'0:08.289',2.76
'0:08.293',2.8
'0:08.297',2.78
'0:08.301',2.58
'0:08.305',2.27
'0:08.309',1.88
'0:08.313',1.56
'0:08.316',1.18
'0:08.320',0.88
'0:08.324',0.7
'0:08.328',0.54
'0:08.332',0.27
'0:08.336',-0.06
'0:08.340',-0.26
'0:08.344',-0.25
'0:08.348',-0.11
'0:08.352',0
'0:08.355',0.17
'0:08.359',0.37
'0:08.363',0.98
'0:08.367',1.29
'0:08.371',1.27
'0:08.375',1.03
'0:08.379',0.76
'0:08.383',0.11
'0:08.387',-0.61
'0:08.391',-0.85
'0:08.395',-0.73
'0:08.398',-0.84
'0:08.402',-1.54
'0:08.406',-1.97
'0:08.410',-1.54
'0:08.414',-0.52
'0:08.418',-0.12
'0:08.422',-0.31
'0:08.426',-1.08
'0:08.430',-2.21
'0:08.434',-2.91
'0:08.438',-2.63
'0:08.441',-1.18
'0:08.445',0.83
'0:08.449',2.81
'0:08.453',4.59
'0:08.457',5.28
'0:08.461',4.47
'0:08.465',2.74
'0:08.469',0.62
'0:08.473',-1.2
'0:08.477',-2.09
'0:08.480',-2.66
'0:08.484',-3.47
'0:08.488',-4
'0:08.492',-4.05
'0:08.496',-3.92
'0:08.500',-3.36
'0:08.504',-1.94
'0:08.508',-0.89
'0:08.512',-1.34
'0:08.516',-2.09
'0:08.520',-2.4
'0:08.523',-2.39
'0:08.527',-2.03
'0:08.531',-2.02
'0:08.535',-2.31
'0:08.539',-2.21
'0:08.543',-1.75
'0:08.547',-1.41
'0:08.551',-0.87
'0:08.555',0.22
'0:08.559',1.6
'0:08.563',2.45
'0:08.566',2.48
'0:08.570',1.76
'0:08.574',0.76
'0:08.578',0.25
'0:08.582',0.7
'0:08.586',0.93
'0:08.590',0.86
'0:08.594',1.17
'0:08.598',1.54
'0:08.602',1.85
'0:08.605',2.05
'0:08.609',2.27
'0:08.613',2.78
'0:08.617',3.33
'0:08.621',3.32
'0:08.625',3
'0:08.629',3.19
'0:08.633',3.65
'0:08.637',3.52
'0:08.641',2.21
'0:08.645',0.98
'0:08.648',-0.02
'0:08.652',-1.52
'0:08.656',-2.55
'0:08.660',-2.44
'0:08.664',-1.71
'0:08.668',-0.91
'0:08.672',-0.28
'0:08.676',0.19
'0:08.680',0.83
'0:08.684',1.75
'0:08.688',2.58
'0:08.691',2.12
'0:08.695',1.1
'0:08.699',0.67
'0:08.703',0.34
'0:08.707',-0.35
'0:08.711',-0.92
'0:08.715',-1.22
'0:08.719',-1.12
'0:08.723',-0.66
'0:08.727',-0.49
'0:08.730',-0.78
'0:08.734',-1.56
'0:08.738',-1.97
'0:08.742',-1.51
'0:08.746',-0.66
'0:08.750',0.5
'0:08.754',0.75
'0:08.758',-0.76
'0:08.762',-1.45
'0:08.766',0
'0:08.770',2.92
'0:08.773',5.96
'0:08.777',7.21
'0:08.781',6.01
'0:08.785',2.98
'0:08.789',-0.28
'0:08.793',-2.4
'0:08.797',-3.34
'0:08.801',-3.46
'0:08.805',-3.21
'0:08.809',-3.07
'0:08.813',-2.94
'0:08.816',-2.85
'0:08.820',-2.88
'0:08.824',-2.75
'0:08.828',-2.44
'0:08.832',-2.16
'0:08.836',-1.88
'0:08.840',-1.66
'0:08.844',-1.6
'0:08.848',-1.31
'0:08.852',-0.95
'0:08.855',-1.02
'0:08.859',-1.14
'0:08.863',-1.16
'0:08.867',-0.94
'0:08.871',-0.59
'0:08.875',-0.43
'0:08.879',-0.29
'0:08.883',-0.02
'0:08.887',0.11
'0:08.891',0.21
'0:08.895',0.42
'0:08.898',0.8
'0:08.902',1.17
'0:08.906',1.64
'0:08.910',1.99
'0:08.914',2.32
'0:08.918',2.58
'0:08.922',2.73
'0:08.926',2.87
'0:08.930',2.81
'0:08.934',2.61
'0:08.938',2.34
'0:08.941',2.17
'0:08.945',1.98
'0:08.949',1.63
'0:08.953',1.2
'0:08.957',0.8
'0:08.961',0.59
'0:08.965',0.61
'0:08.969',0.47
'0:08.973',0.25
'0:08.977',0.2
'0:08.980',0.29
'0:08.984',0.6
'0:08.988',0.83
'0:08.992',1.07
'0:08.996',1.37
'0:09.000',1.49
'0:09.004',1.42
'0:09.008',1.32
'0:09.012',1.29
'0:09.016',1.25
'0:09.020',1.19
'0:09.023',1.02
'0:09.027',0.9
'0:09.031',0.7
'0:09.035',0.35
'0:09.039',-0.21
'0:09.043',-0.61
'0:09.047',-0.73
'0:09.051',-0.75
'0:09.055',-0.83
'0:09.059',-0.95
'0:09.063',-1.07
'0:09.066',-1.14
'0:09.070',-0.98
'0:09.074',-0.58
'0:09.078',0.4
'0:09.082',2.1
'0:09.086',4.5
'0:09.090',6.99
'0:09.094',8.12
'0:09.098',6.89
'0:09.102',3.94
'0:09.105',0.66
'0:09.109',-1.49
'0:09.113',-2.58
'0:09.117',-3.02
'0:09.121',-3.01
'0:09.125',-2.94
'0:09.129',-2.75
'0:09.133',-2.55
'0:09.137',-2.34
'0:09.141',-2.09
'0:09.145',-1.92
'0:09.148',-1.7
'0:09.152',-1.51
'0:09.156',-1.27
'0:09.160',-1.09
'0:09.164',-0.93
'0:09.168',-0.84
'0:09.172',-0.62
'0:09.176',-0.21
'0:09.180',0.08
'0:09.184',0.3
'0:09.188',0.51
'0:09.191',0.81
'0:09.195',1.52
'0:09.199',2.58
'0:09.203',3.19
'0:09.207',2.79
'0:09.211',2.1
'0:09.215',2.13
'0:09.219',2.65
'0:09.223',2.56
'0:09.227',1.85
'0:09.230',1.24
'0:09.234',1.12
'0:09.238',1.37
'0:09.242',1.73
'0:09.246',1.95
'0:09.250',2.12
'0:09.254',2.37
'0:09.258',2.46
'0:09.262',2.29
'0:09.266',1.82
'0:09.270',1.34
'0:09.273',1.42
'0:09.277',1.58
'0:09.281',0.98
'0:09.285',0.45
'0:09.289',0.1
'0:09.293',-0.61
'0:09.297',-0.95
'0:09.301',-0.84
'0:09.305',-0.68
'0:09.309',0.02
'0:09.313',1.64
'0:09.316',3.22
'0:09.320',3.11
'0:09.324',1.35
'0:09.328',-0.42
'0:09.332',-1.12
'0:09.336',-0.99
'0:09.340',-0.6
'0:09.344',-0.06
'0:09.348',0.86
'0:09.352',1.28
'0:09.355',0.17
'0:09.359',-1.07
'0:09.363',-1.59
'0:09.367',-1.13
'0:09.371',0.77
'0:09.375',2.6
'0:09.379',1.36
'0:09.383',-2.01
'0:09.387',-4.5
'0:09.391',-4.52
'0:09.395',-3.27
'0:09.398',-1.37
'0:09.402',0.86
'0:09.406',3.33
'0:09.410',5.82
'0:09.414',6.76
'0:09.418',5.27
'0:09.422',2.29
'0:09.426',-0.38
'0:09.430',-2.09
'0:09.434',-3.16
'0:09.438',-3.65
'0:09.441',-3.7
'0:09.445',-3.51
'0:09.449',-3.33
'0:09.453',-3.03
'0:09.457',-2.38
'0:09.461',-1.21
'0:09.465',-0.43
'0:09.469',-1.1
'0:09.473',-2.5
'0:09.477',-3.11
'0:09.480',-2.82
'0:09.484',-2.18
'0:09.488',-1.56
'0:09.492',-1.14
'0:09.496',-0.73
'0:09.500',-0.54
'0:09.504',-0.83
'0:09.508',-1
'0:09.512',-0.73
'0:09.516',-0.19
'0:09.520',0.54
'0:09.523',1.19
'0:09.527',1.1
'0:09.531',0.78
'0:09.535',0.85
'0:09.539',1.15
'0:09.543',1.6
'0:09.547',2.3
'0:09.551',2.83
'0:09.555',3.02
'0:09.559',3.05
'0:09.563',3.09
'0:09.566',3.05
'0:09.570',2.93
'0:09.574',2.71
'0:09.578',2.58
'0:09.582',2.43
'0:09.586',2.09
'0:09.590',1.7
'0:09.594',1.44
'0:09.598',1.34
'0:09.602',1.21
'0:09.605',1.02
'0:09.609',0.9
'0:09.613',0.88
'0:09.617',0.9
'0:09.621',0.78
'0:09.625',0.7
'0:09.629',0.85
'0:09.633',0.98
'0:09.637',0.98
'0:09.641',0.7
'0:09.645',0.59
'0:09.648',0.68
'0:09.652',0.73
'0:09.656',0.59
'0:09.660',0.34
'0:09.664',0.13
'0:09.668',-0.04
'0:09.672',-0.37
'0:09.676',-0.68
'0:09.680',-0.9
'0:09.684',-1.02
'0:09.688',-1.34
'0:09.691',-1.65
'0:09.695',-1.78
'0:09.699',-1.68
'0:09.703',-1.66
'0:09.707',-1.37
'0:09.711',-0.77
'0:09.715',0.48
'0:09.719',2.45
'0:09.723',4.83
'0:09.727',6.95
'0:09.730',7.46
'0:09.734',5.72
'0:09.738',2.55
'0:09.742',-0.48
'0:09.746',-2.42
'0:09.750',-3.44
'0:09.754',-3.85
'0:09.758',-4.04
'0:09.762',-3.97
'0:09.766',-3.67
'0:09.770',-3.23
'0:09.773',-2.86
'0:09.777',-2.69
'0:09.781',-2.51
'0:09.785',-2.34
'0:09.789',-2.08
'0:09.793',-1.86
'0:09.797',-1.76
'0:09.801',-1.7
'0:09.805',-1.43
'0:09.809',-1.07
'0:09.813',-0.92
'0:09.816',-0.97
'0:09.820',-0.99
'0:09.824',-0.88
'0:09.828',-0.61
'0:09.832',-0.43
'0:09.836',-0.19
'0:09.840',0.03
'0:09.844',0.18
'0:09.848',0.62
'0:09.852',1.21
'0:09.855',1.65
'0:09.859',1.98
'0:09.863',2.43
'0:09.867',2.75
'0:09.871',2.96
'0:09.875',3.15
'0:09.879',3.09
'0:09.883',2.98
'0:09.887',2.87
'0:09.891',2.65
'0:09.895',2.31
'0:09.898',2.01
'0:09.902',1.65
'0:09.906',1.21
'0:09.910',0.92
'0:09.914',0.66
'0:09.918',0.44
'0:09.922',0.3
'0:09.926',0.22
'0:09.930',0.14
'0:09.934',0.09
'0:09.938',0.38
'0:09.941',0.84
'0:09.945',1.2
'0:09.949',1.13
'0:09.953',1.2
'0:09.957',1.97
'0:09.961',2.81
'0:09.965',2.21
'0:09.969',-0.02
'0:09.973',-1.64
'0:09.977',-2.31
'0:09.980',-2.87
'0:09.984',-3.54
'0:09.988',-3.88
'0:09.992',-3.67
'0:09.996',-3.21
'0:10.000',-2.85
'0:10.004',-2.6
'0:10.008',-2.28
'0:10.012',-1.86
'0:10.016',-1.33
'0:10.020',-0.92
'0:10.023',-0.75
'0:10.027',-0.58
'0:10.031',0
'0:10.035',1.59
'0:10.039',3.25
'0:10.043',4.27
'0:10.047',4.8
'0:10.051',4.34
'0:10.055',2.45
'0:10.059',-0.09
'0:10.063',-1.98
'0:10.066',-2.01
'0:10.070',-1.55
'0:10.074',-2.29
'0:10.078',-3.6
'0:10.082',-4.46
'0:10.086',-4.5
'0:10.090',-4.08
'0:10.094',-3.4
'0:10.098',-2.6
'0:10.102',-2.2
'0:10.105',-2.2
'0:10.109',-1.94
'0:10.113',-1.76
'0:10.117',-1.2
'0:10.121',-0.01
'0:10.125',0.27
'0:10.129',-0.87
'0:10.133',-2.15
'0:10.137',-2.51
'0:10.141',-2.21
'0:10.145',-1.47
'0:10.148',-0.54
'0:10.152',0.48
'0:10.156',1.04
'0:10.160',0.83
'0:10.164',0.36
'0:10.168',-0.25
'0:10.172',-0.5
'0:10.176',0.1
'0:10.180',1.4
'0:10.184',2.82
'0:10.188',3.42
'0:10.191',2.14
'0:10.195',0.6
'0:10.199',0.09
'0:10.203',0.38
'0:10.207',0.94
'0:10.211',1.32
'0:10.215',1.54
'0:10.219',1.66
'0:10.223',1.35
'0:10.227',0.77
'0:10.230',0.16
'0:10.234',-0.09
'0:10.238',0.61
'0:10.242',1.47
'0:10.246',0.81
'0:10.250',-0.5
'0:10.254',-0.92
'0:10.258',-0.6
'0:10.262',-0.03
'0:10.266',0.55
'0:10.270',1.15
'0:10.273',1.43
'0:10.277',1.14
'0:10.281',0.8
'0:10.285',0.69
'0:10.289',0.58
'0:10.293',0.32
'0:10.297',0.13
'0:10.301',0
'0:10.305',-0.27
'0:10.309',-0.56
'0:10.313',-0.78
'0:10.316',-0.98
'0:10.320',-1.19
'0:10.324',-1.25
'0:10.328',-1.12
'0:10.332',-1.13
'0:10.336',-1.57
'0:10.340',-2.1
'0:10.344',-2.04
'0:10.348',-1.37
'0:10.352',-0.03
'0:10.355',1.62
'0:10.359',3.53
'0:10.363',5.26
'0:10.367',5.18
'0:10.371',3.11
'0:10.375',0.16
'0:10.379',-2.35
'0:10.383',-3.87
'0:10.387',-4.52
'0:10.391',-4.59
'0:10.395',-4.37
'0:10.398',-3.99
'0:10.402',-3.51
'0:10.406',-2.97
'0:10.410',-2.67
'0:10.414',-2.55
'0:10.418',-2.43
'0:10.422',-2.26
'0:10.426',-2.02
'0:10.430',-1.7
'0:10.434',-1.36
'0:10.438',-0.99
'0:10.441',-0.55
'0:10.445',-0.14
'0:10.449',-0.07
'0:10.453',-0.34
'0:10.457',-0.46
'0:10.461',-0.36
'0:10.465',-0.16
'0:10.469',-0.04
'0:10.473',0.23
'0:10.477',0.62
'0:10.480',1.09
'0:10.484',1.6
'0:10.488',2.09
'0:10.492',2.44
'0:10.496',2.49
'0:10.500',2.57
'0:10.504',2.66
'0:10.508',2.85
'0:10.512',2.95
'0:10.516',2.77
'0:10.520',2.34
'0:10.523',2.2
'0:10.527',2.19
'0:10.531',2.11
'0:10.535',1.67
'0:10.539',1.06
'0:10.543',0.69
'0:10.547',0.46
'0:10.551',0.26
'0:10.555',0.11
'0:10.559',0
'0:10.563',0.13
'0:10.566',0.5
'0:10.570',0.73
'0:10.574',0.62
'0:10.578',0.41
'0:10.582',0.49
'0:10.586',0.72
'0:10.590',0.88
'0:10.594',0.95
'0:10.598',0.88
'0:10.602',0.9
'0:10.605',0.88
'0:10.609',0.88
'0:10.613',0.88
'0:10.617',0.23
'0:10.621',-0.03
'0:10.625',-0.33
'0:10.629',-0.64
'0:10.633',-0.86
'0:10.637',-0.85
'0:10.641',-0.87
'0:10.645',-1.07
'0:10.648',-1.26
'0:10.652',-1.36
'0:10.656',-1.34
'0:10.660',-1.12
'0:10.664',-0.54
'0:10.668',0.78
'0:10.672',2.85
'0:10.676',5.41
'0:10.680',7.77
'0:10.684',8.46
'0:10.688',6.83
'0:10.691',3.88
'0:10.695',1.63
'0:10.699',-0.3
'0:10.703',-2.9
'0:10.707',-4.72
'0:10.711',-4.96
'0:10.715',-4.02
'0:10.719',-2.78
'0:10.723',-2.07
'0:10.727',-2.73
'0:10.730',-4.15
'0:10.734',-4.58
'0:10.738',-3.97
'0:10.742',-2.93
'0:10.746',-2.54
'0:10.750',-2.7
'0:10.754',-2.42
'0:10.758',-2.01
'0:10.762',-1.93
'0:10.766',-2.05
'0:10.770',-2.22
'0:10.773',-1.83
'0:10.777',-0.98
'0:10.781',-0.58
'0:10.785',-0.66
'0:10.789',-0.01
'0:10.793',1.36
'0:10.797',1.07
'0:10.801',-0.56
'0:10.805',-1.37
'0:10.809',-1.1
'0:10.813',-0.29
'0:10.816',0.72
'0:10.820',1.31
'0:10.824',1.59
'0:10.828',1.89
'0:10.832',2.37
'0:10.836',2.3
'0:10.840',1.47
'0:10.844',1.11
'0:10.848',1.83
'0:10.852',2.91
'0:10.855',2.75
'0:10.859',0.89
'0:10.863',-0.99
'0:10.867',-0.72
'0:10.871',0.64
'0:10.875',-0.08
'0:10.879',-2.55
'0:10.883',-3.85
'0:10.887',-3.71
'0:10.891',-2.93
'0:10.895',-2.03
'0:10.898',-1.23
'0:10.902',-0.64
'0:10.906',-0.16
'0:10.910',0.28
'0:10.914',0.92
'0:10.918',1.58
'0:10.922',1.65
'0:10.926',1.18
'0:10.930',0.52
'0:10.934',-0.08
'0:10.938',-0.04
'0:10.941',-0.1
'0:10.945',-2.01
'0:10.949',-4.16
'0:10.953',-4.89
'0:10.957',-4.67
'0:10.961',-4.23
'0:10.965',-3.78
'0:10.969',-3.08
'0:10.973',-2.79
'0:10.977',-2.92
'0:10.980',-2.81
'0:10.984',-2.13
'0:10.988',-0.82
'0:10.992',1.06
'0:10.996',3.65
'0:11.000',6.08
'0:11.004',6.24
'0:11.008',3.81
'0:11.012',0.46
'0:11.016',-2.02
'0:11.020',-3.63
'0:11.023',-4.54
'0:11.027',-4.98
'0:11.031',-5.13
'0:11.035',-4.84
'0:11.039',-4.6
'0:11.043',-4.79
'0:11.047',-4.86
'0:11.051',-4.68
'0:11.055',-4.54
'0:11.059',-4.45
'0:11.063',-4.2
'0:11.066',-3.71
'0:11.070',-3.17
'0:11.074',-2.67
'0:11.078',-2.36
'0:11.082',-2.21
'0:11.086',-2.13
'0:11.090',-1.94
'0:11.094',-1.67
'0:11.098',-1.43
'0:11.102',-1.3
'0:11.105',-1.19
'0:11.109',-0.89
'0:11.113',-0.63
'0:11.117',-0.49
'0:11.121',-0.45
'0:11.125',-0.31
'0:11.129',-0.01
'0:11.133',0.25
'0:11.137',0.45
'0:11.141',0.62
'0:11.145',0.74
'0:11.148',0.7
'0:11.152',0.63
'0:11.156',0.68
'0:11.160',0.78
'0:11.164',0.78
'0:11.168',0.55
'0:11.172',0.19
'0:11.176',-0.12
'0:11.180',-0.34
'0:11.184',-0.54
'0:11.188',-0.73
'0:11.191',-0.93
'0:11.195',-1.02
'0:11.199',-0.92
'0:11.203',-0.68
'0:11.207',-0.45
'0:11.211',-0.22
'0:11.215',0.11
'0:11.219',0.45
'0:11.223',0.56
'0:11.227',0.46
'0:11.230',0.29
'0:11.234',0.09
'0:11.238',-0.05
'0:11.242',-0.12
'0:11.246',-0.22
'0:11.250',-0.42
'0:11.254',-0.66
'0:11.258',-0.96
'0:11.262',-1.23
'0:11.266',-1.47
'0:11.270',-1.68
'0:11.273',-1.89
'0:11.277',-2.07
'0:11.281',-2.24
'0:11.285',-2.51
'0:11.289',-2.71
'0:11.293',-2.75
'0:11.297',-2.54
'0:11.301',-2.23
'0:11.305',-1.52
'0:11.309',-0.05
'0:11.313',2.27
'0:11.316',4.91
'0:11.320',6.67
'0:11.324',6.32
'0:11.328',3.96
'0:11.332',0.68
'0:11.336',-0.7
'0:11.340',-0.7
'0:11.344',-4.09
'0:11.348',-4.36
'0:11.352',-4.33
'0:11.355',-4.21
'0:11.359',-4.04
'0:11.363',-4.09
'0:11.367',-4.04
'0:11.371',-3.69
'0:11.375',-3.26
'0:11.379',-2.79
'0:11.383',-2.35
'0:11.387',-2.07
'0:11.391',-1.8
'0:11.395',-1.6
'0:11.398',-1.45
'0:11.402',-1.36
'0:11.406',-1.29
'0:11.410',-1.16
'0:11.414',-0.84
'0:11.418',-0.51
'0:11.422',-0.26
'0:11.426',-0.11
'0:11.430',0.02
'0:11.434',0.12
'0:11.438',0.27
'0:11.441',0.63
'0:11.445',1.38
'0:11.449',2.37
'0:11.453',2.94
'0:11.457',2.41
'0:11.461',1.67
'0:11.465',1.65
'0:11.469',2.69
'0:11.473',3.49
'0:11.477',3.13
'0:11.480',2.17
'0:11.484',1.33
'0:11.488',0.9
'0:11.492',0.63
'0:11.496',0.33
'0:11.500',0.11
'0:11.504',-0.25
'0:11.508',-0.58
'0:11.512',-0.35
'0:11.516',0.16
'0:11.520',0.22
'0:11.523',-0.15
'0:11.527',-0.49
'0:11.531',-0.58
'0:11.535',-0.24
'0:11.539',0.22
'0:11.543',0.76
'0:11.547',1.28
'0:11.551',1.68
'0:11.555',2.13
'0:11.559',2.43
'0:11.563',2.74
'0:11.566',2.83
'0:11.570',1.91
'0:11.574',0.02
'0:11.578',-1.77
'0:11.582',-2.94
'0:11.586',-3.13
'0:11.590',-2.88
'0:11.594',-2.92
'0:11.598',-2.95
'0:11.602',-2.87
'0:11.605',-2.72
'0:11.609',-2.6
'0:11.613',-2.35
'0:11.617',-1.99
'0:11.621',-1.48
'0:11.625',-0.4
'0:11.629',1.88
'0:11.633',4.26
'0:11.637',6.21
'0:11.641',7.93
'0:11.645',7.73
'0:11.648',4.5
'0:11.652',-0.13
'0:11.656',-3.72
'0:11.660',-5.43
'0:11.664',-5.66
'0:11.668',-5.01
'0:11.672',-4.23
'0:11.676',-3.82
'0:11.680',-3.76
'0:11.684',-3.68
'0:11.688',-3.34
'0:11.691',-2.44
'0:11.695',-0.96
'0:11.699',-0.5
'0:11.703',-1.43
'0:11.707',-2.54
'0:11.711',-3.06
'0:11.715',-2.59
'0:11.719',-1.31
'0:11.723',-1.14
'0:11.727',-1.81
'0:11.730',-1.91
'0:11.734',-1.7
'0:11.738',-1.3
'0:11.742',-0.79
'0:11.746',-0.44
'0:11.750',0
'0:11.754',0.47
'0:11.758',0.76
'0:11.762',0.96
'0:11.766',1.31
'0:11.770',1.64
'0:11.773',1.87
'0:11.777',3.54
'0:11.781',6.74
'0:11.785',6.82
'0:11.789',3.7
'0:11.793',1.07
'0:11.797',-0.03
'0:11.801',-0.08
'0:11.805',0.41
'0:11.809',0.89
'0:11.813',1.05
'0:11.816',0.97
'0:11.820',0.77
'0:11.824',0.48
'0:11.828',0.31
'0:11.832',0.41
'0:11.836',0.72
'0:11.840',1.13
'0:11.844',1.33
'0:11.848',1.26
'0:11.852',1.17
'0:11.855',1.27
'0:11.859',1.47
'0:11.863',1.46
'0:11.867',1.24
'0:11.871',1.09
'0:11.875',1.06
'0:11.879',1.2
'0:11.883',1.28
'0:11.887',0.91
'0:11.891',0.31
'0:11.895',-0.39
'0:11.898',-1.14
'0:11.902',-1.72
'0:11.906',-1.94
'0:11.910',-1.88
'0:11.914',-1.74
'0:11.918',-1.65
'0:11.922',-1.63
'0:11.926',-1.61
'0:11.930',-1.58
'0:11.934',-1.56
'0:11.938',-1.28
'0:11.941',-0.75
'0:11.945',0.14
'0:11.949',1.47
'0:11.953',3.29
'0:11.957',5.49
'0:11.961',6.93
'0:11.965',6.08
'0:11.969',3.58
'0:11.973',0.73
'0:11.977',-1.34
'0:11.980',-2.51
'0:11.984',-3.02
'0:11.988',-3.12
'0:11.992',-3.06
'0:11.996',-2.85
'0:12.000',-2.58
'0:12.004',-2.43
'0:12.008',-2.41
'0:12.012',-2.35
'0:12.016',-2.24
'0:12.020',-2.17
'0:12.023',-2.09
'0:12.027',-1.85
'0:12.031',-1.48
'0:12.035',-0.93
'0:12.039',-0.49
'0:12.043',-0.33
'0:12.047',-0.57
'0:12.051',-0.73
'0:12.055',-0.6
'0:12.059',-0.41
'0:12.063',-0.21
'0:12.066',0.13
'0:12.070',0.45
'0:12.074',0.57
'0:12.078',0.68
'0:12.082',0.91
'0:12.086',1.28
'0:12.090',1.7
'0:12.094',2.01
'0:12.098',2.24
'0:12.102',2.47
'0:12.105',2.69
'0:12.109',2.81
'0:12.113',2.8
'0:12.117',2.81
'0:12.121',2.68
'0:12.125',2.46
'0:12.129',2.2
'0:12.133',1.99
'0:12.137',1.73
'0:12.141',1.49
'0:12.145',1.21
'0:12.148',0.99
'0:12.152',0.93
'0:12.156',0.9
'0:12.160',0.9
'0:12.164',1.03
'0:12.168',1.32
'0:12.172',1.67
'0:12.176',2.14
'0:12.180',2.2
'0:12.184',1.88
'0:12.188',1.9
'0:12.191',1.75
'0:12.195',1.16
'0:12.199',0.82
'0:12.203',0.72
'0:12.207',0.82
'0:12.211',1.5
'0:12.215',1.59
'0:12.219',0.7
'0:12.223',0.26
'0:12.227',0.05
'0:12.230',-0.77
'0:12.234',-1.65
'0:12.238',-1.79
'0:12.242',-1.45
'0:12.246',-1.39
'0:12.250',-1.74
'0:12.254',-1.89
'0:12.258',-1.69
'0:12.262',-1.16
'0:12.266',0.08
'0:12.270',2.24
'0:12.273',5
'0:12.277',7.01
'0:12.281',7.17
'0:12.285',5.38
'0:12.289',2.44
'0:12.293',-0.35
'0:12.297',-2.21
'0:12.301',-3.08
'0:12.305',-3
'0:12.309',-2.59
'0:12.313',-2.48
'0:12.316',-2.46
'0:12.320',-2.34
'0:12.324',-2.36
'0:12.328',-2.42
'0:12.332',-2.41
'0:12.336',-2.14
'0:12.340',-1.58
'0:12.344',-1.1
'0:12.348',-0.72
'0:12.352',-0.24
'0:12.355',0.25
'0:12.359',0.11
'0:12.363',-0.21
'0:12.367',-0.21
'0:12.371',-0.32
'0:12.375',-0.56
'0:12.379',-0.42
'0:12.383',0.13
'0:12.387',0.65
'0:12.391',0.85
'0:12.395',0.9
'0:12.398',1.1
'0:12.402',1.47
'0:12.406',1.86
'0:12.410',1.95
'0:12.414',2.08
'0:12.418',2.3
'0:12.422',2.51
'0:12.426',2.54
'0:12.430',2.59
'0:12.434',2.59
'0:12.438',2.43
'0:12.441',2.22
'0:12.445',2.06
'0:12.449',1.94
'0:12.453',1.56
'0:12.457',0.97
'0:12.461',0.35
'0:12.465',-0.1
'0:12.469',-0.19
'0:12.473',0.04
'0:12.477',0.12
'0:12.480',0.03
'0:12.484',-0.13
'0:12.488',0.01
'0:12.492',0.38
'0:12.496',0.63
'0:12.500',1.01
'0:12.504',1.28
'0:12.508',1.34
'0:12.512',1.32
'0:12.516',1.39
'0:12.520',1.21
'0:12.523',0.92
'0:12.527',0.52
'0:12.531',0.21
'0:12.535',-0.06
'0:12.539',-0.54
'0:12.543',-1.06
'0:12.547',-1.44
'0:12.551',-1.6
'0:12.555',-1.81
'0:12.559',-2.03
'0:12.563',-1.97
'0:12.566',-1.54
'0:12.570',-1.39
'0:12.574',-1.15
'0:12.578',-0.79
'0:12.582',-0.45
'0:12.586',0.4
'0:12.590',2.28
'0:12.594',5
'0:12.598',7.29
'0:12.602',7.49
'0:12.605',5.54
'0:12.609',2.48
'0:12.613',-0.2
'0:12.617',-1.97
'0:12.621',-2.88
'0:12.625',-3.5
'0:12.629',-3.77
'0:12.633',-3.63
'0:12.637',-3.18
'0:12.641',-3.11
'0:12.645',-2.88
'0:12.648',-2.43
'0:12.652',-2.24
'0:12.656',-2.45
'0:12.660',-2.7
'0:12.664',-2.62
'0:12.668',-2.2
'0:12.672',-1.64
'0:12.676',-1.3
'0:12.680',-1.09
'0:12.684',-1.26
'0:12.688',-1.54
'0:12.691',-1.52
'0:12.695',-1.18
'0:12.699',-0.63
'0:12.703',-0.02
'0:12.707',0.63
'0:12.711',1.01
'0:12.715',0.74
'0:12.719',0.27
'0:12.723',0.25
'0:12.727',0.42
'0:12.730',0.64
'0:12.734',1.1
'0:12.738',1.61
'0:12.742',2.04
'0:12.746',2.37
'0:12.750',2.54
'0:12.754',2.75
'0:12.758',2.77
'0:12.762',1.96
'0:12.766',0.98
'0:12.770',0.22
'0:12.773',-0.15
'0:12.777',-0.32
'0:12.781',-0.42
'0:12.785',-0.57
'0:12.789',-0.66
'0:12.793',-0.62
'0:12.797',-0.24
'0:12.801',0.47
'0:12.805',0.98
'0:12.809',0.65
'0:12.813',0.44
'0:12.816',0.86
'0:12.820',1.22
'0:12.824',0.65
'0:12.828',0.04
'0:12.832',0.17
'0:12.836',0.43
'0:12.840',0.52
'0:12.844',0.48
'0:12.848',0.27
'0:12.852',0.07
'0:12.855',-0.15
'0:12.859',-0.35
'0:12.863',-0.66
'0:12.867',-1.11
'0:12.871',-1.5
'0:12.875',-1.73
'0:12.879',-1.76
'0:12.883',-1.68
'0:12.887',-1.61
'0:12.891',-1.6
'0:12.895',-1.56
'0:12.898',-1.36
'0:12.902',-0.75
'0:12.906',0.55
'0:12.910',2.58
'0:12.914',5.39
'0:12.918',7.92
'0:12.922',7.7
'0:12.926',4.83
'0:12.930',0.87
'0:12.934',-1.86
'0:12.938',-3.29
'0:12.941',-3.78
'0:12.945',-3.77
'0:12.949',-3.59
'0:12.953',-3.42
'0:12.957',-3.34
'0:12.961',-3.33
'0:12.965',-3.22
'0:12.969',-3.06
'0:12.973',-2.71
'0:12.977',-2.19
'0:12.980',-1.64
'0:12.984',-1.43
'0:12.988',-1.46
'0:12.992',-1.4
'0:12.996',-1.24
'0:13.000',-0.88
'0:13.004',-0.62
'0:13.008',-0.45
'0:13.012',-0.34
'0:13.016',-0.01
'0:13.020',0.75
'0:13.023',1.17
'0:13.027',0.81
'0:13.031',0.69
'0:13.035',1.2
'0:13.039',2.23
'0:13.043',3.58
'0:13.047',3.95
'0:13.051',2.67
'0:13.055',1.55
'0:13.059',1.09
'0:13.063',1.06
'0:13.066',1.18
'0:13.070',1.22
'0:13.074',1.3
'0:13.078',1.49
'0:13.082',1.83
'0:13.086',2.04
'0:13.090',1.75
'0:13.094',1.05
'0:13.098',0.53
'0:13.102',0.95
'0:13.105',2.2
'0:13.109',2.8
'0:13.113',2.3
'0:13.117',0.49
'0:13.121',-1.97
'0:13.125',-3
'0:13.129',-2.79
'0:13.133',-2.04
'0:13.137',-1.2
'0:13.141',-0.53
'0:13.145',0.03
'0:13.148',0.29
'0:13.152',-0.03
'0:13.156',-0.53
'0:13.160',-0.86
'0:13.164',-0.94
'0:13.168',-0.75
'0:13.172',-0.68
'0:13.176',-0.92
'0:13.180',-1.38
'0:13.184',-1.69
'0:13.188',-1.93
'0:13.191',-2.26
'0:13.195',-2.38
'0:13.199',-1.74
'0:13.203',-0.58
'0:13.207',-1.15
'0:13.211',-3.11
'0:13.215',-4.03
'0:13.219',-3.79
'0:13.223',-2.98
'0:13.227',-1.39
'0:13.230',1.03
'0:13.234',3.94
'0:13.238',6.41
'0:13.242',6.97
'0:13.246',5.07
'0:13.250',1.84
'0:13.254',-0.43
'0:13.258',-1.03
'0:13.262',-1.4
'0:13.266',-2.8
'0:13.270',-3.9
'0:13.273',-3.54
'0:13.277',-3.79
'0:13.281',-4.56
'0:13.285',-4.59
'0:13.289',-4.11
'0:13.293',-3.42
'0:13.297',-2.87
'0:13.301',-2.48
'0:13.305',-1.97
'0:13.309',-1.39
'0:13.313',-1.06
'0:13.316',-0.95
'0:13.320',-0.94
'0:13.324',-0.58
'0:13.328',-0.12
'0:13.332',0.13
'0:13.336',0.22
'0:13.340',0.13
'0:13.344',0.09
'0:13.348',0.49
'0:13.352',1.11
'0:13.355',1.33
'0:13.359',1.16
'0:13.363',1.04
'0:13.367',1.25
'0:13.371',1.56
'0:13.375',1.92
'0:13.379',2.37
'0:13.383',2.61
'0:13.387',2.51
'0:13.391',2.16
'0:13.395',2.16
'0:13.398',1.9
'0:13.402',1.62
'0:13.406',1.32
'0:13.410',0.77
'0:13.414',0.23
'0:13.418',-0.08
'0:13.422',-0.1
'0:13.426',0.04
'0:13.430',0.26
'0:13.434',0.28
'0:13.438',0.2
'0:13.441',0.28
'0:13.445',0.4
'0:13.449',0.46
'0:13.453',0.75
'0:13.457',1.24
'0:13.461',1.46
'0:13.465',1.37
'0:13.469',1.15
'0:13.473',1.07
'0:13.477',1.14
'0:13.480',1.13
'0:13.484',0.98
'0:13.488',0.81
'0:13.492',0.67
'0:13.496',0.38
'0:13.500',-0.03
'0:13.504',-0.34
'0:13.508',-0.48
'0:13.512',-0.57
'0:13.516',-0.69
'0:13.520',-0.75
'0:13.523',-0.88
'0:13.527',-1.02
'0:13.531',-0.91
'0:13.535',-0.68
'0:13.539',0.04
'0:13.543',1.58
'0:13.547',3.6
'0:13.551',5.88
'0:13.555',7.6
'0:13.559',7.38
'0:13.563',5.34
'0:13.566',2.41
'0:13.570',0.02
'0:13.574',-1.43
'0:13.578',-2.21
'0:13.582',-2.43
'0:13.586',-2.41
'0:13.590',-2.36
'0:13.594',-2.31
'0:13.598',-2.28
'0:13.602',-2.24
'0:13.605',-2.2
'0:13.609',-2.07
'0:13.613',-2.04
'0:13.617',-1.97
'0:13.621',-1.75
'0:13.625',-1.6
'0:13.629',-1.33
'0:13.633',-0.76
'0:13.637',0.01
'0:13.641',0.46
'0:13.645',0.25
'0:13.648',0
'0:13.652',0.22
'0:13.656',0.67
'0:13.660',1.1
'0:13.664',1.24
'0:13.668',1.43
'0:13.672',1.61
'0:13.676',1.69
'0:13.680',1.93
'0:13.684',2.29
'0:13.688',2.82
'0:13.691',3.37
'0:13.695',3.67
'0:13.699',3.77
'0:13.703',3.69
'0:13.707',3.5
'0:13.711',3.24
'0:13.715',3
'0:13.719',2.79
'0:13.723',2.62
'0:13.727',2.36
'0:13.730',2.2
'0:13.734',1.99
'0:13.738',1.53
'0:13.742',0.94
'0:13.746',0.42
'0:13.750',0.14
'0:13.754',0.05
'0:13.758',-0.02
'0:13.762',0.1
'0:13.766',0.28
'0:13.770',0.48
'0:13.773',0.59
'0:13.777',0.69
'0:13.781',0.96
'0:13.785',1.07
'0:13.789',1.03
'0:13.793',0.89
'0:13.797',0.75
'0:13.801',0.6
'0:13.805',0.45
'0:13.809',0.18
'0:13.813',-0.26
'0:13.816',-0.72
'0:13.820',-1.07
'0:13.824',-1.21
'0:13.828',-1.3
'0:13.832',-1.52
'0:13.836',-1.78
'0:13.840',-2.08
'0:13.844',-2.25
'0:13.848',-2.39
'0:13.852',-2.33
'0:13.855',-2.07
'0:13.859',-1.41
'0:13.863',-0.08
'0:13.867',1.92
'0:13.871',4.45
'0:13.875',6.45
'0:13.879',6.26
'0:13.883',4.12
'0:13.887',1.22
'0:13.891',-1.18
'0:13.895',-2.63
'0:13.898',-3.14
'0:13.902',-3.16
'0:13.906',-3.26
'0:13.910',-3.36
'0:13.914',-3.18
'0:13.918',-2.72
'0:13.922',-1.75
'0:13.926',0
'0:13.930',0.9
'0:13.934',-0.14
'0:13.938',-1.46
'0:13.941',-2.44
'0:13.945',-2.62
'0:13.949',-2.27
'0:13.953',-2.06
'0:13.957',-1.6
'0:13.961',-0.58
'0:13.965',0.36
'0:13.969',1.09
'0:13.973',1.15
'0:13.977',0.6
'0:13.980',0.33
'0:13.984',0.85
'0:13.988',1.57
'0:13.992',2.02
'0:13.996',2.97
'0:14.000',4.41
'0:14.004',4.31
'0:14.008',2.26
'0:14.012',0.61
'0:14.016',0.43
'0:14.020',1.62
'0:14.023',2.53
'0:14.027',1.79
'0:14.031',0.86
'0:14.035',0.47
'0:14.039',0.3
'0:14.043',0.3
'0:14.047',0.21
'0:14.051',0.1
'0:14.055',0.16
'0:14.059',0.33
'0:14.063',0.42
'0:14.066',0.03
'0:14.070',-0.85
'0:14.074',-1.23
'0:14.078',-1.24
'0:14.082',-1.18
'0:14.086',-1.03
'0:14.090',-0.75
'0:14.094',-0.37
'0:14.098',-0.1
'0:14.102',-0.26
'0:14.105',-0.45
'0:14.109',-0.42
'0:14.113',-0.28
'0:14.117',-0.16
'0:14.121',-0.47
'0:14.125',-0.94
'0:14.129',-1.19
'0:14.133',-0.9
'0:14.137',-0.09
'0:14.141',-0.16
'0:14.145',-1.35
'0:14.148',-2.66
'0:14.152',-3.59
'0:14.156',-3.55
'0:14.160',-3.05
'0:14.164',-2.91
'0:14.168',-2.89
'0:14.172',-2.47
'0:14.176',-1.44
'0:14.180',0.01
'0:14.184',1.46
'0:14.188',3.71
'0:14.191',6.17
'0:14.195',6.89
'0:14.199',5.01
'0:14.203',1.44
'0:14.207',-1.67
'0:14.211',-3.67
'0:14.215',-4.73
'0:14.219',-4.97
'0:14.223',-4.81
'0:14.227',-4.36
'0:14.230',-3.79
'0:14.234',-3.34
'0:14.238',-3.12
'0:14.242',-2.79
'0:14.246',-1.99
'0:14.250',-1.26
'0:14.254',-1.56
'0:14.258',-2.09
'0:14.262',-2.28
'0:14.266',-2.26
'0:14.270',-1.93
'0:14.273',-1.45
'0:14.277',-0.98
'0:14.281',-0.54
'0:14.285',-0.25
'0:14.289',-0.06
'0:14.293',0.27
'0:14.297',0.72
'0:14.301',1.34
'0:14.305',1.68
'0:14.309',1.55
'0:14.313',1.36
'0:14.316',1.53
'0:14.320',1.97
'0:14.324',2.21
'0:14.328',2.3
'0:14.332',2.34
'0:14.336',2.44
'0:14.340',2.86
'0:14.344',3.2
'0:14.348',3.18
'0:14.352',3.09
'0:14.355',2.81
'0:14.359',2.4
'0:14.363',1.88
'0:14.367',1.63
'0:14.371',1.52
'0:14.375',1.13
'0:14.379',0.26
'0:14.383',-0.29
'0:14.387',-0.43
'0:14.391',-0.34
'0:14.395',-0.19
'0:14.398',0.1
'0:14.402',0.41
'0:14.406',0.82
'0:14.410',1.3
'0:14.414',1.71
'0:14.418',1.83
'0:14.422',1.94
'0:14.426',1.89
'0:14.430',1.77
'0:14.434',1.71
'0:14.438',1.61
'0:14.441',1.43
'0:14.445',1.18
'0:14.449',0.79
'0:14.453',0.45
'0:14.457',0.25
'0:14.461',0.04
'0:14.465',-0.32
'0:14.469',-0.62
'0:14.473',-0.68
'0:14.477',-0.84
'0:14.480',-0.86
'0:14.484',-0.82
'0:14.488',-0.85
'0:14.492',-0.77
'0:14.496',-0.26
'0:14.500',1.25
'0:14.504',3.76
'0:14.508',6.64
'0:14.512',8.72
'0:14.516',9.03
'0:14.520',6.94
'0:14.523',3.29
'0:14.527',0.2
'0:14.531',-1.52
'0:14.535',-2.63
'0:14.539',-3.77
'0:14.543',-4.7
'0:14.547',-4.89
'0:14.551',-4.55
'0:14.555',-4.33
'0:14.559',-4
'0:14.563',-3.58
'0:14.566',-3.12
'0:14.570',-2.72
'0:14.574',-2.46
'0:14.578',-2.17
'0:14.582',-1.83
'0:14.586',-1.16
'0:14.590',-0.22
'0:14.594',0.21
'0:14.598',0.24
'0:14.602',0.36
'0:14.605',0.3
'0:14.609',-0.45
'0:14.613',-1.43
'0:14.617',-1.75
'0:14.621',-1.54
'0:14.625',-0.94
'0:14.629',-0.13
'0:14.633',0.72
'0:14.637',1.31
'0:14.641',1.46
'0:14.645',1.6
'0:14.648',1.92
'0:14.652',2.4
'0:14.656',2.9
'0:14.660',3.2
'0:14.664',3.16
'0:14.668',2.7
'0:14.672',2.05
'0:14.676',1.53
'0:14.680',1.43
'0:14.684',1.62
'0:14.688',1.82
'0:14.691',1
'0:14.695',-0.26
'0:14.699',-1.03
'0:14.703',-1.36
'0:14.707',-1.28
'0:14.711',-1.11
'0:14.715',-0.83
'0:14.719',-0.43
'0:14.723',-0.24
'0:14.727',-0.26
'0:14.730',-0.17
'0:14.734',0.38
'0:14.738',1.43
'0:14.742',2.47
'0:14.746',2.49
'0:14.750',2.49
'0:14.754',2.49
'0:14.758',0.08
'0:14.762',-0.43
'0:14.766',-0.26
'0:14.770',-0.04
'0:14.773',-0.39
'0:14.777',-1.17
'0:14.781',-2.03
'0:14.785',-2.4
'0:14.789',-2.44
'0:14.793',-2.43
'0:14.797',-2.22
'0:14.801',-2.44
'0:14.805',-2.66
'0:14.809',-2.62
'0:14.813',-2.23
'0:14.816',-1.41
'0:14.820',0.3
'0:14.824',2.5
'0:14.828',4.67
'0:14.832',6.57
'0:14.836',6.97
'0:14.840',5.23
'0:14.844',2.06
'0:14.848',-0.94
'0:14.852',-2.79
'0:14.855',-3.52
'0:14.859',-3.85
'0:14.863',-4.17
'0:14.867',-4.32
'0:14.871',-4.25
'0:14.875',-4.25
'0:14.879',-4.4
'0:14.883',-4.34
'0:14.887',-3.76
'0:14.891',-3.1
'0:14.895',-2.76
'0:14.898',-2.71
'0:14.902',-2.44
'0:14.906',-1.92
'0:14.910',-1.37
'0:14.914',-0.96
'0:14.918',-0.98
'0:14.922',-1.38
'0:14.926',-1.69
'0:14.930',-1.82
'0:14.934',-1.69
'0:14.938',-1.45
'0:14.941',-1.26
'0:14.945',-0.91
'0:14.949',-0.42
'0:14.953',-0.11
'0:14.957',-0.14
'0:14.961',-0.22
'0:14.965',-0.05
'0:14.969',0.4
'0:14.973',0.85
'0:14.977',1.29
'0:14.980',1.53
'0:14.984',1.51
'0:14.988',1.45
'0:14.992',1.33
'0:14.996',1.01
'0:15.000',0.7
'0:15.004',0.48
'0:15.008',0.29
'0:15.012',0.04
'0:15.016',-0.13
'0:15.020',-0.26
'0:15.023',-0.35
'0:15.027',-0.43
'0:15.031',-0.33
'0:15.035',-0.07
'0:15.039',0.17
'0:15.043',0.09
'0:15.047',-0.07
'0:15.051',0.01
'0:15.055',0.21
'0:15.059',0.37
'0:15.063',0.44
'0:15.066',0.51
'0:15.070',0.52
'0:15.074',0.43
'0:15.078',0.24
'0:15.082',0
'0:15.086',-0.25
'0:15.090',-0.67
'0:15.094',-1.16
'0:15.098',-1.54
'0:15.102',-1.78
'0:15.105',-1.87
'0:15.109',-2.05
'0:15.113',-2.29
'0:15.117',-2.52
'0:15.121',-2.69
'0:15.125',-2.74
'0:15.129',-2.45
'0:15.133',-1.85
'0:15.137',-0.84
'0:15.141',0.62
'0:15.145',2.62
'0:15.148',5.04
'0:15.152',6.85
'0:15.156',6.62
'0:15.160',4.2
'0:15.164',0.9
'0:15.168',-1.59
'0:15.172',-3.19
'0:15.176',-4.1
'0:15.180',-4.38
'0:15.184',-4.33
'0:15.188',-4.13
'0:15.191',-3.85
'0:15.195',-3.51
'0:15.199',-3.01
'0:15.203',-2.5
'0:15.207',-1.98
'0:15.211',-1.68
'0:15.215',-1.49
'0:15.219',-1.16
'0:15.223',-0.91
'0:15.227',-0.69
'0:15.230',-0.52
'0:15.234',-0.39
'0:15.238',-0.46
'0:15.242',-0.33
'0:15.246',-0.02
'0:15.250',0.21
'0:15.254',0.35
'0:15.258',0.26
'0:15.262',0.08
'0:15.266',-0.02
'0:15.270',0.01
'0:15.273',0.3
'0:15.277',0.63
'0:15.281',1.09
'0:15.285',1.53
'0:15.289',1.8
'0:15.293',1.86
'0:15.297',1.95
'0:15.301',2.03
'0:15.305',1.94
'0:15.309',1.55
'0:15.313',1.1
'0:15.316',0.66
'0:15.320',0.4
'0:15.324',0.24
'0:15.328',-0.05
'0:15.332',-0.3
'0:15.336',-0.32
'0:15.340',-0.27
'0:15.344',-0.29
'0:15.348',-0.32
'0:15.352',-0.26
'0:15.355',-0.36
'0:15.359',-0.46
'0:15.363',-0.61
'0:15.367',-0.56
'0:15.371',-0.41
'0:15.375',-0.31
'0:15.379',0
'0:15.383',0.63
'0:15.387',1.39
'0:15.391',2.03
'0:15.395',2.44
'0:15.398',2.5
'0:15.402',2.34
'0:15.406',2.32
'0:15.410',2.38
'0:15.414',2.21
'0:15.418',1.04
'0:15.422',-0.48
'0:15.426',-1.63
'0:15.430',-2.57
'0:15.434',-3.14
'0:15.438',-3.46
'0:15.441',-3.71
'0:15.445',-3.82
'0:15.449',-3.65
'0:15.453',-3.16
'0:15.457',-2.35
'0:15.461',-0.75
'0:15.465',1.75
'0:15.469',4.38
'0:15.473',5.82
'0:15.477',4.94
'0:15.480',2.57
'0:15.484',0.3
'0:15.488',-0.36
'0:15.492',0.08
'0:15.496',-0.48
'0:15.500',-2.53
'0:15.504',-4.19
'0:15.508',-4.61
'0:15.512',-4.42
'0:15.516',-3.96
'0:15.520',-3.2
'0:15.523',-2.46
'0:15.527',-1.69
'0:15.531',-0.98
'0:15.535',-0.6
'0:15.539',-0.55
'0:15.543',-0.58
'0:15.547',-0.81
'0:15.551',-0.8
'0:15.555',-0.79
'0:15.559',-0.99
'0:15.563',-1.25
'0:15.566',-1.43
'0:15.570',-1.28
'0:15.574',-1.01
'0:15.578',-0.79
'0:15.582',-0.43
'0:15.586',0.02
'0:15.590',0.26
'0:15.594',0.65
'0:15.598',1.13
'0:15.602',1.34
'0:15.605',1.38
'0:15.609',1.34
'0:15.613',1.51
'0:15.617',1.89
'0:15.621',2.07
'0:15.625',1.97
'0:15.629',1.83
'0:15.633',1.85
'0:15.637',1.84
'0:15.641',1.63
'0:15.645',1.38
'0:15.648',1.29
'0:15.652',1.23
'0:15.656',0.98
'0:15.660',0.56
'0:15.664',0.37
'0:15.668',0.57
'0:15.672',0.74
'0:15.676',0.85
'0:15.680',1.02
'0:15.684',1.21
'0:15.688',1.33
'0:15.691',1.31
'0:15.695',1.05
'0:15.699',0.65
'0:15.703',-0.16
'0:15.707',-1.03
'0:15.711',-1.73
'0:15.715',-1.86
'0:15.719',-1.76
'0:15.723',-1.7
'0:15.727',-1.77
'0:15.730',-1.98
'0:15.734',-2.31
'0:15.738',-2.5
'0:15.742',-2.58
'0:15.746',-2.53
'0:15.750',-2.48
'0:15.754',-2.29
'0:15.758',-2.05
'0:15.762',-2.21
'0:15.766',-2.69
'0:15.770',-2.94
'0:15.773',-2.4
'0:15.777',-0.95
'0:15.781',1.07
'0:15.785',3.35
'0:15.789',5.11
'0:15.793',4.8
'0:15.797',2.78
'0:15.801',0.17
'0:15.805',-1.9
'0:15.809',-3.48
'0:15.813',-4.45
'0:15.816',-4.81
'0:15.820',-4.64
'0:15.824',-4.23
'0:15.828',-3.77
'0:15.832',-3.26
'0:15.836',-2.85
'0:15.840',-2.5
'0:15.844',-2.24
'0:15.848',-2
'0:15.852',-1.69
'0:15.855',-1.54
'0:15.859',-1.38
'0:15.863',-1.21
'0:15.867',-1.12
'0:15.871',-1.03
'0:15.875',-0.77
'0:15.879',-0.31
'0:15.883',0.09
'0:15.887',-0.02
'0:15.891',-0.34
'0:15.895',-0.66
'0:15.898',-0.73
'0:15.902',-0.65
'0:15.906',-0.29
'0:15.910',0.14
'0:15.914',0.78
'0:15.918',1.69
'0:15.922',2.59
'0:15.926',3.05
'0:15.930',3.23
'0:15.934',3.53
'0:15.938',3.8
'0:15.941',3.89
'0:15.945',3.82
'0:15.949',3.54
'0:15.953',3.02
'0:15.957',2.48
'0:15.961',2.09
'0:15.965',1.89
'0:15.969',1.56
'0:15.973',1.28
'0:15.977',0.99
'0:15.980',0.71
'0:15.984',0.3
'0:15.988',0.15
'0:15.992',0.08
'0:15.996',0.03
'0:16.000',0.16
'0:16.004',0.4
'0:16.008',0.51
'0:16.012',0.54
'0:16.016',0.48
'0:16.020',0.31
'0:16.023',0.16
'0:16.027',-0.03
'0:16.031',-0.12
'0:16.035',-0.01
'0:16.039',0.14
'0:16.043',0.05
'0:16.047',-0.39
'0:16.051',-0.92
'0:16.055',-1.24
'0:16.059',-1.29
'0:16.063',-1.29
'0:16.066',-1.45
'0:16.070',-1.62
'0:16.074',-1.6
'0:16.078',-1.53
'0:16.082',-1.61
'0:16.086',-1.38
'0:16.090',-0.67
'0:16.094',0.56
'0:16.098',2.39
'0:16.102',4.52
'0:16.105',6.5
'0:16.109',7.14
'0:16.113',5.94
'0:16.117',3.47
'0:16.121',0.72
'0:16.125',-1.76
'0:16.129',-3.71
'0:16.133',-4.72
'0:16.137',-4.59
'0:16.141',-3.88
'0:16.145',-3.31
'0:16.148',-3.02
'0:16.152',-2.75
'0:16.156',-2.45
'0:16.160',-2.1
'0:16.164',-1.74
'0:16.168',-1.52
'0:16.172',-1.41
'0:16.176',-1.42
'0:16.180',-1.08
'0:16.184',-0.79
'0:16.188',-0.97
'0:16.191',-1.31
'0:16.195',-1.48
'0:16.199',-1.22
'0:16.203',-0.72
'0:16.207',-0.4
'0:16.211',-0.42
'0:16.215',-0.56
'0:16.219',-0.22
'0:16.223',0.49
'0:16.227',0.84
'0:16.230',0.82
'0:16.234',0.87
'0:16.238',1.19
'0:16.242',1.62
'0:16.246',1.83
'0:16.250',2.19
'0:16.254',2.54
'0:16.258',2.62
'0:16.262',2.61
'0:16.266',2.67
'0:16.270',2.76
'0:16.273',2.53
'0:16.277',2.07
'0:16.281',1.49
'0:16.285',1.08
'0:16.289',0.58
'0:16.293',0.14
'0:16.297',-0.45
'0:16.301',-1
'0:16.305',-0.88
'0:16.309',-0.41
'0:16.313',-0.07
'0:16.316',0.47
'0:16.320',0.6
'0:16.324',0.31
'0:16.328',0.41
'0:16.332',1.09
'0:16.336',1.32
'0:16.340',0.54
'0:16.344',-0.62
'0:16.348',-1.45
'0:16.352',-1.76
'0:16.355',-1.57
'0:16.359',-0.77
'0:16.363',0.87
'0:16.367',2.33
'0:16.371',2.31
'0:16.375',0.97
'0:16.379',-1.54
'0:16.383',-3.74
'0:16.387',-4.67
'0:16.391',-4.69
'0:16.395',-4.31
'0:16.398',-4.17
'0:16.402',-3.96
'0:16.406',-3.14
'0:16.410',-1.78
'0:16.414',0.74
'0:16.418',4.19
'0:16.422',6.48
'0:16.426',7.28
'0:16.430',7.13
'0:16.434',5.44
'0:16.438',2.23
'0:16.441',-1.21
'0:16.445',-3.42
'0:16.449',-4.63
'0:16.453',-5.27
'0:16.457',-4.84
'0:16.461',-3.29
'0:16.465',-2.28
'0:16.469',-2.65
'0:16.473',-3.37
'0:16.477',-3.79
'0:16.480',-4.04
'0:16.484',-4.38
'0:16.488',-4.51
'0:16.492',-4.22
'0:16.496',-3.74
'0:16.500',-3.43
'0:16.504',-3.11
'0:16.508',-2.58
'0:16.512',-1.92
'0:16.516',-1.28
'0:16.520',-0.83
'0:16.523',-0.55
'0:16.527',-0.64
'0:16.531',-0.9
'0:16.535',-1.45
'0:16.539',-1.98
'0:16.543',-1.95
'0:16.547',-1.85
'0:16.551',-1.27
'0:16.555',-0.38
'0:16.559',-0.05
'0:16.563',0.45
'0:16.566',1.19
'0:16.570',1.97
'0:16.574',2.6
'0:16.578',3.02
'0:16.582',3.28
'0:16.586',3.2
'0:16.590',2.82
'0:16.594',2.3
'0:16.598',1.93
'0:16.602',1.74
'0:16.605',1.48
'0:16.609',1.13
'0:16.613',0.97
'0:16.617',1.05
'0:16.621',0.99
'0:16.625',0.79
'0:16.629',0.66
'0:16.633',0.75
'0:16.637',0.86
'0:16.641',0.98
'0:16.645',1.23
'0:16.648',1.45
'0:16.652',1.69
'0:16.656',1.83
'0:16.660',1.93
'0:16.664',2
'0:16.668',1.93
'0:16.672',1.9
'0:16.676',1.84
'0:16.680',1.54
'0:16.684',1.02
'0:16.688',0.42
'0:16.691',-0.5
'0:16.695',-2.08
'0:16.699',-3.57
'0:16.703',-4.53
'0:16.707',-5.05
'0:16.711',-5.62
'0:16.715',-5.95
'0:16.719',-5.88
'0:16.723',-5.55
'0:16.727',-4.99
'0:16.730',-4.04
'0:16.734',-2.44
'0:16.738',-0.28
'0:16.742',2.24
'0:16.746',4.6
'0:16.750',5.76
'0:16.754',4.81
'0:16.758',2.35
'0:16.762',-0.41
'0:16.766',-2.42
'0:16.770',-3.46
'0:16.773',-3.67
'0:16.777',-3.3
'0:16.781',-2.69
'0:16.785',-2.22
'0:16.789',-2.02
'0:16.793',-2.05
'0:16.797',-2.04
'0:16.801',-1.72
'0:16.805',-1
'0:16.809',-0.17
'0:16.813',0.39
'0:16.816',0.69
'0:16.820',1.3
'0:16.824',2.34
'0:16.828',2.4
'0:16.832',1.78
'0:16.836',1.19
'0:16.840',0.56
'0:16.844',0.27
'0:16.848',0.38
'0:16.852',0.31
'0:16.855',0.4
'0:16.859',0.91
'0:16.863',1.72
'0:16.867',3.18
'0:16.871',4.47
'0:16.875',4.74
'0:16.879',4.88
'0:16.883',5.29
'0:16.887',5.62
'0:16.891',5.98
'0:16.895',6.14
'0:16.898',6.09
'0:16.902',6.31
'0:16.906',6.88
'0:16.910',7.05
'0:16.914',6.44
'0:16.918',5.44
'0:16.922',4.23
'0:16.926',3.12
'0:16.930',2.31
'0:16.934',1.82
'0:16.938',1.98
'0:16.941',2.86
'0:16.945',2.89
'0:16.949',1.73
'0:16.953',1.72
'0:16.957',2.87
'0:16.961',3.21
'0:16.965',2.07
'0:16.969',0.06
'0:16.973',-1.65
'0:16.977',-2.18
'0:16.980',-2.13
'0:16.984',-2.02
'0:16.988',-1.98
'0:16.992',-1.77
'0:16.996',-1.34
'0:17.000',-1.07
'0:17.004',-0.98
'0:17.008',-0.93
'0:17.012',-1.42
'0:17.016',-1.94
'0:17.020',-2.06
'0:17.023',-0.47
'0:17.027',0.78
'0:17.031',0.04
'0:17.035',-1.8
'0:17.039',-3.9
'0:17.043',-4.51
'0:17.047',-1.57
'0:17.051',0.57
'0:17.055',-1.54
'0:17.059',-2
'0:17.063',-0.37
'0:17.066',2.96
'0:17.070',6.24
'0:17.074',7.09
'0:17.078',4.93
'0:17.082',1.41
'0:17.086',-1.2
'0:17.090',-2.47
'0:17.094',-3.08
'0:17.098',-3.49
'0:17.102',-3.51
'0:17.105',-3.52
'0:17.109',-3.49
'0:17.113',-3.13
'0:17.117',-2.72
'0:17.121',-2.63
'0:17.125',-2.32
'0:17.129',-1.94
'0:17.133',-1.89
'0:17.137',-1.66
'0:17.141',-1.47
'0:17.145',-1.26
'0:17.148',-1.12
'0:17.152',-0.93
'0:17.156',-0.49
'0:17.160',-0.25
'0:17.164',-0.22
'0:17.168',-0.24
'0:17.172',-0.31
'0:17.176',-0.2
'0:17.180',-0.03
'0:17.184',0.11
'0:17.188',0.32
'0:17.191',0.77
'0:17.195',1.24
'0:17.199',1.62
'0:17.203',1.88
'0:17.207',2.18
'0:17.211',2.41
'0:17.215',2.33
'0:17.219',1.87
'0:17.223',1.42
'0:17.227',1.65
'0:17.230',2.2
'0:17.234',2.86
'0:17.238',3.19
'0:17.242',2.89
'0:17.246',1.91
'0:17.250',1.17
'0:17.254',0.81
'0:17.258',0.42
'0:17.262',0.4
'0:17.266',0.48
'0:17.270',0.54
'0:17.273',0.51
'0:17.277',0.47
'0:17.281',0.4
'0:17.285',0.5
'0:17.289',0.89
'0:17.293',1.2
'0:17.297',1.16
'0:17.301',0.94
'0:17.305',0.91
'0:17.309',0.83
'0:17.313',0.92
'0:17.316',0.9
'0:17.320',0.88
'0:17.324',0.7
'0:17.328',0.32
'0:17.332',-0.02
'0:17.336',-0.31
'0:17.340',-0.6
'0:17.344',-0.95
'0:17.348',-1.2
'0:17.352',-1.47
'0:17.355',-1.73
'0:17.359',-1.88
'0:17.363',-1.72
'0:17.367',-1.43
'0:17.371',-1.02
'0:17.375',0.11
'0:17.379',2.34
'0:17.383',5.12
'0:17.387',7.88
'0:17.391',9.1
'0:17.395',7.69
'0:17.398',4.41
'0:17.402',0.78
'0:17.406',-1.75
'0:17.410',-3.04
'0:17.414',-3.62
'0:17.418',-3.92
'0:17.422',-3.78
'0:17.426',-3.4
'0:17.430',-2.98
'0:17.434',-2.7
'0:17.438',-2.55
'0:17.441',-2.28
'0:17.445',-2.01
'0:17.449',-1.77
'0:17.453',-1.66
'0:17.457',-1.5
'0:17.461',-1.48
'0:17.465',-1.48
'0:17.469',-1.34
'0:17.473',-1.19
'0:17.477',-0.96
'0:17.480',-0.85
'0:17.484',-0.82
'0:17.488',-0.37
'0:17.492',-0.04
'0:17.496',-0.09
'0:17.500',0.11
'0:17.504',0.44
'0:17.508',0.62
'0:17.512',0.95
'0:17.516',1.22
'0:17.520',1.59
'0:17.523',2.28
'0:17.527',2.76
'0:17.531',2.79
'0:17.535',2.72
'0:17.539',2.66
'0:17.543',2.55
'0:17.547',2.35
'0:17.551',2.07
'0:17.555',1.77
'0:17.559',1.45
'0:17.563',1.17
'0:17.566',0.78
'0:17.570',0.53
'0:17.574',0.3
'0:17.578',-0.08
'0:17.582',-0.3
'0:17.586',-0.39
'0:17.590',-0.36
'0:17.594',-0.23
'0:17.598',0.01
'0:17.602',0.23
'0:17.605',0.45
'0:17.609',0.73
'0:17.613',0.97
'0:17.617',1.05
'0:17.621',1.02
'0:17.625',1.03
'0:17.629',1.09
'0:17.633',1.08
'0:17.637',0.92
'0:17.641',0.6
'0:17.645',0.26
'0:17.648',-0.16
'0:17.652',-0.6
'0:17.656',-1.02
'0:17.660',-1.4
'0:17.664',-1.6
'0:17.668',-1.81
'0:17.672',-2.06
'0:17.676',-2.33
'0:17.680',-2.54
'0:17.684',-2.54
'0:17.688',-2.18
'0:17.691',-1.56
'0:17.695',-0.42
'0:17.699',1.24
'0:17.703',3.3
'0:17.707',5.3
'0:17.711',6.18
'0:17.715',4.94
'0:17.719',1.93
'0:17.723',-1.27
'0:17.727',-3.41
'0:17.730',-4.4
'0:17.734',-4.67
'0:17.738',-4.52
'0:17.742',-4.17
'0:17.746',-3.7
'0:17.750',-3.35
'0:17.754',-3.2
'0:17.758',-3.08
'0:17.762',-2.9
'0:17.766',-2.68
'0:17.770',-2.37
'0:17.773',-2.19
'0:17.777',-2.12
'0:17.781',-2.01
'0:17.785',-1.88
'0:17.789',-1.8
'0:17.793',-1.8
'0:17.797',-1.74
'0:17.801',-1.53
'0:17.805',-1.17
'0:17.809',-0.82
'0:17.813',-0.57
'0:17.816',-0.31
'0:17.820',0.16
'0:17.824',0.7
'0:17.828',1.12
'0:17.832',1.28
'0:17.836',1.43
'0:17.840',1.69
'0:17.844',1.96
'0:17.848',2.18
'0:17.852',2.38
'0:17.855',2.6
'0:17.859',2.64
'0:17.863',2.46
'0:17.867',2.33
'0:17.871',2.42
'0:17.875',2.35
'0:17.879',2
'0:17.883',1.3
'0:17.887',0.47
'0:17.891',-0.25
'0:17.895',-0.69
'0:17.898',-0.79
'0:17.902',-0.69
'0:17.906',-0.7
'0:17.910',-0.87
'0:17.914',-1.01
'0:17.918',-1.11
'0:17.922',-1.14
'0:17.926',-0.97
'0:17.930',-0.71
'0:17.934',-0.56
'0:17.938',-0.51
'0:17.941',-0.53
'0:17.945',-0.48
'0:17.949',-0.46
'0:17.953',-0.3
'0:17.957',-0.04
'0:17.961',0.1
'0:17.965',-0.03
'0:17.969',-0.44
'0:17.973',-0.92
'0:17.977',-1.39
'0:17.980',-1.6
'0:17.984',-1.6
'0:17.988',-1.58
'0:17.992',-1.61
'0:17.996',-1.61
'0:18.000',-1.5
'0:18.004',-1.25
'0:18.008',-1.11
'0:18.012',-0.54
'0:18.016',0.96
'0:18.020',3.32
'0:18.023',5.99
'0:18.027',7.65
'0:18.031',7.02
'0:18.035',4.41
'0:18.039',1.1
'0:18.043',-1.43
'0:18.047',-2.95
'0:18.051',-3.68
'0:18.055',-3.74
'0:18.059',-3.57
'0:18.063',-3.39
'0:18.066',-3.31
'0:18.070',-3.18
'0:18.074',-2.85
'0:18.078',-2.43
'0:18.082',-2.23
'0:18.086',-2.15
'0:18.090',-2.02
'0:18.094',-1.84
'0:18.098',-1.57
'0:18.102',-1.4
'0:18.105',-1.16
'0:18.109',-0.91
'0:18.113',-0.64
'0:18.117',-0.44
'0:18.121',-0.31
'0:18.125',-0.22
'0:18.129',0.06
'0:18.133',0.25
'0:18.137',0.33
'0:18.141',0.61
'0:18.145',1.03
'0:18.148',1.5
'0:18.152',1.91
'0:18.156',2.21
'0:18.160',2.57
'0:18.164',2.79
'0:18.168',2.85
'0:18.172',2.88
'0:18.176',2.84
'0:18.180',2.64
'0:18.184',2.38
'0:18.188',2.13
'0:18.191',1.82
'0:18.195',1.6
'0:18.199',1.34
'0:18.203',0.88
'0:18.207',0.47
'0:18.211',0.23
'0:18.215',0.02
'0:18.219',-0.27
'0:18.223',-0.5
'0:18.227',-0.49
'0:18.230',-0.29
'0:18.234',-0.08
'0:18.238',0.07
'0:18.242',0.38
'0:18.246',0.74
'0:18.250',0.95
'0:18.254',0.89
'0:18.258',0.67
'0:18.262',0.52
'0:18.266',0.46
'0:18.270',0.49
'0:18.273',0.42
'0:18.277',0.32
'0:18.281',0.14
'0:18.285',-0.2
'0:18.289',-0.54
'0:18.293',-0.84
'0:18.297',-1.08
'0:18.301',-1.26
'0:18.305',-1.38
'0:18.309',-1.41
'0:18.313',-1.48
'0:18.316',-1.66
'0:18.320',-1.86
'0:18.324',-1.79
'0:18.328',-1.38
'0:18.332',-0.25
'0:18.336',1.62
'0:18.340',4.07
'0:18.344',6.73
'0:18.348',8.26
'0:18.352',7.34
'0:18.355',4.32
'0:18.359',0.83
'0:18.363',-1.78
'0:18.367',-3.33
'0:18.371',-4.04
'0:18.375',-4.19
'0:18.379',-4.05
'0:18.383',-3.81
'0:18.387',-3.67
'0:18.391',-3.52
'0:18.395',-3.35
'0:18.398',-3.21
'0:18.402',-3.12
'0:18.406',-2.89
'0:18.410',-2.64
'0:18.414',-2.42
'0:18.418',-2.25
'0:18.422',-1.92
'0:18.426',-1.55
'0:18.430',-1.29
'0:18.434',-1.08
'0:18.438',-1
'0:18.441',-0.91
'0:18.445',-0.72
'0:18.449',-0.41
'0:18.453',-0.11
'0:18.457',0.11
'0:18.461',0.19
'0:18.465',0.38
'0:18.469',0.64
'0:18.473',0.96
'0:18.477',1.3
'0:18.480',1.6
'0:18.484',1.88
'0:18.488',2.11
'0:18.492',2.19
'0:18.496',2.24
'0:18.500',2.27
'0:18.504',2.24
'0:18.508',2.22
'0:18.512',2.09
'0:18.516',1.8
'0:18.520',1.37
'0:18.523',0.89
'0:18.527',0.53
'0:18.531',0.18
'0:18.535',-0.24
'0:18.539',-0.43
'0:18.543',-0.36
'0:18.547',-0.35
'0:18.551',-0.44
'0:18.555',-0.33
'0:18.559',0.01
'0:18.563',0.29
'0:18.566',0.35
'0:18.570',0.32
'0:18.574',0.37
'0:18.578',0.52
'0:18.582',0.61
'0:18.586',0.41
'0:18.590',0.04
'0:18.594',-0.16
'0:18.598',-0.19
'0:18.602',-0.39
'0:18.605',-0.8
'0:18.609',-1.11
'0:18.613',-1.3
'0:18.617',-1.43
'0:18.621',-1.59
'0:18.625',-1.77
'0:18.629',-1.89
'0:18.633',-1.99
'0:18.637',-2.22
'0:18.641',-2.5
'0:18.645',-2.38
'0:18.648',-1.94
'0:18.652',-0.99
'0:18.656',0.55
'0:18.660',2.66
'0:18.664',5.03
'0:18.668',6.31
'0:18.672',5.09
'0:18.676',1.98
'0:18.680',-1.11
'0:18.684',-3.16
'0:18.688',-4.23
'0:18.691',-4.61
'0:18.695',-4.65
'0:18.699',-4.5
'0:18.703',-4.18
'0:18.707',-3.87
'0:18.711',-3.52
'0:18.715',-3.17
'0:18.719',-2.89
'0:18.723',-2.69
'0:18.727',-2.49
'0:18.730',-2.25
'0:18.734',-1.96
'0:18.738',-1.76
'0:18.742',-1.59
'0:18.746',-1.37
'0:18.750',-1.1
'0:18.754',-0.96
'0:18.758',-0.79
'0:18.762',-0.57
'0:18.766',-0.42
'0:18.770',-0.3
'0:18.773',-0.13
'0:18.777',0.11
'0:18.781',0.35
'0:18.785',0.58
'0:18.789',0.77
'0:18.793',1.01
'0:18.797',1.4
'0:18.801',1.71
'0:18.805',1.92
'0:18.809',2.09
'0:18.813',2.22
'0:18.816',2.27
'0:18.820',2.13
'0:18.824',1.91
'0:18.828',1.76
'0:18.832',1.55
'0:18.836',1.28
'0:18.840',0.9
'0:18.844',0.47
'0:18.848',0.04
'0:18.852',-0.16
'0:18.855',-0.24
'0:18.859',-0.33
'0:18.863',-0.39
'0:18.867',-0.36
'0:18.871',-0.14
'0:18.875',0.18
'0:18.879',0.59
'0:18.883',0.87
'0:18.887',1.02
'0:18.891',1.12
'0:18.895',1.11
'0:18.898',1
'0:18.902',0.88
'0:18.906',0.79
'0:18.910',0.66
'0:18.914',0.56
'0:18.918',0.41
'0:18.922',0.14
'0:18.926',-0.08
'0:18.930',-0.3
'0:18.934',-0.58
'0:18.938',-0.84
'0:18.941',-1.19
'0:18.945',-1.56
'0:18.949',-1.68
'0:18.953',-1.87
'0:18.957',-2.02
'0:18.961',-1.89
'0:18.965',-1.44
'0:18.969',-0.75
'0:18.973',0.51
'0:18.977',2.48
'0:18.980',4.87
'0:18.984',6.66
'0:18.988',6.4
'0:18.992',3.93
'0:18.996',0.53
'0:19.000',-1.93
'0:19.004',-3.27
'0:19.008',-3.9
'0:19.012',-3.95
'0:19.016',-3.8
'0:19.020',-3.82
'0:19.023',-3.94
'0:19.027',-3.82
'0:19.031',-2.35
'0:19.035',-1.16
'0:19.039',-1.79
'0:19.043',-3.07
'0:19.047',-3.49
'0:19.051',-3.43
'0:19.055',-3.17
'0:19.059',-2.63
'0:19.063',-2.05
'0:19.066',-1.78
'0:19.070',-1.71
'0:19.074',-1.15
'0:19.078',-0.51
'0:19.082',-0.23
'0:19.086',0.67
'0:19.090',2.62
'0:19.094',3.54
'0:19.098',2.35
'0:19.102',1.03
'0:19.105',1.02
'0:19.109',1.35
'0:19.113',1.48
'0:19.117',1.52
'0:19.121',1.21
'0:19.125',1.36
'0:19.129',2.12
'0:19.133',2.66
'0:19.137',2.72
'0:19.141',2.37
'0:19.145',1.61
'0:19.148',1.18
'0:19.152',1.38
'0:19.156',1.45
'0:19.160',1.22
'0:19.164',1.11
'0:19.168',0.29
'0:19.172',-0.91
'0:19.176',-1.52
'0:19.180',-1.61
'0:19.184',-1.33
'0:19.188',-0.8
'0:19.191',-0.64
'0:19.195',-0.74
'0:19.199',-0.41
'0:19.203',0.25
'0:19.207',0.75
'0:19.211',0.5
'0:19.215',0.01
'0:19.219',-0.46
'0:19.223',0.21
'0:19.227',0.84
'0:19.230',0.47
'0:19.234',-0.35
'0:19.238',-0.77
'0:19.242',-0.98
'0:19.246',-1.26
'0:19.250',-1.48
'0:19.254',-1.72
'0:19.258',-2.16
'0:19.262',-2.18
'0:19.266',-2.09
'0:19.270',-2.07
'0:19.273',-2.02
'0:19.277',-1.96
'0:19.281',-1.7
'0:19.285',-1.24
'0:19.289',-0.47
'0:19.293',0.84
'0:19.297',2.69
'0:19.301',5.14
'0:19.305',6.42
'0:19.309',5.29
'0:19.313',2.7
'0:19.316',0
'0:19.320',-1.84
'0:19.324',-2.91
'0:19.328',-3.35
'0:19.332',-3.39
'0:19.336',-3.31
'0:19.340',-3.28
'0:19.344',-2.99
'0:19.348',-2.52
'0:19.352',-2.25
'0:19.355',-2.08
'0:19.359',-1.93
'0:19.363',-1.87
'0:19.367',-1.83
'0:19.371',-1.64
'0:19.375',-1.36
'0:19.379',-1.2
'0:19.383',-1.22
'0:19.387',-1.28
'0:19.391',-1.31
'0:19.395',-1.25
'0:19.398',-1.03
'0:19.402',-0.78
'0:19.406',-0.52
'0:19.410',-0.22
'0:19.414',0.06
'0:19.418',0.36
'0:19.422',0.65
'0:19.426',0.96
'0:19.430',1.28
'0:19.434',1.72
'0:19.438',2.16
'0:19.441',2.52
'0:19.445',2.85
'0:19.449',3.02
'0:19.453',3.1
'0:19.457',3.01
'0:19.461',2.79
'0:19.465',2.54
'0:19.469',2.24
'0:19.473',1.96
'0:19.477',1.78
'0:19.480',1.6
'0:19.484',1.35
'0:19.488',1.06
'0:19.492',0.93
'0:19.496',0.74
'0:19.500',0.59
'0:19.504',0.63
'0:19.508',0.75
'0:19.512',0.89
'0:19.516',1.04
'0:19.520',1.23
'0:19.523',1.44
'0:19.527',1.54
