'0:00.000',21.12
'0:00.004',14.67
'0:00.008',5.1
'0:00.012',-2.71
'0:00.016',-7.29
'0:00.020',-9.46
'0:00.023',-10.19
'0:00.027',-10.04
'0:00.031',-9.67
'0:00.035',-9.18
'0:00.039',-8.45
'0:00.043',-7.66
'0:00.047',-6.83
'0:00.051',-6.1
'0:00.055',-5.61
'0:00.059',-5.14
'0:00.063',-4.57
'0:00.066',-3.99
'0:00.070',-3.47
'0:00.074',-2.96
'0:00.078',-2.2
'0:00.082',-1.52
'0:00.086',-1.41
'0:00.090',-0.57
'0:00.094',-0.14
'0:00.098',0.52
'0:00.102',1.32
'0:00.105',2.16
'0:00.109',2.76
'0:00.113',3.41
'0:00.117',3.59
'0:00.121',3.3
'0:00.125',2.81
'0:00.129',2.4
'0:00.133',2.11
'0:00.137',1.84
'0:00.141',1.36
'0:00.145',0.88
'0:00.148',0.33
'0:00.152',-0.12
'0:00.156',-0.73
'0:00.160',-1.09
'0:00.164',-1.5
'0:00.168',-1.81
'0:00.172',-1.92
'0:00.176',-1.93
'0:00.180',-1.9
'0:00.184',-1.61
'0:00.188',-1.24
'0:00.191',-0.69
'0:00.195',0
'0:00.199',0.49
'0:00.203',0.66
'0:00.207',0.72
'0:00.211',0.93
'0:00.215',1.14
'0:00.219',1.15
'0:00.223',1.4
'0:00.227',1.44
'0:00.230',0.97
'0:00.234',0.61
'0:00.238',0.08
'0:00.242',-1.75
'0:00.246',-2.7
'0:00.250',-2.76
'0:00.254',-2.63
'0:00.258',-2.64
'0:00.262',-2.39
'0:00.266',-2.09
'0:00.270',-2.06
'0:00.273',-2.3
'0:00.277',-2.54
'0:00.281',-2.38
'0:00.285',-2.05
'0:00.289',-0.88
'0:00.293',1.86
'0:00.297',6.81
'0:00.301',12.94
'0:00.305',18.66
'0:00.309',22.62
'0:00.313',24.8
'0:00.316',23.08
'0:00.320',15.84
'0:00.324',6.25
'0:00.328',-0.91
'0:00.332',-4.88
'0:00.336',-6.73
'0:00.340',-7.28
'0:00.344',-7.06
'0:00.348',-6.66
'0:00.352',-6.13
'0:00.355',-5.74
'0:00.359',-5.38
'0:00.363',-4.65
'0:00.367',-4.18
'0:00.371',-3.83
'0:00.375',-3.21
'0:00.379',-2.75
'0:00.383',-2.21
'0:00.387',-1.65
'0:00.391',-0.89
'0:00.395',-0.18
'0:00.398',-0.04
'0:00.402',0.01
'0:00.406',0.23
'0:00.410',0.41
'0:00.414',0.95
'0:00.418',1.7
'0:00.422',2.28
'0:00.426',3.16
'0:00.430',4.43
'0:00.434',5.1
'0:00.438',5.87
'0:00.441',5.91
'0:00.445',5.72
'0:00.449',5.39
'0:00.453',5.22
'0:00.457',4.57
'0:00.461',3.79
'0:00.465',2.91
'0:00.469',2.09
'0:00.473',1.32
'0:00.477',0.81
'0:00.480',0.41
'0:00.484',0.13
'0:00.488',-0.02
'0:00.492',0.01
'0:00.496',0.14
'0:00.500',0.15
'0:00.504',0.17
'0:00.508',0.31
'0:00.512',0.33
'0:00.516',0.26
'0:00.520',0.2
'0:00.523',0.25
'0:00.527',0.29
'0:00.531',0.29
'0:00.535',0.14
'0:00.539',-0.22
'0:00.543',-1.05
'0:00.547',-1.93
'0:00.551',-2.14
'0:00.555',-2.19
'0:00.559',-2.48
'0:00.563',-2.71
'0:00.566',-2.75
'0:00.570',-3.02
'0:00.574',-3.37
'0:00.578',-3.36
'0:00.582',-3.36
'0:00.586',-3.12
'0:00.590',-3.02
'0:00.594',-3.58
'0:00.598',-3.84
'0:00.602',-3.36
'0:00.605',-2.23
'0:00.609',0.01
'0:00.613',3.78
'0:00.617',9.23
'0:00.621',15.06
'0:00.625',19.54
'0:00.629',22.56
'0:00.633',21.57
'0:00.637',15.04
'0:00.641',5.69
'0:00.645',-2.43
'0:00.648',-7.39
'0:00.652',-9.7
'0:00.656',-10.69
'0:00.660',-10.96
'0:00.664',-10.88
'0:00.668',-10.62
'0:00.672',-10.04
'0:00.676',-9.26
'0:00.680',-8.75
'0:00.684',-8.12
'0:00.688',-7.3
'0:00.691',-6.95
'0:00.695',-7.23
'0:00.699',-7.28
'0:00.703',-7.17
'0:00.707',-6.77
'0:00.711',-6.03
'0:00.715',-5.28
'0:00.719',-4.78
'0:00.723',-4.15
'0:00.727',-3.27
'0:00.730',-2.41
'0:00.734',-1.39
'0:00.738',-0.4
'0:00.742',0.57
'0:00.746',1.41
'0:00.750',2.1
'0:00.754',2.48
'0:00.758',2.66
'0:00.762',2.66
'0:00.766',2.45
'0:00.770',1.99
'0:00.773',1.43
'0:00.777',1.09
'0:00.781',0.76
'0:00.785',0.24
'0:00.789',-0.21
'0:00.793',-0.76
'0:00.797',-1.07
'0:00.801',-1.07
'0:00.805',-1.7
'0:00.809',-2.08
'0:00.813',-1.57
'0:00.816',-1.18
'0:00.820',-0.95
'0:00.824',-0.27
'0:00.828',0.98
'0:00.832',0.82
'0:00.836',0.6
'0:00.840',0.65
'0:00.844',0.59
'0:00.848',0.58
'0:00.852',0.59
'0:00.855',0.59
'0:00.859',0.58
'0:00.863',0.59
'0:00.867',0.59
'0:00.871',0.59
'0:00.875',0.59
'0:00.879',0.59
'0:00.883',0.59
'0:00.887',0.59
'0:00.891',-2.37
'0:00.895',-2.46
'0:00.898',-2.42
'0:00.902',-2.33
'0:00.906',-2.33
'0:00.910',-2.35
'0:00.914',-1.85
'0:00.918',-1.12
'0:00.922',-1.12
'0:00.926',4.13
'0:00.930',8.77
'0:00.934',14.2
'0:00.938',18.85
'0:00.941',22.29
'0:00.945',23.09
'0:00.949',18.63
'0:00.953',9.6
'0:00.957',0.79
'0:00.961',-4.54
'0:00.965',-7.3
'0:00.969',-8.29
'0:00.973',-8.48
'0:00.977',-8.35
'0:00.980',-7.91
'0:00.984',-7.28
'0:00.988',-6.68
'0:00.992',-6.32
'0:00.996',-5.97
'0:01.000',-5.4
'0:01.004',-4.94
'0:01.008',-4.64
'0:01.012',-4.39
'0:01.016',-4.12
'0:01.020',-3.62
'0:01.023',-3.09
'0:01.027',-2.64
'0:01.031',-2.45
'0:01.035',-2.17
'0:01.039',-1.78
'0:01.043',-1.16
'0:01.047',-0.42
'0:01.051',0.4
'0:01.055',1.28
'0:01.059',1.86
'0:01.063',2.14
'0:01.066',2.31
'0:01.070',2.86
'0:01.074',3.31
'0:01.078',3.56
'0:01.082',3.57
'0:01.086',3.23
'0:01.090',2.76
'0:01.094',2.81
'0:01.098',2.18
'0:01.102',1.23
'0:01.105',1.14
'0:01.109',0.78
'0:01.113',-0.02
'0:01.117',-0.53
'0:01.121',-0.57
'0:01.125',-0.35
'0:01.129',-0.52
'0:01.133',-0.45
'0:01.137',-0.1
'0:01.141',0.15
'0:01.145',0.45
'0:01.148',1.02
'0:01.152',1.21
'0:01.156',1.28
'0:01.160',1.48
'0:01.164',1.44
'0:01.168',1.03
'0:01.172',1.18
'0:01.176',1.64
'0:01.180',1.5
'0:01.184',1.2
'0:01.188',0.53
'0:01.191',-0.58
'0:01.195',-1.4
'0:01.199',-1.9
'0:01.203',-2.02
'0:01.207',-2.02
'0:01.211',-1.63
'0:01.215',-1.14
'0:01.219',-0.92
'0:01.223',-1.26
'0:01.227',-1.66
'0:01.230',-1.6
'0:01.234',-0.95
'0:01.238',1.05
'0:01.242',4.88
'0:01.246',10.21
'0:01.250',15.82
'0:01.254',20.26
'0:01.258',23.49
'0:01.262',24.08
'0:01.266',18.97
'0:01.270',9.74
'0:01.273',1.25
'0:01.277',-4.19
'0:01.281',-7.03
'0:01.285',-8.03
'0:01.289',-8.16
'0:01.293',-8.08
'0:01.297',-7.83
'0:01.301',-7.3
'0:01.305',-6.75
'0:01.309',-6.46
'0:01.313',-6.17
'0:01.316',-5.91
'0:01.320',-5.95
'0:01.324',-5.7
'0:01.328',-4.89
'0:01.332',-4.17
'0:01.336',-3.81
'0:01.340',-3.62
'0:01.344',-2.86
'0:01.348',-2.45
'0:01.352',-2.18
'0:01.355',-2.16
'0:01.359',-2.05
'0:01.363',-1.36
'0:01.367',-0.85
'0:01.371',-0.15
'0:01.375',0.54
'0:01.379',1.24
'0:01.383',2.1
'0:01.387',2.53
'0:01.391',2.08
'0:01.395',1.68
'0:01.398',1.56
'0:01.402',1.56
'0:01.406',1.26
'0:01.410',0.61
'0:01.414',-0.34
'0:01.418',-1.29
'0:01.422',-1.81
'0:01.426',-1.87
'0:01.430',-1.74
'0:01.434',-1.56
'0:01.438',-1.42
'0:01.441',-1.34
'0:01.445',-1.23
'0:01.449',-1.08
'0:01.453',-0.88
'0:01.457',-0.81
'0:01.461',-0.9
'0:01.465',-0.86
'0:01.469',-0.56
'0:01.473',-0.3
'0:01.477',-0.29
'0:01.480',-0.52
'0:01.484',-0.73
'0:01.488',-0.95
'0:01.492',-1.37
'0:01.496',-1.77
'0:01.500',-2.15
'0:01.504',-2.37
'0:01.508',-2.56
'0:01.512',-2.75
'0:01.516',-2.87
'0:01.520',-2.87
'0:01.523',-2.81
'0:01.527',-2.68
'0:01.531',-2.59
'0:01.535',-2.63
'0:01.539',-2.96
'0:01.543',-3.21
'0:01.547',-2.87
'0:01.551',-1.62
'0:01.555',1.07
'0:01.559',5.15
'0:01.563',10.56
'0:01.566',16.29
'0:01.570',20.45
'0:01.574',22.76
'0:01.578',21.63
'0:01.582',15.09
'0:01.586',6.04
'0:01.590',-1.24
'0:01.594',-5.62
'0:01.598',-7.8
'0:01.602',-8.71
'0:01.605',-8.76
'0:01.609',-8.5
'0:01.613',-7.99
'0:01.617',-7.32
'0:01.621',-6.8
'0:01.625',-6.48
'0:01.629',-6.14
'0:01.633',-5.69
'0:01.637',-5.2
'0:01.641',-4.76
'0:01.645',-4.31
'0:01.648',-3.77
'0:01.652',-3.11
'0:01.656',-2.56
'0:01.660',-2.09
'0:01.664',-1.54
'0:01.668',-0.94
'0:01.672',-0.41
'0:01.676',-0.23
'0:01.680',0.22
'0:01.684',0.92
'0:01.688',1.41
'0:01.691',1.91
'0:01.695',2.59
'0:01.699',3.21
'0:01.703',3.3
'0:01.707',3.04
'0:01.711',2.71
'0:01.715',2.42
'0:01.719',2.03
'0:01.723',1.46
'0:01.727',0.85
'0:01.730',0.2
'0:01.734',-0.43
'0:01.738',-0.84
'0:01.742',-1.27
'0:01.746',-1.64
'0:01.750',-1.8
'0:01.754',-1.74
'0:01.758',-1.76
'0:01.762',-1.98
'0:01.766',-1.99
'0:01.770',-1.89
'0:01.773',-1.71
'0:01.777',-1.62
'0:01.781',-1.32
'0:01.785',-0.94
'0:01.789',-0.79
'0:01.793',-0.78
'0:01.797',-0.82
'0:01.801',-0.81
'0:01.805',-0.63
'0:01.809',-0.42
'0:01.813',-0.36
'0:01.816',-0.49
'0:01.820',-0.52
'0:01.824',-0.54
'0:01.828',-0.93
'0:01.832',-1.52
'0:01.836',-1.85
'0:01.840',-2.02
'0:01.844',-1.89
'0:01.848',-1.92
'0:01.852',-2.37
'0:01.855',-2.95
'0:01.859',-3.09
'0:01.863',-2.43
'0:01.867',-1.12
'0:01.871',1.57
'0:01.875',6.24
'0:01.879',12.06
'0:01.883',17.48
'0:01.887',21.71
'0:01.891',24.39
'0:01.895',22.74
'0:01.898',14.73
'0:01.902',4.54
'0:01.906',-2.9
'0:01.910',-7.01
'0:01.914',-8.78
'0:01.918',-9.15
'0:01.922',-8.81
'0:01.926',-8.27
'0:01.930',-7.69
'0:01.934',-7.07
'0:01.938',-6.42
'0:01.941',-5.95
'0:01.945',-5.42
'0:01.949',-4.86
'0:01.953',-4.35
'0:01.957',-4.25
'0:01.961',-3.83
'0:01.965',-2.83
'0:01.969',-1.88
'0:01.973',-1.84
'0:01.977',-2.32
'0:01.980',-2.02
'0:01.984',-0.67
'0:01.988',-0.21
'0:01.992',-0.12
'0:01.996',0.56
'0:02.000',0.98
'0:02.004',1.2
'0:02.008',1.85
'0:02.012',2.65
'0:02.016',3.24
'0:02.020',3.05
'0:02.023',2.6
'0:02.027',2.19
'0:02.031',2.15
'0:02.035',1.99
'0:02.039',1.62
'0:02.043',1.31
'0:02.047',1.04
'0:02.051',0.71
'0:02.055',0.16
'0:02.059',-0.42
'0:02.063',-0.78
'0:02.066',-0.99
'0:02.070',-0.64
'0:02.074',-0.38
'0:02.078',-0.58
'0:02.082',-0.81
'0:02.086',-0.51
'0:02.090',0
'0:02.094',0.47
'0:02.098',0.88
'0:02.102',0.46
'0:02.105',-0.1
'0:02.109',-0.71
'0:02.113',-1.02
'0:02.117',-0.85
'0:02.121',-0.76
'0:02.125',-1.03
'0:02.129',-1.06
'0:02.133',-0.9
'0:02.137',-1.48
'0:02.141',-2.75
'0:02.145',-3.13
'0:02.148',-2.8
'0:02.152',-2.45
'0:02.156',-2.48
'0:02.160',-2.91
'0:02.164',-3.77
'0:02.168',-3.92
'0:02.172',-3.43
'0:02.176',-2.89
'0:02.180',-1.77
'0:02.184',0.11
'0:02.188',3.58
'0:02.191',8.77
'0:02.195',14.58
'0:02.199',19.49
'0:02.203',22.85
'0:02.207',23.76
'0:02.211',19.16
'0:02.215',10.44
'0:02.219',2.12
'0:02.223',-3.2
'0:02.227',-5.83
'0:02.230',-6.98
'0:02.234',-6.97
'0:02.238',-6.65
'0:02.242',-6.15
'0:02.246',-5.74
'0:02.250',-5.58
'0:02.254',-5.42
'0:02.258',-5.14
'0:02.262',-4.78
'0:02.266',-4.14
'0:02.270',-3.58
'0:02.273',-3.04
'0:02.277',-2.51
'0:02.281',-2.25
'0:02.285',-1.95
'0:02.289',-1.51
'0:02.293',-1.04
'0:02.297',-0.48
'0:02.301',0.23
'0:02.305',0.96
'0:02.309',1.64
'0:02.313',2.32
'0:02.316',3.19
'0:02.320',3.7
'0:02.324',3.97
'0:02.328',4.66
'0:02.332',5.48
'0:02.336',5.38
'0:02.340',4.52
'0:02.344',3.59
'0:02.348',3.03
'0:02.352',2.61
'0:02.355',1.99
'0:02.359',1.02
'0:02.363',0.2
'0:02.367',-0.46
'0:02.371',-0.86
'0:02.375',-1.12
'0:02.379',-1.34
'0:02.383',-1.19
'0:02.387',-0.84
'0:02.391',-0.64
'0:02.395',-0.63
'0:02.398',-0.63
'0:02.402',-0.63
'0:02.406',-0.58
'0:02.410',-0.47
'0:02.414',-0.25
'0:02.418',-0.11
'0:02.422',0
'0:02.426',-0.1
'0:02.430',-0.37
'0:02.434',-0.68
'0:02.438',-0.84
'0:02.441',-1.01
'0:02.445',-1.35
'0:02.449',-1.85
'0:02.453',-2.38
'0:02.457',-2.88
'0:02.461',-3.38
'0:02.465',-3.72
'0:02.469',-4.07
'0:02.473',-4.16
'0:02.477',-4.14
'0:02.480',-4.06
'0:02.484',-4.13
'0:02.488',-4.21
'0:02.492',-3.81
'0:02.496',-2.68
'0:02.500',-0.96
'0:02.504',2.15
'0:02.508',7.12
'0:02.512',13.08
'0:02.516',18.56
'0:02.520',22.6
'0:02.523',24.07
'0:02.527',20.35
'0:02.531',11.76
'0:02.535',2.6
'0:02.539',-3.83
'0:02.543',-7.04
'0:02.547',-8.22
'0:02.551',-8.87
'0:02.555',-9.19
'0:02.559',-9.23
'0:02.563',-9.09
'0:02.566',-8.62
'0:02.570',-7.94
'0:02.574',-7.23
'0:02.578',-6.69
'0:02.582',-6.3
'0:02.586',-6.05
'0:02.590',-5.59
'0:02.594',-5.22
'0:02.598',-5.06
'0:02.602',-4.64
'0:02.605',-3.94
'0:02.609',-3.19
'0:02.613',-2.42
'0:02.617',-1.63
'0:02.621',-1.07
'0:02.625',-0.6
'0:02.629',0.05
'0:02.633',0.75
'0:02.637',1.5
'0:02.641',2.31
'0:02.645',3.05
'0:02.648',3.64
'0:02.652',3.88
'0:02.656',3.56
'0:02.660',3.34
'0:02.664',3.57
'0:02.668',3.69
'0:02.672',3.01
'0:02.676',2.38
'0:02.680',1.69
'0:02.684',0.71
'0:02.688',-0.28
'0:02.691',-0.98
'0:02.695',-1.24
'0:02.699',-1.24
'0:02.703',-1.11
'0:02.707',-0.76
'0:02.711',-0.19
'0:02.715',0.46
'0:02.719',0.63
'0:02.723',0.18
'0:02.727',-0.22
'0:02.730',-0.36
'0:02.734',-0.45
'0:02.738',-0.43
'0:02.742',-0.57
'0:02.746',-0.57
'0:02.750',-0.39
'0:02.754',-0.63
'0:02.758',-1.27
'0:02.762',-1.72
'0:02.766',-2.22
'0:02.770',-2.57
'0:02.773',-2.81
'0:02.777',-2.79
'0:02.781',-2.72
'0:02.785',-3.1
'0:02.789',-3.57
'0:02.793',-3.46
'0:02.797',-3.85
'0:02.801',-4.28
'0:02.805',-4.24
'0:02.809',-3.82
'0:02.813',-2.51
'0:02.816',-0.07
'0:02.820',4.35
'0:02.824',9.93
'0:02.828',15.24
'0:02.832',19.91
'0:02.836',22.52
'0:02.840',20.74
'0:02.844',13.36
'0:02.848',3.51
'0:02.852',-3.92
'0:02.855',-7.69
'0:02.859',-8.93
'0:02.863',-9.08
'0:02.867',-9.13
'0:02.871',-9.18
'0:02.875',-9.51
'0:02.879',-9.93
'0:02.883',-9.54
'0:02.887',-8.39
'0:02.891',-7.39
'0:02.895',-7.08
'0:02.898',-7.25
'0:02.902',-7.73
'0:02.906',-7.87
'0:02.910',-7.07
'0:02.914',-5.71
'0:02.918',-4.77
'0:02.922',-4.55
'0:02.926',-4.16
'0:02.930',-3.15
'0:02.934',-1.93
'0:02.938',-1.2
'0:02.941',-0.76
'0:02.945',-0.14
'0:02.949',0.52
'0:02.953',1.16
'0:02.957',2.08
'0:02.961',2.76
'0:02.965',3.29
'0:02.969',3.6
'0:02.973',3.59
'0:02.977',3.2
'0:02.980',2.67
'0:02.984',2.51
'0:02.988',2.4
'0:02.992',1.81
'0:02.996',0.87
'0:03.000',0.28
'0:03.004',-0.2
'0:03.008',-0.73
'0:03.012',-0.92
'0:03.016',-0.74
'0:03.020',-0.27
'0:03.023',0.37
'0:03.027',0.74
'0:03.031',0.9
'0:03.035',0.95
'0:03.039',0.97
'0:03.043',1.08
'0:03.047',1.14
'0:03.051',1.2
'0:03.055',1.29
'0:03.059',1.06
'0:03.063',1.01
'0:03.066',0.8
'0:03.070',0.36
'0:03.074',-0.07
'0:03.078',-0.66
'0:03.082',-0.95
'0:03.086',-1.01
'0:03.090',-0.98
'0:03.094',-0.93
'0:03.098',-0.85
'0:03.102',-0.79
'0:03.105',-0.59
'0:03.109',-0.56
'0:03.113',-0.71
'0:03.117',-0.88
'0:03.121',-0.67
'0:03.125',-0.28
'0:03.129',0.83
'0:03.133',3.58
'0:03.137',8.26
'0:03.141',13.56
'0:03.145',18.69
'0:03.148',22.61
'0:03.152',24.85
'0:03.156',23.1
'0:03.160',15.73
'0:03.164',6.58
'0:03.168',-0.69
'0:03.172',-5.33
'0:03.176',-7.61
'0:03.180',-8.65
'0:03.184',-8.77
'0:03.188',-8.35
'0:03.191',-8.19
'0:03.195',-8.01
'0:03.199',-7.7
'0:03.203',-7.12
'0:03.207',-6.16
'0:03.211',-5.58
'0:03.215',-5.29
'0:03.219',-4.9
'0:03.223',-4.58
'0:03.227',-3.99
'0:03.230',-3.53
'0:03.234',-3.05
'0:03.238',-2.54
'0:03.242',-2.06
'0:03.246',-1.39
'0:03.250',-0.72
'0:03.254',-0.33
'0:03.258',0.15
'0:03.262',1.05
'0:03.266',2.08
'0:03.270',2.93
'0:03.273',3.59
'0:03.277',4.23
'0:03.281',4.62
'0:03.285',4.51
'0:03.289',4.09
'0:03.293',3.64
'0:03.297',3.08
'0:03.301',2.23
'0:03.305',1.19
'0:03.309',0.34
'0:03.313',-0.24
'0:03.316',-0.77
'0:03.320',-1.11
'0:03.324',-1.4
'0:03.328',-1.68
'0:03.332',-2.01
'0:03.336',-1.9
'0:03.340',-1.46
'0:03.344',-1.18
'0:03.348',-1
'0:03.352',-0.74
'0:03.355',-0.74
'0:03.359',-0.89
'0:03.363',-0.96
'0:03.367',-1.15
'0:03.371',-1.29
'0:03.375',-1.18
'0:03.379',-1
'0:03.383',-0.99
'0:03.387',-1.31
'0:03.391',-1.75
'0:03.395',-2.1
'0:03.398',-2.6
'0:03.402',-2.77
'0:03.406',-2.84
'0:03.410',-3.15
'0:03.414',-3.23
'0:03.418',-3.08
'0:03.422',-2.66
'0:03.426',-2.34
'0:03.430',-2.08
'0:03.434',-2.06
'0:03.438',-1.93
'0:03.441',-1.04
'0:03.445',0.82
'0:03.449',3.79
'0:03.453',8.75
'0:03.457',15.07
'0:03.461',20.84
'0:03.465',25.14
'0:03.469',26.68
'0:03.473',23.22
'0:03.477',14.49
'0:03.480',4.75
'0:03.484',-2.57
'0:03.488',-6.77
'0:03.492',-8.32
'0:03.496',-8.76
'0:03.500',-8.8
'0:03.504',-8.66
'0:03.508',-8.45
'0:03.512',-8.01
'0:03.516',-7.83
'0:03.520',-7.5
'0:03.523',-6.87
'0:03.527',-6.18
'0:03.531',-5.53
'0:03.535',-4.73
'0:03.539',-4.27
'0:03.543',-4.2
'0:03.547',-3.96
'0:03.551',-3.56
'0:03.555',-3
'0:03.559',-2.15
'0:03.563',-1.52
'0:03.566',-0.86
'0:03.570',-0.35
'0:03.574',0.23
'0:03.578',1.02
'0:03.582',1.92
'0:03.586',2.78
'0:03.590',3.38
'0:03.594',3.87
'0:03.598',4
'0:03.602',4.04
'0:03.605',3.71
'0:03.609',2.74
'0:03.613',1.74
'0:03.617',1.25
'0:03.621',0.79
'0:03.625',-0.39
'0:03.629',-1.59
'0:03.633',-2.21
'0:03.637',-2.33
'0:03.641',-2.08
'0:03.645',-2.01
'0:03.648',-2.17
'0:03.652',-2.32
'0:03.656',-2.48
'0:03.660',-2.56
'0:03.664',-2.42
'0:03.668',-2.16
'0:03.672',-1.69
'0:03.676',-1.17
'0:03.680',-1.19
'0:03.684',-1.51
'0:03.688',-1.71
'0:03.691',-1.75
'0:03.695',-1.96
'0:03.699',-2.61
'0:03.703',-3.04
'0:03.707',-3.05
'0:03.711',-3.01
'0:03.715',-3.32
'0:03.719',-3.77
'0:03.723',-4
'0:03.727',-4.12
'0:03.730',-4.08
'0:03.734',-3.84
'0:03.738',-3.59
'0:03.742',-3.43
'0:03.746',-3.5
'0:03.750',-3.64
'0:03.754',-3.58
'0:03.758',-2.94
'0:03.762',-1.37
'0:03.766',2.03
'0:03.770',7.31
'0:03.773',13.34
'0:03.777',18.45
'0:03.781',22.08
'0:03.785',22.99
'0:03.789',18.44
'0:03.793',9.16
'0:03.797',0.51
'0:03.801',-4.86
'0:03.805',-7.31
'0:03.809',-7.89
'0:03.813',-7.46
'0:03.816',-6.84
'0:03.820',-6.15
'0:03.824',-5.67
'0:03.828',-5.2
'0:03.832',-4.96
'0:03.836',-4.54
'0:03.840',-3.95
'0:03.844',-3.54
'0:03.848',-3.01
'0:03.852',-2.31
'0:03.855',-1.74
'0:03.859',-1.28
'0:03.863',-0.92
'0:03.867',-0.49
'0:03.871',-0.02
'0:03.875',0.29
'0:03.879',0.66
'0:03.883',1.11
'0:03.887',1.74
'0:03.891',2.47
'0:03.895',3.2
'0:03.898',3.74
'0:03.902',4.4
'0:03.906',4.84
'0:03.910',5.09
'0:03.914',4.67
'0:03.918',4.21
'0:03.922',4.05
'0:03.926',2.99
'0:03.930',2.49
'0:03.934',1.59
'0:03.938',0.44
'0:03.941',-0.05
'0:03.945',-0.25
'0:03.949',-0.68
'0:03.953',-1.15
'0:03.957',-1.65
'0:03.961',-1.72
'0:03.965',-2.49
'0:03.969',-2.46
'0:03.973',-2.02
'0:03.977',-1.9
'0:03.980',-1.73
'0:03.984',-1.81
'0:03.988',-1.74
'0:03.992',-1.52
'0:03.996',-1.4
'0:04.000',-1.61
'0:04.004',-1.71
'0:04.008',-1.38
'0:04.012',-1.12
'0:04.016',-1.4
'0:04.020',-2.02
'0:04.023',-2.61
'0:04.027',-3.15
'0:04.031',-3.31
'0:04.035',-3.35
'0:04.039',-3.4
'0:04.043',-3.41
'0:04.047',-3.3
'0:04.051',-3.09
'0:04.055',-2.9
'0:04.059',-2.88
'0:04.063',-2.99
'0:04.066',-2.93
'0:04.070',-2.2
'0:04.074',-0.54
'0:04.078',3.01
'0:04.082',8.53
'0:04.086',14.59
'0:04.090',19.66
'0:04.094',23.06
'0:04.098',23.97
'0:04.102',20.17
'0:04.105',11.95
'0:04.109',3.02
'0:04.113',-3.25
'0:04.117',-6.45
'0:04.121',-7.11
'0:04.125',-7.63
'0:04.129',-7.48
'0:04.133',-7.34
'0:04.137',-7.04
'0:04.141',-6.73
'0:04.145',-6.18
'0:04.148',-5.67
'0:04.152',-4.99
'0:04.156',-4.4
'0:04.160',-3.82
'0:04.164',-3.88
'0:04.168',-3.62
'0:04.172',-3.07
'0:04.176',-2.66
'0:04.180',-2.18
'0:04.184',-1.87
'0:04.188',-1.5
'0:04.191',-0.85
'0:04.195',0.06
'0:04.199',0.95
'0:04.203',1.72
'0:04.207',2.35
'0:04.211',3.05
'0:04.215',3.78
'0:04.219',4.55
'0:04.223',5.14
'0:04.227',5.31
'0:04.230',5.17
'0:04.234',4.6
'0:04.238',3.94
'0:04.242',3.52
'0:04.246',2.93
'0:04.250',1.96
'0:04.254',0.87
'0:04.258',0.04
'0:04.262',-0.53
'0:04.266',-1.13
'0:04.270',-1.45
'0:04.273',-1.35
'0:04.277',-1.39
'0:04.281',-1.08
'0:04.285',-0.75
'0:04.289',-0.94
'0:04.293',-1.1
'0:04.297',-0.73
'0:04.301',-0.46
'0:04.305',-0.24
'0:04.309',0.16
'0:04.313',-0.1
'0:04.316',-0.59
'0:04.320',-0.68
'0:04.324',-0.94
'0:04.328',-1.08
'0:04.332',-1.27
'0:04.336',-1.57
'0:04.340',-1.71
'0:04.344',-2.19
'0:04.348',-2.89
'0:04.352',-3.47
'0:04.355',-3.9
'0:04.359',-4.03
'0:04.363',-3.7
'0:04.367',-3.52
'0:04.371',-3.71
'0:04.375',-3.99
'0:04.379',-4.22
'0:04.383',-4.02
'0:04.387',-3.17
'0:04.391',-2.4
'0:04.395',-0.23
'0:04.398',4.58
'0:04.402',10.85
'0:04.406',16.59
'0:04.410',20.86
'0:04.414',23.21
'0:04.418',21.48
'0:04.422',14.08
'0:04.426',4.12
'0:04.430',-3.72
'0:04.434',-8.17
'0:04.438',-9.87
'0:04.441',-10.37
'0:04.445',-10.41
'0:04.449',-10
'0:04.453',-9.27
'0:04.457',-8.56
'0:04.461',-8.07
'0:04.465',-7.47
'0:04.469',-6.8
'0:04.473',-5.8
'0:04.477',-4.82
'0:04.480',-4.55
'0:04.484',-4.71
'0:04.488',-4.73
'0:04.492',-4.36
'0:04.496',-4.02
'0:04.500',-3.59
'0:04.504',-2.76
'0:04.508',-1.97
'0:04.512',-1.47
'0:04.516',-1
'0:04.520',-0.47
'0:04.523',0.4
'0:04.527',1.15
'0:04.531',1.42
'0:04.535',1.89
'0:04.539',2.41
'0:04.543',2.74
'0:04.547',2.75
'0:04.551',2.87
'0:04.555',2.88
'0:04.559',2.51
'0:04.563',2.03
'0:04.566',1.39
'0:04.570',0.63
'0:04.574',0.13
'0:04.578',-0.14
'0:04.582',-0.31
'0:04.586',-0.79
'0:04.590',-0.98
'0:04.594',-0.65
'0:04.598',-0.29
'0:04.602',0.12
'0:04.605',0.56
'0:04.609',0.85
'0:04.613',1.19
'0:04.617',1.67
'0:04.621',2.12
'0:04.625',2.67
'0:04.629',3.12
'0:04.633',3.14
'0:04.637',2.99
'0:04.641',3.42
'0:04.645',4.17
'0:04.648',4.52
'0:04.652',4.56
'0:04.656',4.89
'0:04.660',5.66
'0:04.664',6.58
'0:04.668',7.38
'0:04.672',6.53
'0:04.676',3.99
'0:04.680',1.18
'0:04.684',-1.35
'0:04.688',-3.09
'0:04.691',-3.91
'0:04.695',-4.58
'0:04.699',-4.9
'0:04.703',-4.21
'0:04.707',-2.07
'0:04.711',2.21
'0:04.715',8.07
'0:04.719',13.68
'0:04.723',17.51
'0:04.727',19.67
'0:04.730',17.66
'0:04.734',9.85
'0:04.738',0.42
'0:04.742',-6.34
'0:04.746',-10.3
'0:04.750',-11.84
'0:04.754',-12.07
'0:04.758',-11.46
'0:04.762',-10.84
'0:04.766',-10.84
'0:04.770',-10.69
'0:04.773',-10.39
'0:04.777',-10
'0:04.781',-9.46
'0:04.785',-8.64
'0:04.789',-7.75
'0:04.793',-7.07
'0:04.797',-6.69
'0:04.801',-6.38
'0:04.805',-5.88
'0:04.809',-5.18
'0:04.813',-4.2
'0:04.816',-3.43
'0:04.820',-2.73
'0:04.824',-2.08
'0:04.828',-1.36
'0:04.832',-0.74
'0:04.836',-0.01
'0:04.840',1.02
'0:04.844',2
'0:04.848',2.58
'0:04.852',3.19
'0:04.855',3.69
'0:04.859',3.59
'0:04.863',3.03
'0:04.867',2.91
'0:04.871',3.12
'0:04.875',2.65
'0:04.879',1.69
'0:04.883',1.19
'0:04.887',0.99
'0:04.891',0.19
'0:04.895',-0.05
'0:04.898',-0.11
'0:04.902',-0.05
'0:04.906',-0.19
'0:04.910',-0.49
'0:04.914',-0.12
'0:04.918',0.32
'0:04.922',0.52
'0:04.926',0.85
'0:04.930',0.88
'0:04.934',0.97
'0:04.938',1.33
'0:04.941',1.44
'0:04.945',1.55
'0:04.949',1.75
'0:04.953',1.63
'0:04.957',1.43
'0:04.961',1.21
'0:04.965',0.88
'0:04.969',0.59
'0:04.973',0.64
'0:04.977',0.49
'0:04.980',-0.03
'0:04.984',-0.25
'0:04.988',-0.26
'0:04.992',-0.11
'0:04.996',-0.24
'0:05.000',-0.5
'0:05.004',-0.58
'0:05.008',-0.54
'0:05.012',-0.92
'0:05.016',-0.81
'0:05.020',0.06
'0:05.023',2.07
'0:05.027',5.89
'0:05.031',11.74
'0:05.035',17.38
'0:05.039',21.7
'0:05.043',24.57
'0:05.047',23.72
'0:05.051',17.15
'0:05.055',7.78
'0:05.059',-0.12
'0:05.063',-4.96
'0:05.066',-7.29
'0:05.070',-8.14
'0:05.074',-8.22
'0:05.078',-8.1
'0:05.082',-7.82
'0:05.086',-7.35
'0:05.090',-6.83
'0:05.094',-6.9
'0:05.098',-6.69
'0:05.102',-6.03
'0:05.105',-5.6
'0:05.109',-4.98
'0:05.113',-4.81
'0:05.117',-4.95
'0:05.121',-4.52
'0:05.125',-4.09
'0:05.129',-4.23
'0:05.133',-4.14
'0:05.137',-3.57
'0:05.141',-2.96
'0:05.145',-2.48
'0:05.148',-2.1
'0:05.152',-1.45
'0:05.156',-0.58
'0:05.160',0.6
'0:05.164',1.53
'0:05.168',2.1
'0:05.172',2.23
'0:05.176',2.22
'0:05.180',2.17
'0:05.184',2.08
'0:05.188',1.63
'0:05.191',0.85
'0:05.195',-0.1
'0:05.199',-0.81
'0:05.203',-1.35
'0:05.207',-1.85
'0:05.211',-2.18
'0:05.215',-2.42
'0:05.219',-2.59
'0:05.223',-2.71
'0:05.227',-2.64
'0:05.230',-2.23
'0:05.234',-1.53
'0:05.238',-1.02
'0:05.242',-0.88
'0:05.246',-0.91
'0:05.250',-1.22
'0:05.254',-1.43
'0:05.258',-1.26
'0:05.262',-0.92
'0:05.266',-0.59
'0:05.270',-0.49
'0:05.273',-0.77
'0:05.277',-1.3
'0:05.281',-1.7
'0:05.285',-2.04
'0:05.289',-2.35
'0:05.293',-2.83
'0:05.297',-3.21
'0:05.301',-3
'0:05.305',-2.49
'0:05.309',-2.36
'0:05.313',-2.86
'0:05.316',-2.89
'0:05.320',-2.72
'0:05.324',-2.62
'0:05.328',-2.34
'0:05.332',-1.72
'0:05.336',-0.42
'0:05.340',1.94
'0:05.344',6.19
'0:05.348',12.05
'0:05.352',17.98
'0:05.355',22.84
'0:05.359',26.09
'0:05.363',26.08
'0:05.367',19.86
'0:05.371',9.63
'0:05.375',0.79
'0:05.379',-4.48
'0:05.383',-7.12
'0:05.387',-8.05
'0:05.391',-8
'0:05.395',-7.76
'0:05.398',-7.52
'0:05.402',-7.14
'0:05.406',-6.77
'0:05.410',-6.29
'0:05.414',-5.83
'0:05.418',-5.38
'0:05.422',-5.06
'0:05.426',-4.81
'0:05.430',-4.52
'0:05.434',-4.19
'0:05.438',-3.8
'0:05.441',-3.41
'0:05.445',-3.11
'0:05.449',-2.67
'0:05.453',-2.42
'0:05.457',-2.06
'0:05.461',-1.45
'0:05.465',-1.09
'0:05.469',-0.49
'0:05.473',0.3
'0:05.477',0.74
'0:05.480',0.99
'0:05.484',1.36
'0:05.488',1.88
'0:05.492',2.05
'0:05.496',2.16
'0:05.500',2
'0:05.504',1.49
'0:05.508',0.62
'0:05.512',-0.13
'0:05.516',-0.84
'0:05.520',-1.47
'0:05.523',-1.97
'0:05.527',-2.24
'0:05.531',-2.39
'0:05.535',-2.26
'0:05.539',-1.78
'0:05.543',-1.29
'0:05.547',-0.98
'0:05.551',-0.65
'0:05.555',-0.31
'0:05.559',-0.11
'0:05.563',0.04
'0:05.566',0.21
'0:05.570',0.48
'0:05.574',0.7
'0:05.578',0.74
'0:05.582',0.79
'0:05.586',1.08
'0:05.590',0.82
'0:05.594',-0.11
'0:05.598',-0.88
'0:05.602',-0.93
'0:05.605',-0.4
'0:05.609',-0.89
'0:05.613',-1.94
'0:05.617',-2.38
'0:05.621',-2.61
'0:05.625',-2.66
'0:05.629',-2.3
'0:05.633',-1.89
'0:05.637',-2.04
'0:05.641',-2.26
'0:05.645',-2.03
'0:05.648',-1.2
'0:05.652',-0.17
'0:05.656',2.76
'0:05.660',7.94
'0:05.664',13.53
'0:05.668',18.59
'0:05.672',22.36
'0:05.676',23.79
'0:05.680',19.9
'0:05.684',10.82
'0:05.688',1.74
'0:05.691',-4.13
'0:05.695',-6.88
'0:05.699',-7.93
'0:05.703',-8.29
'0:05.707',-8.16
'0:05.711',-7.72
'0:05.715',-7.2
'0:05.719',-6.39
'0:05.723',-5.57
'0:05.727',-5.08
'0:05.730',-4.52
'0:05.734',-3.86
'0:05.738',-3.43
'0:05.742',-3.22
'0:05.746',-2.86
'0:05.750',-2.14
'0:05.754',-1.5
'0:05.758',-1.21
'0:05.762',-0.8
'0:05.766',-0.42
'0:05.770',0.3
'0:05.773',0.93
'0:05.777',1.52
'0:05.781',2.38
'0:05.785',2.86
'0:05.789',2.97
'0:05.793',3.02
'0:05.797',3.41
'0:05.801',3.87
'0:05.805',4.25
'0:05.809',4.31
'0:05.813',3.91
'0:05.816',3.57
'0:05.820',3.1
'0:05.824',2.69
'0:05.828',1.89
'0:05.832',0.74
'0:05.836',-0.3
'0:05.840',-1.09
'0:05.844',-1.07
'0:05.848',-0.64
'0:05.852',-0.91
'0:05.855',-1.7
'0:05.859',-2.06
'0:05.863',-1.92
'0:05.867',-1.46
'0:05.871',-1.11
'0:05.875',-0.74
'0:05.879',-0.8
'0:05.883',-0.87
'0:05.887',-0.6
'0:05.891',-0.39
'0:05.895',-0.49
'0:05.898',-0.58
'0:05.902',-0.57
'0:05.906',-0.82
'0:05.910',-1.19
'0:05.914',-1.6
'0:05.918',-1.93
'0:05.922',-2.09
'0:05.926',-2.4
'0:05.930',-2.5
'0:05.934',-2.71
'0:05.938',-2.87
'0:05.941',-2.6
'0:05.945',-2.21
'0:05.949',-2.04
'0:05.953',-1.99
'0:05.957',-1.82
'0:05.961',-1.44
'0:05.965',-0.77
'0:05.969',0.69
'0:05.973',3.69
'0:05.977',8.82
'0:05.980',14.94
'0:05.984',19.42
'0:05.988',23.37
'0:05.992',25.74
'0:05.996',24.09
'0:06.000',17.03
'0:06.004',7.73
'0:06.008',0.25
'0:06.012',-4.2
'0:06.016',-6.57
'0:06.020',-7.5
'0:06.023',-7.79
'0:06.027',-7.78
'0:06.031',-7.68
'0:06.035',-7.42
'0:06.039',-6.94
'0:06.043',-6.45
'0:06.047',-5.92
'0:06.051',-5.59
'0:06.055',-5.21
'0:06.059',-4.73
'0:06.063',-4.17
'0:06.066',-3.46
'0:06.070',-2.74
'0:06.074',-2.16
'0:06.078',-1.66
'0:06.082',-1.08
'0:06.086',-0.29
'0:06.090',0.45
'0:06.094',0.95
'0:06.098',1.43
'0:06.102',2.01
'0:06.105',2.47
'0:06.109',2.96
'0:06.113',3.57
'0:06.117',4.14
'0:06.121',4.43
'0:06.125',4.31
'0:06.129',4
'0:06.133',3.75
'0:06.137',3.44
'0:06.141',2.88
'0:06.145',2.15
'0:06.148',1.53
'0:06.152',1.02
'0:06.156',0.68
'0:06.160',0.27
'0:06.164',-0.27
'0:06.168',-0.8
'0:06.172',-0.9
'0:06.176',-0.85
'0:06.180',-0.87
'0:06.184',-0.9
'0:06.188',-0.89
'0:06.191',-1.21
'0:06.195',-1.54
'0:06.199',-1.48
'0:06.203',-1.16
'0:06.207',-0.86
'0:06.211',-0.84
'0:06.215',-1.02
'0:06.219',-1.47
'0:06.223',-2.1
'0:06.227',-2.58
'0:06.230',-3.04
'0:06.234',-3.45
'0:06.238',-3.97
'0:06.242',-4.34
'0:06.246',-4.48
'0:06.250',-4.37
'0:06.254',-4.32
'0:06.258',-4.56
'0:06.262',-4.87
'0:06.266',-5.19
'0:06.270',-5.49
'0:06.273',-5.61
'0:06.277',-5.59
'0:06.281',-4.94
'0:06.285',-3.34
'0:06.289',0.11
'0:06.293',6.02
'0:06.297',12.68
'0:06.301',18.35
'0:06.305',22.71
'0:06.309',25.21
'0:06.313',23.02
'0:06.316',14.84
'0:06.320',4.75
'0:06.324',-3.03
'0:06.328',-7.59
'0:06.332',-9.58
'0:06.336',-10.19
'0:06.340',-9.97
'0:06.344',-9.31
'0:06.348',-8.43
'0:06.352',-7.84
'0:06.355',-7.57
'0:06.359',-7.21
'0:06.363',-6.59
'0:06.367',-5.61
'0:06.371',-4.93
'0:06.375',-4.41
'0:06.379',-4.33
'0:06.383',-4.12
'0:06.387',-3.85
'0:06.391',-2.98
'0:06.395',-2.13
'0:06.398',-1.59
'0:06.402',-1.46
'0:06.406',-0.98
'0:06.410',-0.29
'0:06.414',0.54
'0:06.418',1.13
'0:06.422',1.61
'0:06.426',2.2
'0:06.430',2.95
'0:06.434',3.07
'0:06.438',3.13
'0:06.441',3.13
'0:06.445',2.96
'0:06.449',2.66
'0:06.453',2.17
'0:06.457',1.64
'0:06.461',0.97
'0:06.465',0.59
'0:06.469',0.23
'0:06.473',-0.24
'0:06.477',-0.68
'0:06.480',-1.09
'0:06.484',-1.5
'0:06.488',-1.48
'0:06.492',-1.33
'0:06.496',-0.97
'0:06.500',-0.93
'0:06.504',-0.97
'0:06.508',-0.79
'0:06.512',-0.35
'0:06.516',0.13
'0:06.520',0.18
'0:06.523',-0.03
'0:06.527',-0.27
'0:06.531',-0.46
'0:06.535',-0.49
'0:06.539',-0.77
'0:06.543',-1.2
'0:06.547',-1.42
'0:06.551',-1.8
'0:06.555',-2.18
'0:06.559',-2.87
'0:06.563',-3.52
'0:06.566',-3.92
'0:06.570',-4.23
'0:06.574',-4.1
'0:06.578',-3.91
'0:06.582',-4.27
'0:06.586',-4.71
'0:06.590',-4.83
'0:06.594',-4.33
'0:06.598',-2.88
'0:06.602',-0.3
'0:06.605',4.08
'0:06.609',9.74
'0:06.613',15.05
'0:06.617',19
'0:06.621',21.05
'0:06.625',19.05
'0:06.629',11.31
'0:06.633',2.07
'0:06.637',-4.68
'0:06.641',-8.21
'0:06.645',-9.54
'0:06.648',-9.66
'0:06.652',-9.1
'0:06.656',-8.38
'0:06.660',-8.24
'0:06.664',-8.52
'0:06.668',-8.1
'0:06.672',-7.14
'0:06.676',-6.55
'0:06.680',-6.24
'0:06.684',-5.58
'0:06.688',-4.57
'0:06.691',-3.86
'0:06.695',-3.61
'0:06.699',-3.3
'0:06.703',-2.75
'0:06.707',-2.25
'0:06.711',-1.44
'0:06.715',-0.54
'0:06.719',0.34
'0:06.723',1.03
'0:06.727',1.51
'0:06.730',2.17
'0:06.734',2.94
'0:06.738',3.83
'0:06.742',4.62
'0:06.746',5.13
'0:06.750',5.2
'0:06.754',5.04
'0:06.758',4.84
'0:06.762',4.53
'0:06.766',4.06
'0:06.770',3.35
'0:06.773',2.51
'0:06.777',1.82
'0:06.781',1.28
'0:06.785',0.97
'0:06.789',0.55
'0:06.793',0.12
'0:06.797',0
'0:06.801',0.06
'0:06.805',0.42
'0:06.809',0.65
'0:06.813',0.85
'0:06.816',1.27
'0:06.820',1.6
'0:06.824',1.5
'0:06.828',1.21
'0:06.832',1.08
'0:06.836',1.05
'0:06.840',1
'0:06.844',1.01
'0:06.848',1.32
'0:06.852',1.4
'0:06.855',1.15
'0:06.859',0.76
'0:06.863',0.34
'0:06.867',-0.13
'0:06.871',-0.37
'0:06.875',-0.62
'0:06.879',-0.7
'0:06.883',-0.76
'0:06.887',-0.72
'0:06.891',-0.34
'0:06.895',-0.28
'0:06.898',-0.51
'0:06.902',-1.03
'0:06.906',-0.96
'0:06.910',0
'0:06.914',1.43
'0:06.918',3.99
'0:06.922',7.83
'0:06.926',12.99
'0:06.930',18.37
'0:06.934',22.7
'0:06.938',25.37
'0:06.941',24.36
'0:06.945',17.51
'0:06.949',7.89
'0:06.953',-0.21
'0:06.957',-5.14
'0:06.961',-7.63
'0:06.965',-8.9
'0:06.969',-9.37
'0:06.973',-9.28
'0:06.977',-9.19
'0:06.980',-8.82
'0:06.984',-8.37
'0:06.988',-7.84
'0:06.992',-7.48
'0:06.996',-7.14
'0:07.000',-6.9
'0:07.004',-6.48
'0:07.008',-6
'0:07.012',-5.6
'0:07.016',-5.08
'0:07.020',-4.59
'0:07.023',-4.04
'0:07.027',-3.45
'0:07.031',-2.67
'0:07.035',-2.32
'0:07.039',-2.1
'0:07.043',-1.56
'0:07.047',-0.62
'0:07.051',0.4
'0:07.055',1.29
'0:07.059',2.05
'0:07.063',2.63
'0:07.066',2.9
'0:07.070',3.04
'0:07.074',3.04
'0:07.078',2.77
'0:07.082',2.45
'0:07.086',1.94
'0:07.090',1.25
'0:07.094',0.4
'0:07.098',-0.19
'0:07.102',-0.67
'0:07.105',-1.4
'0:07.109',-1.9
'0:07.113',-2.05
'0:07.117',-2.01
'0:07.121',-1.93
'0:07.125',-1.84
'0:07.129',-1.43
'0:07.133',-0.81
'0:07.137',-0.52
'0:07.141',-0.74
'0:07.145',-0.69
'0:07.148',-0.48
'0:07.152',0.02
'0:07.156',0.5
'0:07.160',0.52
'0:07.164',0.3
'0:07.168',-0.22
'0:07.172',-0.61
'0:07.176',-1.12
'0:07.180',-1.63
'0:07.184',-1.89
'0:07.188',-1.91
'0:07.191',-1.99
'0:07.195',-2.03
'0:07.199',-2.16
'0:07.203',-2.24
'0:07.207',-2.12
'0:07.211',-2.2
'0:07.215',-2.48
'0:07.219',-2.71
'0:07.223',-2.93
'0:07.227',-2.75
'0:07.230',-1.81
'0:07.234',0.44
'0:07.238',4.98
'0:07.242',11.22
'0:07.246',17.5
'0:07.250',22.51
'0:07.254',25.55
'0:07.258',25.37
'0:07.262',19.25
'0:07.266',9
'0:07.270',-0.11
'0:07.273',-5.67
'0:07.277',-8.24
'0:07.281',-8.96
'0:07.285',-9.55
'0:07.289',-9.58
'0:07.293',-9.04
'0:07.297',-8.44
'0:07.301',-8.42
'0:07.305',-8.07
'0:07.309',-7.48
'0:07.313',-7.17
'0:07.316',-7.04
'0:07.320',-6.69
'0:07.324',-6.08
'0:07.328',-5.58
'0:07.332',-4.88
'0:07.336',-3.76
'0:07.340',-3.26
'0:07.344',-3.21
'0:07.348',-2.92
'0:07.352',-2.52
'0:07.355',-2.31
'0:07.359',-1.87
'0:07.363',-1.4
'0:07.367',-0.57
'0:07.371',0.49
'0:07.375',1.37
'0:07.379',1.97
'0:07.383',1.71
'0:07.387',1.55
'0:07.391',1.51
'0:07.395',0.81
'0:07.398',0.06
'0:07.402',-0.41
'0:07.406',-0.89
'0:07.410',-1.33
'0:07.414',-1.58
'0:07.418',-1.45
'0:07.422',-1.46
'0:07.426',-2.41
'0:07.430',-2.62
'0:07.434',-2.65
'0:07.438',-2.55
'0:07.441',-2.25
'0:07.445',-2.19
'0:07.449',-1.75
'0:07.453',-1.52
'0:07.457',-1.16
'0:07.461',-1.02
'0:07.465',-1
'0:07.469',-0.79
'0:07.473',-0.29
'0:07.477',-0.33
'0:07.480',-0.6
'0:07.484',-0.9
'0:07.488',-1.31
'0:07.492',-1.86
'0:07.496',-2.38
'0:07.500',-2.66
'0:07.504',-2.75
'0:07.508',-2.62
'0:07.512',-2.37
'0:07.516',-2.38
'0:07.520',-2.54
'0:07.523',-2.61
'0:07.527',-2.52
'0:07.531',-2.37
'0:07.535',-2.29
'0:07.539',-2.1
'0:07.543',-1.31
'0:07.547',0.41
'0:07.551',3.95
'0:07.555',9.36
'0:07.559',15.18
'0:07.563',20.12
'0:07.566',23.57
'0:07.570',24.19
'0:07.574',19.38
'0:07.578',18.88
'0:07.582',1.5
'0:07.586',-3.99
'0:07.590',-6.62
'0:07.594',-7.34
'0:07.598',-7.06
'0:07.602',-6.36
'0:07.605',-5.54
'0:07.609',-5.08
'0:07.613',-4.59
'0:07.617',-4.12
'0:07.621',-3.73
'0:07.625',-3.52
'0:07.629',-3.27
'0:07.633',-3.04
'0:07.637',-2.33
'0:07.641',-1.47
'0:07.645',-1.39
'0:07.648',-1.68
'0:07.652',-1.76
'0:07.656',-1.56
'0:07.660',-1.01
'0:07.664',-0.42
'0:07.668',0.16
'0:07.672',0.49
'0:07.676',0.9
'0:07.680',1.49
'0:07.684',2.07
'0:07.688',2.43
'0:07.691',2.55
'0:07.695',2.35
'0:07.699',2.35
'0:07.703',2.55
'0:07.707',2.61
'0:07.711',2.49
'0:07.715',2.07
'0:07.719',1.02
'0:07.723',-0.02
'0:07.727',-0.58
'0:07.730',-1.35
'0:07.734',-2.1
'0:07.738',-2.58
'0:07.742',-2.75
'0:07.746',-2.86
'0:07.750',-3.01
'0:07.754',-3.06
'0:07.758',-3.02
'0:07.762',-2.75
'0:07.766',-2.62
'0:07.770',-2.36
'0:07.773',-1.76
'0:07.777',-1.24
'0:07.781',-0.92
'0:07.785',-0.54
'0:07.789',-0.47
'0:07.793',-0.6
'0:07.797',-0.73
'0:07.801',-0.67
'0:07.805',-0.53
'0:07.809',-1.08
'0:07.813',-1.55
'0:07.816',-1.89
'0:07.820',-1.97
'0:07.824',-1.98
'0:07.828',-2.05
'0:07.832',-2.14
'0:07.836',-2.03
'0:07.840',-1.8
'0:07.844',-1.33
'0:07.848',-1.42
'0:07.852',-1.42
'0:07.855',-1.07
'0:07.859',-0.53
'0:07.863',0.76
'0:07.867',3.8
'0:07.871',9.32
'0:07.875',15.74
'0:07.879',21.29
'0:07.883',24.85
'0:07.887',25.59
'0:07.891',21.53
'0:07.895',12.95
'0:07.898',3.92
'0:07.902',-1.92
'0:07.906',-4.65
'0:07.910',-6.01
'0:07.914',-6.44
'0:07.918',-6.42
'0:07.922',-6.23
'0:07.926',-6.2
'0:07.930',-5.75
'0:07.934',-4.98
'0:07.938',-4.82
'0:07.941',-4.44
'0:07.945',-3.87
'0:07.949',-3.33
'0:07.953',-3.03
'0:07.957',-2.73
'0:07.961',-2.18
'0:07.965',-1.49
'0:07.969',-0.83
'0:07.973',-0.41
'0:07.977',0.03
'0:07.980',0.42
'0:07.984',0.83
'0:07.988',1.34
'0:07.992',1.99
'0:07.996',2.67
'0:08.000',3.39
'0:08.004',4.01
'0:08.008',4.56
'0:08.012',4.99
'0:08.016',5.4
'0:08.020',5.55
'0:08.023',5.33
'0:08.027',4.41
'0:08.031',3.17
'0:08.035',2.14
'0:08.039',1.29
'0:08.043',0.51
'0:08.047',-0.17
'0:08.051',-0.52
'0:08.055',-1.51
'0:08.059',-2.55
'0:08.063',-3
'0:08.066',-2.87
'0:08.070',-2.54
'0:08.074',-1.99
'0:08.078',-1.39
'0:08.082',-1.35
'0:08.086',-1.71
'0:08.090',-1.69
'0:08.094',-1.76
'0:08.098',-1.76
'0:08.102',-1.35
'0:08.105',-1.02
'0:08.109',-1.7
'0:08.113',-2.14
'0:08.117',-2.11
'0:08.121',-2.45
'0:08.125',-2.94
'0:08.129',-3.21
'0:08.133',-3.46
'0:08.137',-3.76
'0:08.141',-3.96
'0:08.145',-4.31
'0:08.148',-4.6
'0:08.152',-4.4
'0:08.156',-4.33
'0:08.160',-4.48
'0:08.164',-4.69
'0:08.168',-4.61
'0:08.172',-4.15
'0:08.176',-3.37
'0:08.180',-2.04
'0:08.184',1.34
'0:08.188',5.43
'0:08.191',11.87
'0:08.195',17.92
'0:08.199',22.19
'0:08.203',23.99
'0:08.207',21.18
'0:08.211',12.78
'0:08.215',2.9
'0:08.219',-4.35
'0:08.223',-4.75
'0:08.227',-9.86
'0:08.230',-9.89
'0:08.234',-9.62
'0:08.238',-9.21
'0:08.242',-8.79
'0:08.246',-8.2
'0:08.250',-7.66
'0:08.254',-7.01
'0:08.258',-6.26
'0:08.262',-5.57
'0:08.266',-4.93
'0:08.270',-4.39
'0:08.273',-4.25
'0:08.277',-3.94
'0:08.281',-3.68
'0:08.285',-3.43
'0:08.289',-3.04
'0:08.293',-2.59
'0:08.297',-1.78
'0:08.301',-1.04
'0:08.305',-0.31
'0:08.309',0.47
'0:08.313',1.21
'0:08.316',1.65
'0:08.320',2.25
'0:08.324',2.84
'0:08.328',3.2
'0:08.332',3.68
'0:08.336',3.8
'0:08.340',3.84
'0:08.344',3.93
'0:08.348',3.54
'0:08.352',2.97
'0:08.355',1.22
'0:08.359',0.27
'0:08.363',-0.09
'0:08.367',-0.33
'0:08.371',-0.52
'0:08.375',-0.67
'0:08.379',-0.77
'0:08.383',-0.59
'0:08.387',-0.6
'0:08.391',-0.67
'0:08.395',-0.59
'0:08.398',-0.45
'0:08.402',-0.29
'0:08.406',-0.02
'0:08.410',0.33
'0:08.414',0.64
'0:08.418',0.94
'0:08.422',0.95
'0:08.426',1
'0:08.430',1.14
'0:08.434',1.33
'0:08.438',1.39
'0:08.441',1.26
'0:08.445',0.83
'0:08.449',0.69
'0:08.453',-0.16
'0:08.457',-1.06
'0:08.461',-1.45
'0:08.465',-1.62
'0:08.469',-1.87
'0:08.473',-2.29
'0:08.477',-2.7
'0:08.480',-2.9
'0:08.484',-2.62
'0:08.488',-1.8
'0:08.492',-0.66
'0:08.496',2.15
'0:08.500',6.92
'0:08.504',12.04
'0:08.508',16.19
'0:08.512',19.12
'0:08.516',19.97
'0:08.520',16.21
'0:08.523',7.43
'0:08.527',-1.62
'0:08.531',-7.48
'0:08.535',-10.18
'0:08.539',-10.81
'0:08.543',-10.42
'0:08.547',-9.69
'0:08.551',-9.17
'0:08.555',-8.68
'0:08.559',-8.06
'0:08.563',-7.37
'0:08.566',-6.62
'0:08.570',-5.84
'0:08.574',-5.46
'0:08.578',-5.28
'0:08.582',-4.87
'0:08.586',-4.24
'0:08.590',-3.44
'0:08.594',-2.7
'0:08.598',-2.18
'0:08.602',-1.7
'0:08.605',-1.24
'0:08.609',-0.71
'0:08.613',-0.17
'0:08.617',0.49
'0:08.621',0.78
'0:08.625',2.65
'0:08.629',2.77
'0:08.633',2.82
'0:08.637',3.44
'0:08.641',4.05
'0:08.645',4.29
'0:08.648',4.05
'0:08.652',3.67
'0:08.656',3.39
'0:08.660',2.57
'0:08.664',1.66
'0:08.668',0.98
'0:08.672',0.57
'0:08.676',0.4
'0:08.680',0.44
'0:08.684',0.51
'0:08.688',0.6
'0:08.691',0.71
'0:08.695',0.83
'0:08.699',1.07
'0:08.703',0.98
'0:08.707',1.25
'0:08.711',1.66
'0:08.715',1.85
'0:08.719',1.8
'0:08.723',2.01
'0:08.727',1.77
'0:08.730',1.2
'0:08.734',0.73
'0:08.738',0.58
'0:08.742',0.44
'0:08.746',0.41
'0:08.750',0.36
'0:08.754',0.16
'0:08.758',0.05
'0:08.762',-0.02
'0:08.766',-0.46
'0:08.770',-0.67
'0:08.773',-0.91
'0:08.777',-1.19
'0:08.781',-1.41
'0:08.785',-1.4
'0:08.789',-1.34
'0:08.793',-1.47
'0:08.797',-1.68
'0:08.801',-1.67
'0:08.805',-1.16
'0:08.809',0.06
'0:08.813',2.64
'0:08.816',7.08
'0:08.820',10.24
'0:08.824',17.18
'0:08.828',21.5
'0:08.832',23.38
'0:08.836',21.35
'0:08.840',14.32
'0:08.844',5.34
'0:08.848',-1.86
'0:08.852',-5.92
'0:08.855',-7.79
'0:08.859',-8.78
'0:08.863',-9.25
'0:08.867',-8.98
'0:08.871',-8.66
'0:08.875',-8.13
'0:08.879',-7.23
'0:08.883',-6.65
'0:08.887',-6.72
'0:08.891',-7.12
'0:08.895',-7.02
'0:08.898',-6.23
'0:08.902',-5.8
'0:08.906',-5.65
'0:08.910',-5.14
'0:08.914',-4.42
'0:08.918',-4.03
'0:08.922',-3.69
'0:08.926',-2.86
'0:08.930',-2.04
'0:08.934',-1.96
'0:08.938',-2
'0:08.941',-1.59
'0:08.945',-0.8
'0:08.949',0.03
'0:08.953',0.83
'0:08.957',1.48
'0:08.961',1.9
'0:08.965',2
'0:08.969',1.91
'0:08.973',1.45
'0:08.977',0.89
'0:08.980',0.37
'0:08.984',-0.07
'0:08.988',-0.64
'0:08.992',-1.36
'0:08.996',-2.01
'0:09.000',-2.53
'0:09.004',-2.82
'0:09.008',-2.79
'0:09.012',-2.45
'0:09.016',-2.02
'0:09.020',-1.8
'0:09.023',-1.63
'0:09.027',-1.29
'0:09.031',-1
'0:09.035',-0.81
'0:09.039',-0.48
'0:09.043',-0.2
'0:09.047',-0.26
'0:09.051',-0.33
'0:09.055',-0.42
'0:09.059',-0.66
'0:09.063',-0.86
'0:09.066',-1.01
'0:09.070',-1.04
'0:09.074',-1.23
'0:09.078',-1.57
'0:09.082',-1.64
'0:09.086',-1.44
'0:09.090',-1.58
'0:09.094',-1.87
'0:09.098',-1.79
'0:09.102',-1.57
'0:09.105',-1.44
'0:09.109',-0.63
'0:09.113',-0.25
'0:09.117',0.03
'0:09.121',0.8
'0:09.125',2.25
'0:09.129',4.64
'0:09.133',8.83
'0:09.137',18.62
'0:09.141',30.01
'0:09.145',37.15
'0:09.148',40.33
'0:09.152',40.98
'0:09.156',40.17
'0:09.160',36.08
'0:09.164',29.77
'0:09.168',24.15
'0:09.172',19.01
'0:09.176',15.54
'0:09.180',14.11
'0:09.184',13.34
'0:09.188',13.2
'0:09.191',12.69
'0:09.195',10.95
'0:09.199',8.88
'0:09.203',7.76
'0:09.207',7.48
'0:09.211',7.43
'0:09.215',7.28
'0:09.219',6.98
'0:09.223',6.91
'0:09.227',7.12
'0:09.230',6.72
'0:09.234',6.54
'0:09.238',4.41
'0:09.242',-3.54
'0:09.246',-11.7
'0:09.250',-16.86
'0:09.254',-20.05
'0:09.258',-22.29
'0:09.262',-23.03
'0:09.266',-23.18
'0:09.270',-23.08
'0:09.273',-22.93
'0:09.277',-22.76
'0:09.281',-22.58
'0:09.285',-22.5
'0:09.289',-22.26
'0:09.293',-22.16
'0:09.297',-22.1
'0:09.301',-21.85
'0:09.305',-21.85
'0:09.309',-22.19
'0:09.313',-22.08
'0:09.316',-22.11
'0:09.320',-21.58
'0:09.324',-19.58
'0:09.328',-18.9
'0:09.332',-20.23
'0:09.336',-21.5
'0:09.340',-20.44
'0:09.344',-17.99
'0:09.348',-17.05
'0:09.352',-17.03
'0:09.355',-16.15
'0:09.359',-15.11
'0:09.363',-14.92
'0:09.367',-15.79
'0:09.371',-16.39
'0:09.375',-16.9
'0:09.379',-17.05
'0:09.383',-16.88
'0:09.387',-16.41
'0:09.391',-15.24
'0:09.395',-14.49
'0:09.398',-15.37
'0:09.402',-16.51
'0:09.406',-16.8
'0:09.410',-16.13
'0:09.414',-15.1
'0:09.418',-13.93
'0:09.422',-12.63
'0:09.426',-11.71
'0:09.430',-10.94
'0:09.434',-10.08
'0:09.438',-9.03
'0:09.441',-7.32
'0:09.445',-4.93
'0:09.449',-0.65
'0:09.453',5.52
'0:09.457',12.23
'0:09.461',17.48
'0:09.465',20.83
'0:09.469',20.65
'0:09.473',15.09
'0:09.477',5.89
'0:09.480',-1.84
'0:09.484',-6.32
'0:09.488',-7.91
'0:09.492',-7.37
'0:09.496',-6.05
'0:09.500',-4.7
'0:09.504',-3.1
'0:09.508',-1.43
'0:09.512',0.08
'0:09.516',0.95
'0:09.520',3.59
'0:09.523',4.66
'0:09.527',5.45
'0:09.531',5.92
'0:09.535',6.67
'0:09.539',7.55
'0:09.543',8.54
'0:09.547',9.51
'0:09.551',10.24
'0:09.555',11.02
'0:09.559',11.55
'0:09.563',11.88
'0:09.566',12.37
'0:09.570',12.76
'0:09.574',12.96
'0:09.578',13.37
'0:09.582',13.82
'0:09.586',13.71
'0:09.590',13.51
'0:09.594',12.95
'0:09.598',12.77
'0:09.602',12.41
'0:09.605',11.23
'0:09.609',10.27
'0:09.613',9.27
'0:09.617',8.31
'0:09.621',7.92
'0:09.625',7.15
'0:09.629',6.82
'0:09.633',6.39
'0:09.637',5.82
'0:09.641',5.51
'0:09.645',5.08
'0:09.648',5
'0:09.652',4.96
'0:09.656',5.23
'0:09.660',5.84
'0:09.664',5.41
'0:09.668',4.59
'0:09.672',3.86
'0:09.676',3.73
'0:09.680',3.79
'0:09.684',3.51
'0:09.688',3.19
'0:09.691',2.53
'0:09.695',2.02
'0:09.699',1.76
'0:09.703',1.34
'0:09.707',1.03
'0:09.711',1.03
'0:09.715',1.03
'0:09.719',0.65
'0:09.723',0.13
'0:09.727',0.31
'0:09.730',0.79
'0:09.734',0.77
'0:09.738',0.61
'0:09.742',0.61
'0:09.746',0.61
'0:09.750',0.34
'0:09.754',0.3
'0:09.758',1.39
'0:09.762',4.1
'0:09.766',8.83
'0:09.770',15.03
'0:09.773',20.64
'0:09.777',24.75
'0:09.781',26.79
'0:09.785',24.56
'0:09.789',17.18
'0:09.793',7.81
'0:09.797',0.47
'0:09.801',-3.95
'0:09.805',-5.92
'0:09.809',-6.58
'0:09.813',-6.74
'0:09.816',-6.66
'0:09.820',-6.33
'0:09.824',-5.93
'0:09.828',-5.55
'0:09.832',-5
'0:09.836',-4.64
'0:09.840',-4.44
'0:09.844',-3.97
'0:09.848',-2.79
'0:09.852',-2.11
'0:09.855',-2.05
'0:09.859',-1.87
'0:09.863',-1.51
'0:09.867',-1.45
'0:09.871',-1.7
'0:09.875',-1.48
'0:09.879',-0.89
'0:09.883',-0.13
'0:09.887',0.71
'0:09.891',1.59
'0:09.895',2.3
'0:09.898',2.93
'0:09.902',3.55
'0:09.906',4.07
'0:09.910',4.35
'0:09.914',4.35
'0:09.918',4.07
'0:09.922',3.59
'0:09.926',3.07
'0:09.930',2.44
'0:09.934',1.79
'0:09.938',1.24
'0:09.941',0.56
'0:09.945',-0.31
'0:09.949',-1.1
'0:09.953',-1.73
'0:09.957',-2.19
'0:09.961',-2.36
'0:09.965',-2.29
'0:09.969',-2.13
'0:09.973',-1.86
'0:09.977',-1.59
'0:09.980',-1.39
'0:09.984',-1.36
'0:09.988',-1.3
'0:09.992',-1.04
'0:09.996',-0.94
'0:10.000',-0.88
'0:10.004',-0.69
'0:10.008',-0.34
'0:10.012',0
'0:10.016',-0.21
'0:10.020',-1.5
'0:10.023',-2.62
'0:10.027',-3.53
'0:10.031',-4.24
'0:10.035',-4.36
'0:10.039',-4.28
'0:10.043',-4.37
'0:10.047',-4.45
'0:10.051',-4.39
'0:10.055',-4.19
'0:10.059',-4.14
'0:10.063',-4.27
'0:10.066',-4.53
'0:10.070',-4.37
'0:10.074',-3.19
'0:10.078',-0.53
'0:10.082',4.48
'0:10.086',11.28
'0:10.090',17.84
'0:10.094',22.49
'0:10.098',25.02
'0:10.102',23.36
'0:10.105',15.72
'0:10.109',5.6
'0:10.113',-2.18
'0:10.117',-6.69
'0:10.121',-8.46
'0:10.125',-9.34
'0:10.129',-9.73
'0:10.133',-9.89
'0:10.137',-9.59
'0:10.141',-9.13
'0:10.145',-8.54
'0:10.148',-7.88
'0:10.152',-7.21
'0:10.156',-6.52
'0:10.160',-5.84
'0:10.164',-5.14
'0:10.168',-4.41
'0:10.172',-3.71
'0:10.176',-3.25
'0:10.180',-3.1
'0:10.184',-2.53
'0:10.188',-1.86
'0:10.191',-1.18
'0:10.195',-0.76
'0:10.199',-0.12
'0:10.203',0.62
'0:10.207',1.27
'0:10.211',1.92
'0:10.215',2.87
'0:10.219',3.41
'0:10.223',3.67
'0:10.227',3.8
'0:10.230',3.73
'0:10.234',3.73
'0:10.238',3.73
'0:10.242',3.48
'0:10.246',2.76
'0:10.250',2.5
'0:10.254',2.2
'0:10.258',1.65
'0:10.262',0.86
'0:10.266',0.1
'0:10.270',-0.72
'0:10.273',-1.12
'0:10.277',-1.3
'0:10.281',-1.23
'0:10.285',-0.83
'0:10.289',-0.4
'0:10.293',-0.2
'0:10.297',0.35
'0:10.301',0.78
'0:10.305',0.82
'0:10.309',1.07
'0:10.313',0.6
'0:10.316',-0.09
'0:10.320',-0.13
'0:10.324',0.27
'0:10.328',0.32
'0:10.332',-0.16
'0:10.336',-0.8
'0:10.340',-1.1
'0:10.344',-1.62
'0:10.348',-2.26
'0:10.352',-2.91
'0:10.355',-3.4
'0:10.359',-3.5
'0:10.363',-3.53
'0:10.367',-3.68
'0:10.371',-3.74
'0:10.375',-3.48
'0:10.379',-3.36
'0:10.383',-3.36
'0:10.387',-2.9
'0:10.391',-1.24
'0:10.395',2.2
'0:10.398',7.6
'0:10.402',13.31
'0:10.406',17.76
'0:10.410',20.47
'0:10.414',20.29
'0:10.418',14.64
'0:10.422',5.19
'0:10.426',-2.59
'0:10.430',-7.13
'0:10.434',-8.79
'0:10.438',-9.34
'0:10.441',-9.78
'0:10.445',-9.67
'0:10.449',-9.12
'0:10.453',-8.06
'0:10.457',-6.63
'0:10.461',-6.22
'0:10.465',-6.14
'0:10.469',-6.11
'0:10.473',-6.09
'0:10.477',-5.35
'0:10.480',-4.67
'0:10.484',-4.14
'0:10.488',-3.53
'0:10.492',-2.91
'0:10.496',-2.34
'0:10.500',-1.95
'0:10.504',-1.45
'0:10.508',-0.89
'0:10.512',-0.02
'0:10.516',0.76
'0:10.520',1.54
'0:10.523',2.27
'0:10.527',2.91
'0:10.531',3.55
'0:10.535',4.16
'0:10.539',4.59
'0:10.543',4.71
'0:10.547',4.62
'0:10.551',4.15
'0:10.555',3.4
'0:10.559',2.63
'0:10.563',1.95
'0:10.566',1.28
'0:10.570',0.73
'0:10.574',0.14
'0:10.578',-0.31
'0:10.582',-0.62
'0:10.586',-0.66
'0:10.590',-0.29
'0:10.594',-0.22
'0:10.598',-0.31
'0:10.602',-0.17
'0:10.605',0.2
'0:10.609',0.49
'0:10.613',0.6
'0:10.617',0.97
'0:10.621',1.44
'0:10.625',1.79
'0:10.629',1.89
'0:10.633',1.77
'0:10.637',1.6
'0:10.641',1.43
'0:10.645',1.1
'0:10.648',0.52
'0:10.652',-0.05
'0:10.656',-0.69
'0:10.660',-1.18
'0:10.664',-1.47
'0:10.668',-1.63
'0:10.672',-1.75
'0:10.676',-1.82
'0:10.680',-1.71
'0:10.684',-1.45
'0:10.688',-1.2
'0:10.691',-0.94
'0:10.695',-0.53
'0:10.699',-0.04
'0:10.703',1.01
'0:10.707',3.19
'0:10.711',7.18
'0:10.715',12.74
'0:10.719',21.59
'0:10.723',30.77
'0:10.727',36.2
'0:10.730',38.38
'0:10.734',37.92
'0:10.738',32.94
'0:10.742',25.52
'0:10.746',17.26
'0:10.750',7.01
'0:10.754',-2.19
'0:10.758',-8.91
'0:10.762',-13.21
'0:10.766',-15.4
'0:10.770',-16.43
'0:10.773',-16.71
'0:10.777',-16.46
'0:10.781',-16
'0:10.785',-15.57
'0:10.789',-14.9
'0:10.793',-14.04
'0:10.797',-12.99
'0:10.801',-12.11
'0:10.805',-11.44
'0:10.809',-11.3
'0:10.813',-11.12
'0:10.816',-10.7
'0:10.820',-9.96
'0:10.824',-9.12
'0:10.828',-8.19
'0:10.832',-7.26
'0:10.836',-6.22
'0:10.840',-5.15
'0:10.844',-4.04
'0:10.848',-2.78
'0:10.852',-1.66
'0:10.855',-0.93
'0:10.859',-0.48
'0:10.863',-0.38
'0:10.867',-0.49
'0:10.871',-0.9
'0:10.875',-1.34
'0:10.879',-1.75
'0:10.883',-2.22
'0:10.887',-2.81
'0:10.891',-3.47
'0:10.895',-4.01
'0:10.898',-4.08
'0:10.902',-3.73
'0:10.906',-3.14
'0:10.910',-3.22
'0:10.914',-3.5
'0:10.918',-3.53
'0:10.922',-3.27
'0:10.926',-2.62
'0:10.930',-2.19
'0:10.934',-2.09
'0:10.938',-2.25
'0:10.941',-2.12
'0:10.945',-1.73
'0:10.949',-1.67
'0:10.953',-1.63
'0:10.957',-1.51
'0:10.961',-1.31
'0:10.965',-1.02
'0:10.969',-1.17
'0:10.973',-1.45
'0:10.977',-1.73
'0:10.980',-2.12
'0:10.984',-2.57
'0:10.988',-3.18
'0:10.992',-3.39
'0:10.996',-3.06
'0:11.000',-2.87
'0:11.004',-2.88
'0:11.008',-2.91
'0:11.012',-3.21
'0:11.016',-3.3
'0:11.020',-3.24
'0:11.023',-0.11
'0:11.027',3.86
'0:11.031',9.78
'0:11.035',16.21
'0:11.039',21.45
'0:11.043',25.01
'0:11.047',25.58
'0:11.051',20.64
'0:11.055',11.14
'0:11.059',1.88
'0:11.063',-4.45
'0:11.066',-7.77
'0:11.070',-9.04
'0:11.074',-9.4
'0:11.078',-9.32
'0:11.082',-8.66
'0:11.086',-8.33
'0:11.090',-7.68
'0:11.094',-7.33
'0:11.098',-7.1
'0:11.102',-6.85
'0:11.105',-6.09
'0:11.109',-5.43
'0:11.113',-5.13
'0:11.117',-4.89
'0:11.121',-4.42
'0:11.125',-3.88
'0:11.129',-3.39
'0:11.133',-3
'0:11.137',-2.88
'0:11.141',-2.58
'0:11.145',-1.98
'0:11.148',-1.17
'0:11.152',-0.9
'0:11.156',-0.63
'0:11.160',0.12
'0:11.164',0.99
'0:11.168',1.45
'0:11.172',1.52
'0:11.176',1.62
'0:11.180',1.57
'0:11.184',1.2
'0:11.188',0.84
'0:11.191',0.51
'0:11.195',0.02
'0:11.199',-0.7
'0:11.203',-1.44
'0:11.207',-1.74
'0:11.211',-1.75
'0:11.215',-1.82
'0:11.219',-2.1
'0:11.223',-2.53
'0:11.227',-2.81
'0:11.230',-2.67
'0:11.234',-2.14
'0:11.238',-1.55
'0:11.242',-1.42
'0:11.246',-1.74
'0:11.250',-1.61
'0:11.254',-1.17
'0:11.258',-0.6
'0:11.262',-0.5
'0:11.266',-0.79
'0:11.270',-0.8
'0:11.273',-0.73
'0:11.277',-0.94
'0:11.281',-1.62
'0:11.285',-2.04
'0:11.289',-2.27
'0:11.293',-2.33
'0:11.297',-2.38
'0:11.301',-2.34
'0:11.305',-2.29
'0:11.309',-2.2
'0:11.313',-1.8
'0:11.316',-1.47
'0:11.320',-1.45
'0:11.324',-1.44
'0:11.328',-1.28
'0:11.332',-0.77
'0:11.336',0.48
'0:11.340',3.36
'0:11.344',8.21
'0:11.348',14.23
'0:11.352',19.59
'0:11.355',23.45
'0:11.359',25.43
'0:11.363',22.9
'0:11.367',15.01
'0:11.371',6.27
'0:11.375',0.35
'0:11.379',-2.49
'0:11.383',-3.56
'0:11.387',-3.36
'0:11.391',-2.65
'0:11.395',-1.86
'0:11.398',-1.31
'0:11.402',-0.92
'0:11.406',2.41
'0:11.410',9.78
'0:11.414',16.47
'0:11.418',20.7
'0:11.422',22.96
'0:11.426',23.76
'0:11.430',23.76
'0:11.434',23.55
'0:11.438',23.08
'0:11.441',22.36
'0:11.445',21.53
'0:11.449',20.53
'0:11.453',19.19
'0:11.457',18.24
'0:11.461',17.79
'0:11.465',17.48
'0:11.469',17.17
'0:11.473',16.83
'0:11.477',16.52
'0:11.480',16.03
'0:11.484',15.62
'0:11.488',15.4
'0:11.492',14.43
'0:11.496',12.92
'0:11.500',11.37
'0:11.504',9.94
'0:11.508',8.81
'0:11.512',7.73
'0:11.516',6.81
'0:11.520',5.54
'0:11.523',4.08
'0:11.527',2.95
'0:11.531',2.3
'0:11.535',1.67
'0:11.539',1.01
'0:11.543',0.38
'0:11.547',0.15
'0:11.551',0.41
'0:11.555',0.52
'0:11.559',0.16
'0:11.563',-0.69
'0:11.566',-1.81
'0:11.570',-2.2
'0:11.574',-2.29
'0:11.578',-2.29
'0:11.582',-2.34
'0:11.586',-2.36
'0:11.590',-2.76
'0:11.594',-3.46
'0:11.598',-4.21
'0:11.602',-5.01
'0:11.605',-5.57
'0:11.609',-6.09
'0:11.613',-6.4
'0:11.617',-6.5
'0:11.621',-6.66
'0:11.625',-6.81
'0:11.629',-6.92
'0:11.633',-6.92
'0:11.637',-6.98
'0:11.641',-7.4
'0:11.645',-7.53
'0:11.648',-7.09
'0:11.652',-5.91
'0:11.656',-3.3
'0:11.660',1.36
'0:11.664',6.34
'0:11.668',9.53
'0:11.672',10.99
'0:11.676',11.38
'0:11.680',10.8
'0:11.684',6.37
'0:11.688',-0.79
'0:11.691',-6.12
'0:11.695',-9.53
'0:11.699',-11.82
'0:11.703',-12.71
'0:11.707',-12.7
'0:11.711',-12.41
'0:11.715',-12.12
'0:11.719',-11.79
'0:11.723',-11.24
'0:11.727',-10.67
'0:11.730',-10.22
'0:11.734',-9.76
'0:11.738',-9.28
'0:11.742',-8.7
'0:11.746',-8.23
'0:11.750',-7.86
'0:11.754',-7.45
'0:11.758',-7.04
'0:11.762',-6.68
'0:11.766',-6.17
'0:11.770',-5.45
'0:11.773',-4.76
'0:11.777',-4.35
'0:11.781',-3.99
'0:11.785',-3.27
'0:11.789',-2.29
'0:11.793',-1.45
'0:11.797',-0.97
'0:11.801',-0.58
'0:11.805',-0.28
'0:11.809',-0.3
'0:11.813',-0.52
'0:11.816',-0.87
'0:11.820',-0.87
'0:11.824',-0.87
'0:11.828',-0.87
'0:11.832',-0.87
'0:11.836',-0.87
'0:11.840',-0.87
'0:11.844',-0.87
'0:11.848',-5.97
'0:11.852',-5.92
'0:11.855',-5.73
'0:11.859',-5.63
'0:11.863',-5.55
'0:11.867',-5.44
'0:11.871',-5.38
'0:11.875',-5.51
'0:11.879',-5.73
'0:11.883',-5.78
'0:11.887',-5.52
'0:11.891',-5.01
'0:11.895',-4.62
'0:11.898',-4.32
'0:11.902',-4.15
'0:11.906',-4.26
'0:11.910',-4.51
'0:11.914',-4.89
'0:11.918',-5.36
'0:11.922',-5.56
'0:11.926',-5.65
'0:11.930',-5.75
'0:11.934',-5.73
'0:11.938',-5.77
'0:11.941',-5.79
'0:11.945',-5.71
'0:11.949',-5.6
'0:11.953',-5.69
'0:11.957',-5.97
'0:11.961',-6.25
'0:11.965',-6.18
'0:11.969',-5.48
'0:11.973',-3.88
'0:11.977',-0.22
'0:11.980',5.68
'0:11.984',11.61
'0:11.988',15.36
'0:11.992',17.12
'0:11.996',17.58
'0:12.000',17.52
'0:12.004',6.58
'0:12.008',-1.31
'0:12.012',-6.68
'0:12.016',-9.58
'0:12.020',-10.71
'0:12.023',-10.95
'0:12.027',-10.93
'0:12.031',-12.39
'0:12.035',-15.6
'0:12.039',-19.43
'0:12.043',-22.35
'0:12.047',-24.17
'0:12.051',-24.9
'0:12.055',-24.64
'0:12.059',-23.83
'0:12.063',-22.99
'0:12.066',-22.49
'0:12.070',-22.23
'0:12.074',-21.67
'0:12.078',-20.88
'0:12.082',-19.89
'0:12.086',-18.53
'0:12.090',-16.7
'0:12.094',-14.35
'0:12.098',-10.65
'0:12.102',-3.6
'0:12.105',3.67
'0:12.109',8.98
'0:12.113',12.14
'0:12.117',13.73
'0:12.121',14.47
'0:12.125',14.72
'0:12.129',14.57
'0:12.133',14.18
'0:12.137',13.56
'0:12.141',12.75
'0:12.145',11.76
'0:12.148',10.62
'0:12.152',9.58
'0:12.156',8.65
'0:12.160',7.87
'0:12.164',7.08
'0:12.168',6.53
'0:12.172',6.16
'0:12.176',5.94
'0:12.180',5.9
'0:12.184',5.81
'0:12.188',5.32
'0:12.191',4.78
'0:12.195',4.59
'0:12.199',4.58
'0:12.203',4.62
'0:12.207',4.73
'0:12.211',4.51
'0:12.215',4.21
'0:12.219',3.86
'0:12.223',3.37
'0:12.227',2.82
'0:12.230',2.38
'0:12.234',2.04
'0:12.238',1.61
'0:12.242',1.1
'0:12.246',0.69
'0:12.250',0.25
'0:12.254',-0.2
'0:12.258',-0.52
'0:12.262',-0.74
'0:12.266',-0.83
'0:12.270',-0.94
'0:12.273',-1.04
'0:12.277',-0.98
'0:12.281',-0.45
'0:12.285',0.94
'0:12.289',3.98
'0:12.293',8.79
'0:12.297',14.33
'0:12.301',18.96
'0:12.305',21.66
'0:12.309',22.21
'0:12.313',17.89
'0:12.316',9.1
'0:12.320',0.76
'0:12.324',-4.55
'0:12.328',-7.07
'0:12.332',-7.98
'0:12.336',-8.14
'0:12.340',-8.05
'0:12.344',-7.74
'0:12.348',-7.31
'0:12.352',-6.73
'0:12.355',-6.16
'0:12.359',-5.86
'0:12.363',-5.55
'0:12.367',-5.16
'0:12.371',-4.71
'0:12.375',-4.28
'0:12.379',-3.88
'0:12.383',-3.41
'0:12.387',-2.85
'0:12.391',-2.3
'0:12.395',-1.82
'0:12.398',-1.52
'0:12.402',-1.3
'0:12.406',-0.78
'0:12.410',-0.02
'0:12.414',0.95
'0:12.418',1.79
'0:12.422',2.35
'0:12.426',2.82
'0:12.430',3.22
'0:12.434',3.4
'0:12.438',3.12
'0:12.441',2.86
'0:12.445',2.51
'0:12.449',2.12
'0:12.453',1.57
'0:12.457',0.9
'0:12.461',0.23
'0:12.465',-0.31
'0:12.469',-0.74
'0:12.473',-1.06
'0:12.477',-1.28
'0:12.480',-1.41
'0:12.484',-1.45
'0:12.488',-1.48
'0:12.492',-1.4
'0:12.496',-1.23
'0:12.500',-1.07
'0:12.504',-0.93
'0:12.508',-0.85
'0:12.512',-0.83
'0:12.516',-0.74
'0:12.520',-0.58
'0:12.523',-0.6
'0:12.527',-0.7
'0:12.531',-0.84
'0:12.535',-1.15
'0:12.539',-1.42
'0:12.543',-1.76
'0:12.547',-2.18
'0:12.551',-2.53
'0:12.555',-2.89
'0:12.559',-3.24
'0:12.563',-3.52
'0:12.566',-3.49
'0:12.570',-3.26
'0:12.574',-3.19
'0:12.578',-3.28
'0:12.582',-3.15
'0:12.586',-3.03
'0:12.590',-2.94
'0:12.594',-2.8
'0:12.598',-2.04
'0:12.602',-0.02
'0:12.605',3.75
'0:12.609',9.04
'0:12.613',14.82
'0:12.617',19.69
'0:12.621',22.5
'0:12.625',22.84
'0:12.629',18.29
'0:12.633',9.6
'0:12.637',1.05
'0:12.641',-4.79
'0:12.645',-7.95
'0:12.648',-9.1
'0:12.652',-9.36
'0:12.656',-9.58
'0:12.660',-9.67
'0:12.664',-9.65
'0:12.668',-8.48
'0:12.672',-7.94
'0:12.676',-7.42
'0:12.680',-6.88
'0:12.684',-6.22
'0:12.688',-5.77
'0:12.691',-5.37
'0:12.695',-5.04
'0:12.699',-4.52
'0:12.703',-3.92
'0:12.707',-3.41
'0:12.711',-3.02
'0:12.715',-2.56
'0:12.719',-2.05
'0:12.723',-2
'0:12.727',-0.65
'0:12.730',0.09
'0:12.734',0.59
'0:12.738',1.4
'0:12.742',2.15
'0:12.746',2.83
'0:12.750',3.28
'0:12.754',3.25
'0:12.758',3.08
'0:12.762',2.87
'0:12.766',2.51
'0:12.770',1.98
'0:12.773',1.29
'0:12.777',0.56
'0:12.781',-0.15
'0:12.785',-0.68
'0:12.789',-1.15
'0:12.793',-1.56
'0:12.797',-1.8
'0:12.801',-1.84
'0:12.805',-1.79
'0:12.809',-1.61
'0:12.813',-1.47
'0:12.816',-1.35
'0:12.820',-1.11
'0:12.824',-0.83
'0:12.828',-0.73
'0:12.832',-0.87
'0:12.836',-0.94
'0:12.840',-0.76
'0:12.844',-0.59
'0:12.848',-0.65
'0:12.852',-0.93
'0:12.855',-1.15
'0:12.859',-1.3
'0:12.863',-1.67
'0:12.867',-2.21
'0:12.871',-2.77
'0:12.875',-3.14
'0:12.879',-3.28
'0:12.883',-3.22
'0:12.887',-3.17
'0:12.891',-3
'0:12.895',-2.74
'0:12.898',-2.51
'0:12.902',-2.46
'0:12.906',-2.62
'0:12.910',-2.7
'0:12.914',-2.35
'0:12.918',-1.12
'0:12.922',-0.51
'0:12.926',7.41
'0:12.930',13.55
'0:12.934',19.23
'0:12.938',23.4
'0:12.941',25.52
'0:12.945',23.25
'0:12.949',17.87
'0:12.953',8.27
'0:12.957',-0.03
'0:12.961',-5.2
'0:12.965',-7.78
'0:12.969',-8.72
'0:12.973',-8.73
'0:12.977',-8.38
'0:12.980',-7.98
'0:12.984',-7.53
'0:12.988',-7.13
'0:12.992',-6.67
'0:12.996',-6.18
'0:13.000',-5.84
'0:13.004',-5.47
'0:13.008',-5.04
'0:13.012',-4.55
'0:13.016',-4.04
'0:13.020',-3.63
'0:13.023',-3.14
'0:13.027',-2.68
'0:13.031',-2.1
'0:13.035',-1.47
'0:13.039',-0.81
'0:13.043',-0.1
'0:13.047',0.53
'0:13.051',1.09
'0:13.055',1.72
'0:13.059',2.34
'0:13.063',2.88
'0:13.066',3.28
'0:13.070',3.53
'0:13.074',3.55
'0:13.078',3.31
'0:13.082',3.06
'0:13.086',2.78
'0:13.090',2.41
'0:13.094',1.82
'0:13.098',1.06
'0:13.102',0.45
'0:13.105',-0.07
'0:13.109',-0.49
'0:13.113',-0.85
'0:13.117',-1.13
'0:13.121',-1.19
'0:13.125',-1.19
'0:13.129',-0.88
'0:13.133',-0.6
'0:13.137',-0.22
'0:13.141',-0.07
'0:13.145',-0.07
'0:13.148',-0.11
'0:13.152',-0.05
'0:13.156',0.09
'0:13.160',0.25
'0:13.164',0.29
'0:13.168',0.16
'0:13.172',-0.1
'0:13.176',-0.71
'0:13.180',-1.45
'0:13.184',-2.02
'0:13.188',-2.46
'0:13.191',-2.62
'0:13.195',-2.69
'0:13.199',-2.73
'0:13.203',-2.55
'0:13.207',-2.13
'0:13.211',-2
'0:13.215',-2.05
'0:13.219',-2.44
'0:13.223',-2.77
'0:13.227',-2.61
'0:13.230',-1.7
'0:13.234',0.24
'0:13.238',4.34
'0:13.242',7.31
'0:13.246',11.99
'0:13.250',19.34
'0:13.254',20.05
'0:13.258',22.47
'0:13.262',16.38
'0:13.266',6.77
'0:13.270',-1.21
'0:13.273',-5.98
'0:13.277',-8.19
'0:13.281',-8.82
'0:13.285',-8.75
'0:13.289',-8.29
'0:13.293',-7.58
'0:13.297',-6.81
'0:13.301',-6.35
'0:13.305',-6.05
'0:13.309',-5.61
'0:13.313',-5.06
'0:13.316',-4.67
'0:13.320',-4.48
'0:13.324',-4.13
'0:13.328',-3.68
'0:13.332',-3.21
'0:13.336',-2.68
'0:13.340',-2.26
'0:13.344',-1.92
'0:13.348',-1.55
'0:13.352',-1.21
'0:13.355',-0.73
'0:13.359',0.04
'0:13.363',0.99
'0:13.367',1.91
'0:13.371',2.64
'0:13.375',3.14
'0:13.379',3.34
'0:13.383',3.49
'0:13.387',3.29
'0:13.391',2.85
'0:13.395',2.46
'0:13.398',1.92
'0:13.402',1.09
'0:13.406',0.4
'0:13.410',-0.22
'0:13.414',-0.61
'0:13.418',-0.96
'0:13.422',-1
'0:13.426',-0.87
'0:13.430',-0.78
'0:13.434',-0.69
'0:13.438',-0.61
'0:13.441',-0.37
'0:13.445',-0.25
'0:13.449',-0.33
'0:13.453',-0.56
'0:13.457',-0.87
'0:13.461',-0.81
'0:13.465',-0.57
'0:13.469',-0.4
'0:13.473',-0.41
'0:13.477',-0.39
'0:13.480',-0.19
'0:13.484',-0.15
'0:13.488',-0.3
'0:13.492',-0.72
'0:13.496',-1.17
'0:13.500',-1.53
'0:13.504',-1.88
'0:13.508',-2.04
'0:13.512',-2.35
'0:13.516',-2.43
'0:13.520',-2.58
'0:13.523',-2.58
'0:13.527',-2.58
'0:13.531',-2.58
'0:13.535',-2.58
'0:13.539',-2.82
'0:13.543',-2.67
'0:13.547',-2.53
'0:13.551',1.1
'0:13.555',5.93
'0:13.559',12.16
'0:13.563',18.15
'0:13.566',22.55
'0:13.570',25.06
'0:13.574',23.73
'0:13.578',16.94
'0:13.582',7.31
'0:13.586',-0.71
'0:13.590',-5.43
'0:13.594',-7.6
'0:13.598',-8.48
'0:13.602',-8.5
'0:13.605',-8.25
'0:13.609',-7.88
'0:13.613',-7.45
'0:13.617',-6.97
'0:13.621',-6.4
'0:13.625',-6.08
'0:13.629',-5.74
'0:13.633',-5.43
'0:13.637',-5.04
'0:13.641',-4.56
'0:13.645',-3.97
'0:13.648',-3.46
'0:13.652',-3.04
'0:13.656',-2.46
'0:13.660',-1.85
'0:13.664',-1.27
'0:13.668',-0.6
'0:13.672',-0.14
'0:13.676',0.39
'0:13.680',1.08
'0:13.684',1.79
'0:13.688',2.51
'0:13.691',3.1
'0:13.695',3.48
'0:13.699',3.65
'0:13.703',3.65
'0:13.707',3.23
'0:13.711',2.8
'0:13.715',2.33
'0:13.719',1.46
'0:13.723',0.74
'0:13.727',0.09
'0:13.730',-0.69
'0:13.734',-1.26
'0:13.738',-1.7
'0:13.742',-1.92
'0:13.746',-1.79
'0:13.750',-1.82
'0:13.754',-1.81
'0:13.758',-1.68
'0:13.762',-1.33
'0:13.766',-0.94
'0:13.770',-0.69
'0:13.773',-0.6
'0:13.777',-0.69
'0:13.781',-0.49
'0:13.785',-0.43
'0:13.789',-0.51
'0:13.793',-0.62
'0:13.797',-0.68
'0:13.801',-0.79
'0:13.805',-0.94
'0:13.809',-1.22
'0:13.813',-1.66
'0:13.816',-2
'0:13.820',-2.25
'0:13.824',-2.5
'0:13.828',-2.53
'0:13.832',-2.47
'0:13.836',-2.32
'0:13.840',-2.17
'0:13.844',-2.03
'0:13.848',-1.92
'0:13.852',-2.11
'0:13.855',-2.21
'0:13.859',-2.15
'0:13.863',-1.85
'0:13.867',-0.68
'0:13.871',2.16
'0:13.875',7.1
'0:13.879',13.06
'0:13.883',18.39
'0:13.887',22.24
'0:13.891',24.09
'0:13.895',21.91
'0:13.898',14.74
'0:13.902',5.74
'0:13.906',-1.44
'0:13.910',-5.74
'0:13.914',-7.62
'0:13.918',-8.05
'0:13.922',-8.16
'0:13.926',-8.12
'0:13.930',-7.97
'0:13.934',-7.74
'0:13.938',-7.4
'0:13.941',-6.87
'0:13.945',-6.26
'0:13.949',-5.89
'0:13.953',-5.47
'0:13.957',-4.99
'0:13.961',-4.65
'0:13.965',-4.26
'0:13.969',-3.8
'0:13.973',-3.18
'0:13.977',-2.49
'0:13.980',-1.99
'0:13.984',-1.56
'0:13.988',-1.23
'0:13.992',-0.76
'0:13.996',0.05
'0:14.000',1.06
'0:14.004',2.14
'0:14.008',2.95
'0:14.012',3.6
'0:14.016',3.95
'0:14.020',3.77
'0:14.023',3.36
'0:14.027',3.09
'0:14.031',2.78
'0:14.035',2.26
'0:14.039',1.58
'0:14.043',0.82
'0:14.047',0.16
'0:14.051',-0.42
'0:14.055',-0.89
'0:14.059',-1.38
'0:14.063',-1.72
'0:14.066',-1.81
'0:14.070',-1.7
'0:14.074',-1.28
'0:14.078',-1.12
'0:14.082',-0.52
'0:14.086',-0.27
'0:14.090',-0.21
'0:14.094',-0.26
'0:14.098',-0.4
'0:14.102',-0.55
'0:14.105',-0.61
'0:14.109',-0.68
'0:14.113',-0.59
'0:14.117',-0.31
'0:14.121',-0.37
'0:14.125',-0.68
'0:14.129',-1.05
'0:14.133',-1.46
'0:14.137',-1.93
'0:14.141',-2.23
'0:14.145',-2.43
'0:14.148',-2.48
'0:14.152',-2.52
'0:14.156',-2.67
'0:14.160',-2.89
'0:14.164',-3.13
'0:14.168',-3.16
'0:14.172',-3.07
'0:14.176',-3
'0:14.180',-2.63
'0:14.184',-1.3
'0:14.188',1.88
'0:14.191',7.03
'0:14.195',12.96
'0:14.199',18.13
'0:14.203',21.93
'0:14.207',23.67
'0:14.211',20.6
'0:14.215',12.14
'0:14.219',2.86
'0:14.223',-3.54
'0:14.227',-6.94
'0:14.230',-8.38
'0:14.234',-8.58
'0:14.238',-8.32
'0:14.242',-8.02
'0:14.246',-8.01
'0:14.250',-8.01
'0:14.254',-8.02
'0:14.258',-8.01
'0:14.262',-5.44
'0:14.266',-5.01
'0:14.270',-4.76
'0:14.273',-4.5
'0:14.277',-3.91
'0:14.281',-3.12
'0:14.285',-2.56
'0:14.289',-2.16
'0:14.293',-1.67
'0:14.297',-1.37
'0:14.301',-1.12
'0:14.305',-0.63
'0:14.309',-0.22
'0:14.313',0.63
'0:14.316',1.91
'0:14.320',2.75
'0:14.324',3.05
'0:14.328',3.1
'0:14.332',3.27
'0:14.336',3.49
'0:14.340',3.43
'0:14.344',3.19
'0:14.348',2.74
'0:14.352',2.15
'0:14.355',1.52
'0:14.359',0.91
'0:14.363',0.41
'0:14.367',-0.14
'0:14.371',-0.56
'0:14.375',-0.73
'0:14.379',-0.61
'0:14.383',-0.43
'0:14.387',-0.38
'0:14.391',-0.3
'0:14.395',0.22
'0:14.398',0.66
'0:14.402',0.55
'0:14.406',0.16
'0:14.410',-0.27
'0:14.414',-0.42
'0:14.418',-0.39
'0:14.422',-0.19
'0:14.426',0
'0:14.430',0.05
'0:14.434',-0.06
'0:14.438',-0.31
'0:14.441',-0.61
'0:14.445',-1.01
'0:14.449',-1.56
'0:14.453',-1.78
'0:14.457',-1.73
'0:14.461',-1.86
'0:14.465',-2.19
'0:14.469',-2.36
'0:14.473',-2.43
'0:14.477',-2.39
'0:14.480',-2.24
'0:14.484',-2.37
'0:14.488',-2.75
'0:14.492',-2.98
'0:14.496',-2.56
'0:14.500',-2.55
'0:14.504',-2.56
'0:14.508',8.98
'0:14.512',14.65
'0:14.516',19.38
'0:14.520',22.52
'0:14.523',23.93
'0:14.527',20.86
'0:14.531',12.51
'0:14.535',3.14
'0:14.539',-3.18
'0:14.543',-6.04
'0:14.547',-7.06
'0:14.551',-7.53
'0:14.555',-7.74
'0:14.559',-7.38
'0:14.563',-6.73
'0:14.566',-6.7
'0:14.570',-7.14
'0:14.574',-7.23
'0:14.578',-6.64
'0:14.582',-5.78
'0:14.586',-5.11
'0:14.590',-4.6
'0:14.594',-4.1
'0:14.598',-3.31
'0:14.602',-2.61
'0:14.605',-2.09
'0:14.609',-1.81
'0:14.613',-1.41
'0:14.617',-0.83
'0:14.621',-0.27
'0:14.625',0.38
'0:14.629',1.07
'0:14.633',1.85
'0:14.637',2.52
'0:14.641',3.1
'0:14.645',3.28
'0:14.648',3.31
'0:14.652',3.37
'0:14.656',3.39
'0:14.660',3.46
'0:14.664',3.37
'0:14.668',2.95
'0:14.672',1.98
'0:14.676',0.88
'0:14.680',0.07
'0:14.684',-0.65
'0:14.688',-1.23
'0:14.691',-1.61
'0:14.695',-1.63
'0:14.699',-1.37
'0:14.703',-1.31
'0:14.707',-1.22
'0:14.711',-1.06
'0:14.715',-0.77
'0:14.719',-0.74
'0:14.723',-0.99
'0:14.727',-1.16
'0:14.730',-0.97
'0:14.734',-0.57
'0:14.738',-0.3
'0:14.742',-0.33
'0:14.746',-0.6
'0:14.750',-0.75
'0:14.754',-0.85
'0:14.758',-1.07
'0:14.762',-1.39
'0:14.766',-1.72
'0:14.770',-2.01
'0:14.773',-2.21
'0:14.777',-2.42
'0:14.781',-2.51
'0:14.785',-2.43
'0:14.789',-2.36
'0:14.793',-2.36
'0:14.797',-2.37
'0:14.801',-2.9
'0:14.805',-3.14
'0:14.809',-2.99
'0:14.813',-2.51
'0:14.816',-1.35
'0:14.820',1.65
'0:14.824',6.81
'0:14.828',13.1
'0:14.832',18.65
'0:14.836',22.72
'0:14.840',24.44
'0:14.844',21.66
'0:14.848',14.04
'0:14.852',5.06
'0:14.855',-1.67
'0:14.859',-5.52
'0:14.863',-7.32
'0:14.867',-8
'0:14.871',-8.09
'0:14.875',-8.01
'0:14.879',-7.78
'0:14.883',-7.44
'0:14.887',-6.99
'0:14.891',-6.39
'0:14.895',-5.73
'0:14.898',-5.11
'0:14.902',-4.41
'0:14.906',-3.92
'0:14.910',-3.46
'0:14.914',-3.04
'0:14.918',-2.6
'0:14.922',-2.26
'0:14.926',-1.73
'0:14.930',-1.12
'0:14.934',-0.56
'0:14.938',0.13
'0:14.941',0.84
'0:14.945',1.57
'0:14.949',2.31
'0:14.953',2.97
'0:14.957',3.76
'0:14.961',4.12
'0:14.965',3.77
'0:14.969',3.72
'0:14.973',3.84
'0:14.977',3.31
'0:14.980',2.53
'0:14.984',2.07
'0:14.988',1.71
'0:14.992',1.23
'0:14.996',0.75
'0:15.000',0.26
'0:15.004',-0.31
'0:15.008',-0.79
'0:15.012',-0.98
'0:15.016',-1.12
'0:15.020',-1.12
'0:15.023',-1.07
'0:15.027',-0.85
'0:15.031',-0.74
'0:15.035',-0.49
'0:15.039',-0.22
'0:15.043',-0.01
'0:15.047',0.19
'0:15.051',0.25
'0:15.055',0.05
'0:15.059',-0.2
'0:15.063',-0.27
'0:15.066',-0.13
'0:15.070',-0.02
'0:15.074',0
'0:15.078',-0.15
'0:15.082',-0.54
'0:15.086',-0.9
'0:15.090',-1.34
'0:15.094',-2
'0:15.098',-2.7
'0:15.102',-3.06
'0:15.105',-2.89
'0:15.109',-2.69
'0:15.113',-2.61
'0:15.117',-2.49
'0:15.121',-2.44
'0:15.125',-2.43
'0:15.129',-2.44
'0:15.133',-2.08
'0:15.137',-1.12
'0:15.141',1.4
'0:15.145',6.08
'0:15.148',12.05
'0:15.152',17.67
'0:15.156',21.84
'0:15.160',24.45
'0:15.164',23.36
'0:15.168',16.16
'0:15.172',5.86
'0:15.176',-2.11
'0:15.180',-6.36
'0:15.184',-8.08
'0:15.188',-8.5
'0:15.191',-8.27
'0:15.195',-7.91
'0:15.199',-7.36
'0:15.203',-6.73
'0:15.207',-6.39
'0:15.211',-6.17
'0:15.215',-5.84
'0:15.219',-5.38
'0:15.223',-4.68
'0:15.227',-3.8
'0:15.230',-3.16
'0:15.234',-2.75
'0:15.238',-2.34
'0:15.242',-1.64
'0:15.246',-1.27
'0:15.250',-1.17
'0:15.254',-0.94
'0:15.258',-0.4
'0:15.262',0.16
'0:15.266',0.64
'0:15.270',1.35
'0:15.273',2.24
'0:15.277',3.2
'0:15.281',3.97
'0:15.285',4.37
'0:15.289',4.53
'0:15.293',4.44
'0:15.297',4.09
'0:15.301',3.65
'0:15.305',3.18
'0:15.309',2.52
'0:15.313',1.71
'0:15.316',0.92
'0:15.320',0.25
'0:15.324',-0.33
'0:15.328',-0.81
'0:15.332',-1.16
'0:15.336',-1.36
'0:15.340',-1.34
'0:15.344',-1.21
'0:15.348',-1.1
'0:15.352',-0.96
'0:15.355',-0.9
'0:15.359',-0.87
'0:15.363',-0.72
'0:15.367',-0.7
'0:15.371',-0.7
'0:15.375',-0.62
'0:15.379',-0.49
'0:15.383',-0.55
'0:15.387',-0.65
'0:15.391',-0.86
'0:15.395',-1.28
'0:15.398',-1.61
'0:15.402',-2.06
'0:15.406',-2.48
'0:15.410',-2.9
'0:15.414',-3.22
'0:15.418',-3.42
'0:15.422',-3.55
'0:15.426',-3.54
'0:15.430',-3.43
'0:15.434',-3.34
'0:15.438',-3.21
'0:15.441',-3.19
'0:15.445',-3.27
'0:15.449',-3.16
'0:15.453',-2.48
'0:15.457',-0.69
'0:15.461',3.15
'0:15.465',8.52
'0:15.469',11.6
'0:15.473',17.93
'0:15.477',21.25
'0:15.480',21.5
'0:15.484',16.25
'0:15.488',7.15
'0:15.492',-0.95
'0:15.496',-5.96
'0:15.500',-8.19
'0:15.504',-8.78
'0:15.508',-8.76
'0:15.512',-8.32
'0:15.516',-7.79
'0:15.520',-7.38
'0:15.523',-6.89
'0:15.527',-6.52
'0:15.531',-6.2
'0:15.535',-5.66
'0:15.539',-5
'0:15.543',-4.53
'0:15.547',-4.18
'0:15.551',-3.64
'0:15.555',-3.12
'0:15.559',-2.55
'0:15.563',-2.05
'0:15.566',-1.49
'0:15.570',-1.03
'0:15.574',-0.59
'0:15.578',-0.12
'0:15.582',0.41
'0:15.586',0.81
'0:15.590',2.28
'0:15.594',3.03
'0:15.598',3.49
'0:15.602',3.84
'0:15.605',3.97
'0:15.609',3.8
'0:15.613',3.59
'0:15.617',3.31
'0:15.621',2.75
'0:15.625',1.95
'0:15.629',1.19
'0:15.633',0.39
'0:15.637',-0.29
'0:15.641',-0.8
'0:15.645',-1.07
'0:15.648',-1.28
'0:15.652',-1.8
'0:15.656',-5.34
'0:15.660',-10.77
'0:15.664',-12.88
'0:15.668',-16.24
'0:15.672',-18.97
'0:15.676',-20.48
'0:15.680',-21.15
'0:15.684',-21.31
'0:15.688',-20.99
'0:15.691',-20.3
'0:15.695',-19.57
'0:15.699',-18.86
'0:15.703',-18.21
'0:15.707',-17.53
'0:15.711',-16.9
'0:15.715',-16.76
'0:15.719',-16.56
'0:15.723',-16.22
'0:15.727',-15.76
'0:15.730',-15.31
'0:15.734',-15.21
'0:15.738',-14.95
'0:15.742',-14.4
'0:15.746',-13.75
'0:15.750',-12.86
'0:15.754',-12.03
'0:15.758',-11.36
'0:15.762',-10.75
'0:15.766',-10.63
'0:15.770',-10.11
'0:15.773',-8.87
'0:15.777',-6.55
'0:15.781',-2.39
'0:15.785',3.92
'0:15.789',10.99
'0:15.793',16.59
'0:15.797',20.33
'0:15.801',21.17
'0:15.805',16.8
'0:15.809',7.9
'0:15.813',-0.81
'0:15.816',-6.35
'0:15.820',-9.13
'0:15.824',-10.27
'0:15.828',-10.43
'0:15.832',-10.22
'0:15.836',-9.61
'0:15.840',-8.8
'0:15.844',-8.2
'0:15.848',-7.35
'0:15.852',-6.32
'0:15.855',-5.69
'0:15.859',-5.35
'0:15.863',-4.58
'0:15.867',-3.43
'0:15.871',-2.59
'0:15.875',-1.79
'0:15.879',-0.86
'0:15.883',-0.63
'0:15.887',-0.52
'0:15.891',0.14
'0:15.895',1.21
'0:15.898',2.44
'0:15.902',3.35
'0:15.906',4
'0:15.910',4.8
'0:15.914',5.76
'0:15.918',6.62
'0:15.922',7.1
'0:15.926',7.54
'0:15.930',8.06
'0:15.934',8.2
'0:15.938',7.82
'0:15.941',7.41
'0:15.945',7
'0:15.949',6.32
'0:15.953',5.47
'0:15.957',4.81
'0:15.961',3.99
'0:15.965',3.4
'0:15.969',3.44
'0:15.973',3.42
'0:15.977',3.32
'0:15.980',3.11
'0:15.984',3.07
'0:15.988',3.49
'0:15.992',3.96
'0:15.996',4.16
'0:16.000',4.31
'0:16.004',4.34
'0:16.008',4.2
'0:16.012',4.08
'0:16.016',4.12
'0:16.020',4.1
'0:16.023',4.19
'0:16.027',4.28
'0:16.031',4.35
'0:16.035',4.19
'0:16.039',3.57
'0:16.043',3.05
'0:16.047',2.77
'0:16.051',2.5
'0:16.055',2.13
'0:16.059',1.81
'0:16.063',1.7
'0:16.066',1.9
'0:16.070',1.94
'0:16.074',1.68
'0:16.078',1.5
'0:16.082',1.35
'0:16.086',1.09
'0:16.090',0.99
'0:16.094',1.43
'0:16.098',2.64
'0:16.102',5.1
'0:16.105',9.71
'0:16.109',15.83
'0:16.113',21.84
'0:16.117',26.23
'0:16.121',28.69
'0:16.125',27.48
'0:16.129',20.74
'0:16.133',10.78
'0:16.137',2.58
'0:16.141',-2.3
'0:16.145',-4.87
'0:16.148',-5.76
'0:16.152',-5.9
'0:16.156',-5.64
'0:16.160',-5.19
'0:16.164',-4.54
'0:16.168',-3.94
'0:16.172',-3.49
'0:16.176',-3
'0:16.180',-2.44
'0:16.184',-1.71
'0:16.188',-1.14
'0:16.191',-0.72
'0:16.195',-0.6
'0:16.199',-0.44
'0:16.203',-0.07
'0:16.207',0.47
'0:16.211',0.82
'0:16.215',1.03
'0:16.219',1.46
'0:16.223',2.05
'0:16.227',2.59
'0:16.230',3.17
'0:16.234',3.58
'0:16.238',3.98
'0:16.242',4.7
'0:16.246',5.35
'0:16.250',5.66
'0:16.254',5.68
'0:16.258',5.47
'0:16.262',5.11
'0:16.266',4.78
'0:16.270',4.4
'0:16.273',3.79
'0:16.277',3
'0:16.281',2.34
'0:16.285',1.86
'0:16.289',1.14
'0:16.293',0.49
'0:16.297',0.07
'0:16.301',-0.09
'0:16.305',-0.06
'0:16.309',0.05
'0:16.313',0.31
'0:16.316',0.7
'0:16.320',1.06
'0:16.324',1.32
'0:16.328',0.7
'0:16.332',0.64
'0:16.336',0.94
'0:16.340',1.25
'0:16.344',1.06
'0:16.348',0.63
'0:16.352',0.37
'0:16.355',-0.07
'0:16.359',-0.63
'0:16.363',-1.18
'0:16.367',-1.54
'0:16.371',-1.88
'0:16.375',-2.25
'0:16.379',-2.31
'0:16.383',-2.2
'0:16.387',-2.21
'0:16.391',-2.26
'0:16.395',-2.29
'0:16.398',-2.35
'0:16.402',-2.39
'0:16.406',-2.16
'0:16.410',-1.51
'0:16.414',-0.18
'0:16.418',2.88
'0:16.422',7.99
'0:16.426',13.82
'0:16.430',18.53
'0:16.434',21.71
'0:16.438',22.49
'0:16.441',18.08
'0:16.445',9.1
'0:16.449',0.55
'0:16.453',-4.63
'0:16.457',-6.91
'0:16.461',-7.6
'0:16.465',-7.49
'0:16.469',-7.01
'0:16.473',-6.5
'0:16.477',-5.99
'0:16.480',-5.46
'0:16.484',-5.03
'0:16.488',-4.59
'0:16.492',-4.06
'0:16.496',-3.52
'0:16.500',-3.18
'0:16.504',-2.83
'0:16.508',-2.47
'0:16.512',-2.01
'0:16.516',-1.53
'0:16.520',-0.9
'0:16.523',-0.31
'0:16.527',0.14
'0:16.531',0.55
'0:16.535',1
'0:16.539',1.64
'0:16.543',2.34
'0:16.547',3.07
'0:16.551',3.78
'0:16.555',4.44
'0:16.559',5.12
'0:16.563',5.44
'0:16.566',4.87
'0:16.570',4.47
'0:16.574',4.26
'0:16.578',3.64
'0:16.582',2.83
'0:16.586',2.48
'0:16.590',1.74
'0:16.594',0.89
'0:16.598',0.45
'0:16.602',-0.1
'0:16.605',-0.75
'0:16.609',-0.9
'0:16.613',-0.59
'0:16.617',-0.23
'0:16.621',0.12
'0:16.625',0.32
'0:16.629',0.45
'0:16.633',0.54
'0:16.637',0.56
'0:16.641',1.14
'0:16.645',1.09
'0:16.648',0.84
'0:16.652',0.72
'0:16.656',0.52
'0:16.660',0.44
'0:16.664',0.33
'0:16.668',-0.07
'0:16.672',-0.72
'0:16.676',-1.34
'0:16.680',-1.85
'0:16.684',-2.19
'0:16.688',-2.34
'0:16.691',-2.43
'0:16.695',-2.95
'0:16.699',-3.37
'0:16.703',-3.6
'0:16.707',-3.49
'0:16.711',-3.32
'0:16.715',-3.19
'0:16.719',-3.21
'0:16.723',-3.07
'0:16.727',-2.49
'0:16.730',-1.32
'0:16.734',1.12
'0:16.738',5.35
'0:16.742',11.14
'0:16.746',17.32
'0:16.750',21.93
'0:16.754',24.56
'0:16.758',24.09
'0:16.762',18.54
'0:16.766',9.38
'0:16.770',1.01
'0:16.773',-4.29
'0:16.777',-7.24
'0:16.781',-8.57
'0:16.785',-8.52
'0:16.789',-8.14
'0:16.793',-8.2
'0:16.797',-8.12
'0:16.801',-7.75
'0:16.805',-7.51
'0:16.809',-6.95
'0:16.813',-6.1
'0:16.816',-5.29
'0:16.820',-5
'0:16.824',-4.67
'0:16.828',-3.95
'0:16.832',-3.4
'0:16.836',-2.83
'0:16.840',-2.01
'0:16.844',-1.55
'0:16.848',-1.13
'0:16.852',-0.65
'0:16.855',-0.09
'0:16.859',0.57
'0:16.863',1.24
'0:16.867',2.07
'0:16.871',2.82
'0:16.875',3.6
'0:16.879',4.16
'0:16.883',4.19
'0:16.887',4.15
'0:16.891',3.98
'0:16.895',3.62
'0:16.898',3.19
'0:16.902',2.66
'0:16.906',2.06
'0:16.910',1.41
'0:16.914',0.64
'0:16.918',-0.12
'0:16.922',-0.69
'0:16.926',-1
'0:16.930',-1.15
'0:16.934',-1.06
'0:16.938',-0.98
'0:16.941',-0.9
'0:16.945',-0.85
'0:16.949',-0.55
'0:16.953',-0.09
'0:16.957',-0.04
'0:16.961',0.03
'0:16.965',0.1
'0:16.969',0.05
'0:16.973',0.35
'0:16.977',0.89
'0:16.980',0.63
'0:16.984',-0.13
'0:16.988',-0.18
'0:16.992',0.22
'0:16.996',-0.1
'0:17.000',-0.75
'0:17.004',-1.27
'0:17.008',-1.69
'0:17.012',-1.88
'0:17.016',-2.18
'0:17.020',-2.32
'0:17.023',-2.15
'0:17.027',-2.06
'0:17.031',-2.16
'0:17.035',-2.29
'0:17.039',-2.13
'0:17.043',-1.91
'0:17.047',-1.96
'0:17.051',-2.33
'0:17.055',-2.19
'0:17.059',-0.94
'0:17.063',2.01
'0:17.066',7.16
'0:17.070',13.66
'0:17.074',19.54
'0:17.078',23.8
'0:17.082',26.22
'0:17.086',24.01
'0:17.090',15.81
'0:17.094',5.53
'0:17.098',-2.22
'0:17.102',-6.47
'0:17.105',-8.27
'0:17.109',-8.76
'0:17.113',-8.7
'0:17.117',-8.46
'0:17.121',-8.14
'0:17.125',-7.71
'0:17.129',-7.27
'0:17.133',-7.17
'0:17.137',-6.67
'0:17.141',-5.98
'0:17.145',-5.84
'0:17.148',-5.78
'0:17.152',-5.37
'0:17.156',-4.71
'0:17.160',-3.92
'0:17.164',-3.47
'0:17.168',-3.09
'0:17.172',-2.59
'0:17.176',-1.88
'0:17.180',-1.09
'0:17.184',-0.28
'0:17.188',0.39
'0:17.191',1.19
'0:17.195',1.76
'0:17.199',2.38
'0:17.203',3.13
'0:17.207',3.57
'0:17.211',3.87
'0:17.215',3.58
'0:17.219',2.98
'0:17.223',2.95
'0:17.227',2.15
'0:17.230',1.05
'0:17.234',-0.12
'0:17.238',-0.95
'0:17.242',-1.41
'0:17.246',-1.64
'0:17.250',-1.78
'0:17.254',-1.99
'0:17.258',-2.33
'0:17.262',-2.41
'0:17.266',-2.37
'0:17.270',-2.13
'0:17.273',-1.74
'0:17.277',-1.42
'0:17.281',-1.22
'0:17.285',-1.01
'0:17.289',-0.54
'0:17.293',-0.13
'0:17.297',-0.04
'0:17.301',-0.43
'0:17.305',-1.12
'0:17.309',-1.4
'0:17.313',-1.63
'0:17.316',-1.54
'0:17.320',-1.46
'0:17.324',-1.62
'0:17.328',-2.09
'0:17.332',-2.79
'0:17.336',-3.46
'0:17.340',-3.77
'0:17.344',-3.8
'0:17.348',-3.71
'0:17.352',-3.29
'0:17.355',-2.93
'0:17.359',-2.75
'0:17.363',-2.8
'0:17.367',-2.99
'0:17.371',-2.84
'0:17.375',-2.34
'0:17.379',-1.27
'0:17.383',1.37
'0:17.387',6.13
'0:17.391',11.94
'0:17.395',16.92
'0:17.398',20.03
'0:17.402',20.8
'0:17.406',17.2
'0:17.410',9.3
'0:17.414',1.17
'0:17.418',-4.48
'0:17.422',-5.14
'0:17.426',-8.6
'0:17.430',-8.51
'0:17.434',-7.89
'0:17.438',-7.17
'0:17.441',-6.5
'0:17.445',-5.89
'0:17.449',-5.26
'0:17.453',-4.68
'0:17.457',-4.06
'0:17.461',-3.38
'0:17.465',-2.91
'0:17.469',-2.6
'0:17.473',-2.18
'0:17.477',-1.53
'0:17.480',-0.99
'0:17.484',-0.6
'0:17.488',-0.14
'0:17.492',0.35
'0:17.496',0.93
'0:17.500',1.48
'0:17.504',1.7
'0:17.508',2.06
'0:17.512',2.66
'0:17.516',3.46
'0:17.520',4.21
'0:17.523',4.91
'0:17.527',5.05
'0:17.531',4.87
'0:17.535',4.78
'0:17.539',4.69
'0:17.543',4.4
'0:17.547',3.92
'0:17.551',3.32
'0:17.555',2.59
'0:17.559',1.9
'0:17.563',1.22
'0:17.566',0.77
'0:17.570',0.63
'0:17.574',0.5
'0:17.578',0.48
'0:17.582',0.84
'0:17.586',1.06
'0:17.590',1.14
'0:17.594',1.21
'0:17.598',1.08
'0:17.602',1.03
'0:17.605',0.86
'0:17.609',0.87
'0:17.613',0.99
'0:17.617',1.01
'0:17.621',0.95
'0:17.625',0.83
'0:17.629',0.62
'0:17.633',0.31
'0:17.637',0.06
'0:17.641',-0.13
'0:17.645',-0.45
'0:17.648',-0.66
'0:17.652',-1.25
'0:17.656',-1.99
'0:17.660',-2.49
'0:17.664',-2.67
'0:17.668',-2.99
'0:17.672',-3.02
'0:17.676',-3.27
'0:17.680',-3.75
'0:17.684',-3.99
'0:17.688',-3.85
'0:17.691',-3.61
'0:17.695',-3.28
'0:17.699',-2.91
'0:17.703',-1.33
'0:17.707',2.68
'0:17.711',8.53
'0:17.715',14.68
'0:17.719',19.34
'0:17.723',22.52
'0:17.727',22.15
'0:17.730',16.57
'0:17.734',7.11
'0:17.738',-1.27
'0:17.742',-6.06
'0:17.746',-8.12
'0:17.750',-9.01
'0:17.754',-9.23
'0:17.758',-9.02
'0:17.762',-8.67
'0:17.766',-8.04
'0:17.770',-7.28
'0:17.773',-6.76
'0:17.777',-6.37
'0:17.781',-6.04
'0:17.785',-5.74
'0:17.789',-5.16
'0:17.793',-4.46
'0:17.797',-3.8
'0:17.801',-3.1
'0:17.805',-2.47
'0:17.809',-2.21
'0:17.813',-2.05
'0:17.816',-1.69
'0:17.820',-1.24
'0:17.824',-0.25
'0:17.828',0.28
'0:17.832',0.99
'0:17.836',1.82
'0:17.840',2.6
'0:17.844',3.14
'0:17.848',3.2
'0:17.852',2.95
'0:17.855',2.62
'0:17.859',2.22
'0:17.863',2.08
'0:17.867',1.94
'0:17.871',1
'0:17.875',0.25
'0:17.879',-0.41
'0:17.883',-0.83
'0:17.887',-1.2
'0:17.891',-1.44
'0:17.895',-1.44
'0:17.898',-1.48
'0:17.902',-1.76
'0:17.906',-2.11
'0:17.910',-2.16
'0:17.914',-2.05
'0:17.918',-1.84
'0:17.922',-1.47
'0:17.926',-1.04
'0:17.930',-0.83
'0:17.934',-0.64
'0:17.938',-0.42
'0:17.941',-0.38
'0:17.945',-0.67
'0:17.949',-0.85
'0:17.953',-0.81
'0:17.957',-0.54
'0:17.961',-0.31
'0:17.965',-0.4
'0:17.969',-0.62
'0:17.973',-0.87
'0:17.977',-1.02
'0:17.980',-1.14
'0:17.984',-1.41
'0:17.988',-1.48
'0:17.992',-1.94
'0:17.996',-2.05
'0:18.000',-1.9
'0:18.004',-1.92
'0:18.008',-1.97
'0:18.012',-1.95
'0:18.016',-2.11
'0:18.020',-2.32
'0:18.023',-2.34
'0:18.027',-2.44
'0:18.031',-1.8
'0:18.035',-1.05
'0:18.039',0.53
'0:18.043',4.39
'0:18.047',4.63
'0:18.051',4.63
'0:18.055',21.69
'0:18.059',25.13
'0:18.063',25.79
'0:18.066',21.32
'0:18.070',12.11
'0:18.074',2.68
'0:18.078',-3.74
'0:18.082',-7.05
'0:18.086',-8.17
'0:18.090',-8.41
'0:18.094',-8.4
'0:18.098',-8.24
'0:18.102',-8.1
'0:18.105',-7.81
'0:18.109',-7.53
'0:18.113',-7.25
'0:18.117',-6.68
'0:18.121',-5.9
'0:18.125',-5.09
'0:18.129',-4.41
'0:18.133',-3.93
'0:18.137',-3.35
'0:18.141',-2.67
'0:18.145',-2.15
'0:18.148',-1.82
'0:18.152',-1.22
'0:18.156',-0.67
'0:18.160',-0.23
'0:18.164',0.33
'0:18.168',0.9
'0:18.172',1.6
'0:18.176',2.52
'0:18.180',3.45
'0:18.184',4.1
'0:18.188',4.24
'0:18.191',4.25
'0:18.195',3.98
'0:18.199',3.6
'0:18.203',3.11
'0:18.207',2.55
'0:18.211',1.74
'0:18.215',0.79
'0:18.219',-0.18
'0:18.223',-0.81
'0:18.227',-1.11
'0:18.230',-1.62
'0:18.234',-2.17
'0:18.238',-2.21
'0:18.242',-2.21
'0:18.246',-2.22
'0:18.250',-1.95
'0:18.254',-1.64
'0:18.258',-1.37
'0:18.262',-1
'0:18.266',-0.62
'0:18.270',-0.37
'0:18.273',-0.22
'0:18.277',-0.28
'0:18.281',-0.43
'0:18.285',-0.56
'0:18.289',-0.65
'0:18.293',-0.61
'0:18.297',-0.51
'0:18.301',-0.74
'0:18.305',-1.31
'0:18.309',-1.78
'0:18.313',-2.06
'0:18.316',-2.71
'0:18.320',-3.22
'0:18.324',-3.48
'0:18.328',-3.72
'0:18.332',-3.77
'0:18.336',-3.73
'0:18.340',-3.33
'0:18.344',-2.95
'0:18.348',-3.35
'0:18.352',-3.58
'0:18.355',-3.18
'0:18.359',-2.22
'0:18.363',0.27
'0:18.367',4.84
'0:18.371',10.22
'0:18.375',14.84
'0:18.379',18.28
'0:18.383',20.07
'0:18.387',18.01
'0:18.391',10.8
'0:18.395',1.84
'0:18.398',-4.74
'0:18.402',-7.89
'0:18.406',-8.86
'0:18.410',-8.71
'0:18.414',-8.13
'0:18.418',-7.46
'0:18.422',-6.89
'0:18.426',-6.38
'0:18.430',-5.79
'0:18.434',-5.25
'0:18.438',-4.72
'0:18.441',-4.06
'0:18.445',-3.4
'0:18.449',-2.8
'0:18.453',-2.26
'0:18.457',-1.98
'0:18.461',-1.83
'0:18.465',-1.66
'0:18.469',-1.05
'0:18.473',-0.24
'0:18.477',-0.04
'0:18.480',-0.27
'0:18.484',-0.06
'0:18.488',0.56
'0:18.492',1.59
'0:18.496',2.79
'0:18.500',3.36
'0:18.504',3.6
'0:18.508',3.82
'0:18.512',3.95
'0:18.516',3.76
'0:18.520',3.43
'0:18.523',3.04
'0:18.527',2.72
'0:18.531',2.52
'0:18.535',2.19
'0:18.539',1.51
'0:18.543',0.99
'0:18.547',0.58
'0:18.551',0.37
'0:18.555',0.16
'0:18.559',0.1
'0:18.563',-0.03
'0:18.566',-0.29
'0:18.570',-0.11
'0:18.574',0.35
'0:18.578',0.42
'0:18.582',0.37
'0:18.586',0.37
'0:18.590',0.38
'0:18.594',0.68
'0:18.598',0.9
'0:18.602',0.98
'0:18.605',1.23
'0:18.609',1.39
'0:18.613',1.11
'0:18.617',0.56
'0:18.621',0.04
'0:18.625',-0.32
'0:18.629',-0.82
'0:18.633',-1.28
'0:18.637',-1.53
'0:18.641',-1.63
'0:18.645',-1.77
'0:18.648',-1.75
'0:18.652',-1.93
'0:18.656',-2.06
'0:18.660',-2.07
'0:18.664',-2.04
'0:18.668',-2.14
'0:18.672',-2.22
'0:18.676',-2.03
'0:18.680',-1.23
'0:18.684',0.7
'0:18.688',4.61
'0:18.691',10.08
'0:18.695',14.86
'0:18.699',19.42
'0:18.703',22.64
'0:18.707',22.93
'0:18.711',18.01
'0:18.715',9.41
'0:18.719',1.36
'0:18.723',-3.87
'0:18.727',-6.49
'0:18.730',-7.62
'0:18.734',-8.03
'0:18.738',-7.76
'0:18.742',-7.18
'0:18.746',-6.6
'0:18.750',-6.15
'0:18.754',-5.83
'0:18.758',-5.44
'0:18.762',-5.06
'0:18.766',-4.8
'0:18.770',-4.47
'0:18.773',-4.04
'0:18.777',-3.52
'0:18.781',-2.9
'0:18.785',-1.96
'0:18.789',-1.61
'0:18.793',-1.54
'0:18.797',-1.3
'0:18.801',-0.96
'0:18.805',-0.45
'0:18.809',0.38
'0:18.813',1.17
'0:18.816',1.88
'0:18.820',2.38
'0:18.824',2.72
'0:18.828',3.11
'0:18.832',3.16
'0:18.836',3.1
'0:18.840',3.01
'0:18.844',2.79
'0:18.848',2.47
'0:18.852',1.92
'0:18.855',1.29
'0:18.859',0.68
'0:18.863',-0.02
'0:18.867',-0.75
'0:18.871',-1.44
'0:18.875',-1.83
'0:18.879',-1.99
'0:18.883',-1.93
'0:18.887',-1.74
'0:18.891',-1.4
'0:18.895',-0.97
'0:18.898',-0.49
'0:18.902',-0.76
'0:18.906',-0.94
'0:18.910',-0.99
'0:18.914',-1.04
'0:18.918',-0.97
'0:18.922',-0.74
'0:18.926',-0.59
'0:18.930',-0.67
'0:18.934',-0.8
'0:18.938',-0.92
'0:18.941',-1.08
'0:18.945',-1.19
'0:18.949',-1.42
'0:18.953',-1.88
'0:18.957',-2.29
'0:18.961',-2.62
'0:18.965',-2.81
'0:18.969',-2.89
'0:18.973',-2.9
'0:18.977',-2.85
'0:18.980',-2.73
'0:18.984',-2.51
'0:18.988',-2.46
'0:18.992',-2.78
'0:18.996',-3.13
'0:19.000',-2.93
'0:19.004',-2.2
'0:19.008',-0.51
'0:19.012',2.94
'0:19.016',8.25
'0:19.020',14.34
'0:19.023',19.57
'0:19.027',23.6
'0:19.031',24.62
'0:19.035',20.22
'0:19.039',11.19
'0:19.043',2.13
'0:19.047',-4.01
'0:19.051',-7.44
'0:19.055',-9
'0:19.059',-9.38
'0:19.063',-9
'0:19.066',-8.54
'0:19.070',-8.22
'0:19.074',-7.87
'0:19.078',-7.58
'0:19.082',-7.31
'0:19.086',-7.06
'0:19.090',-5.77
'0:19.094',-5.06
'0:19.098',-4.6
'0:19.102',-4.23
'0:19.105',-3.77
'0:19.109',-3.09
'0:19.113',-2.28
'0:19.117',-1.95
'0:19.121',-1.69
'0:19.125',-1.09
'0:19.129',-0.34
'0:19.133',0.37
'0:19.137',1.05
'0:19.141',1.84
'0:19.145',2.55
'0:19.148',3.24
'0:19.152',3.74
'0:19.156',3.99
'0:19.160',3.96
'0:19.164',3.57
'0:19.168',3.04
'0:19.172',2.65
'0:19.176',2.15
'0:19.180',1.23
'0:19.184',0.12
'0:19.188',-0.55
'0:19.191',-1.12
'0:19.195',-1.55
'0:19.199',-2.01
'0:19.203',-2.3
'0:19.207',-2.43
'0:19.211',-2.32
'0:19.215',-2.19
'0:19.219',-2.07
'0:19.223',-1.79
'0:19.227',-1.58
'0:19.230',-1.56
'0:19.234',-1.74
'0:19.238',-1.71
'0:19.242',-1.54
'0:19.246',-1.33
'0:19.250',-1.16
'0:19.254',-0.98
'0:19.258',-0.78
'0:19.262',-0.89
'0:19.266',-1.41
'0:19.270',-1.89
'0:19.273',-2.25
'0:19.277',-2.62
'0:19.281',-2.92
'0:19.285',-3.23
'0:19.289',-3.55
'0:19.293',-3.59
'0:19.297',-4.03
'0:19.301',-4.09
'0:19.305',-4.06
'0:19.309',-3.81
'0:19.313',-3.42
'0:19.316',-3.52
'0:19.320',-4.02
'0:19.324',-4.05
'0:19.328',-3.38
'0:19.332',-1.57
'0:19.336',2.05
'0:19.340',7.48
'0:19.344',13.53
'0:19.348',18.12
'0:19.352',21.04
'0:19.355',21.22
'0:19.359',20.34
'0:19.363',4.72
'0:19.367',-1.07
'0:19.371',-5.62
'0:19.375',-8.87
'0:19.379',-8.91
'0:19.383',-8.91
'0:19.387',-8.91
'0:19.391',-8.92
'0:19.395',-8.91
'0:19.398',-7.12
'0:19.402',-6.68
'0:19.406',-6.25
'0:19.410',-5.7
'0:19.414',-5.06
'0:19.418',-4.43
'0:19.422',-3.87
'0:19.426',-3.37
'0:19.430',-2.8
'0:19.434',-2.25
'0:19.438',-1.77
'0:19.441',-1.3
'0:19.445',-0.85
'0:19.449',-0.4
'0:19.453',0.16
'0:19.457',0.85
'0:19.461',1.57
'0:19.465',2.27
'0:19.469',2.91
'0:19.473',3.41
'0:19.477',3.53
'0:19.480',3.63
'0:19.484',3.72
'0:19.488',3.73
'0:19.492',3.73
'0:19.496',3.73
'0:19.500',2.35
'0:19.504',1.76
'0:19.508',0.76
'0:19.512',-0.21
'0:19.516',-0.83
'0:19.520',-1.02
'0:19.523',-0.87
'0:19.527',-0.82
