'0:00.000',-3.08
'0:00.004',-7.4
'0:00.008',-7.4
'0:00.012',-13.64
'0:00.016',-13.75
'0:00.020',-12.41
'0:00.023',-10.09
'0:00.027',-7.27
'0:00.031',-4.55
'0:00.035',-2.64
'0:00.039',-1.34
'0:00.043',-0.29
'0:00.047',0.32
'0:00.051',0.6
'0:00.055',0.82
'0:00.059',1.01
'0:00.063',1.24
'0:00.066',1.59
'0:00.070',1.89
'0:00.074',2.05
'0:00.078',2.18
'0:00.082',2.32
'0:00.086',2.27
'0:00.090',2.47
'0:00.094',2.7
'0:00.098',2.82
'0:00.102',2.92
'0:00.105',3.02
'0:00.109',3.24
'0:00.113',3.73
'0:00.117',4.23
'0:00.121',4.74
'0:00.125',5.21
'0:00.129',5.77
'0:00.133',6.37
'0:00.137',7.02
'0:00.141',7.35
'0:00.145',7.24
'0:00.148',6.75
'0:00.152',6
'0:00.156',5.23
'0:00.160',4.37
'0:00.164',3.52
'0:00.168',2.69
'0:00.172',1.87
'0:00.176',1.16
'0:00.180',0.65
'0:00.184',0.35
'0:00.188',0.07
'0:00.191',-0.05
'0:00.195',0.03
'0:00.199',0.03
'0:00.203',0.09
'0:00.207',0.37
'0:00.211',0.56
'0:00.215',0.54
'0:00.219',0.22
'0:00.223',0.12
'0:00.227',0.2
'0:00.230',-0.04
'0:00.234',-0.33
'0:00.238',-0.89
'0:00.242',-1.66
'0:00.246',-2.14
'0:00.250',-2.32
'0:00.254',-2.58
'0:00.258',-2.66
'0:00.262',-2.62
'0:00.266',-3.2
'0:00.270',-3.3
'0:00.273',-3.03
'0:00.277',-3.04
'0:00.281',-3.16
'0:00.285',-3.47
'0:00.289',-3.63
'0:00.293',-3.31
'0:00.297',-1.91
'0:00.301',0.38
'0:00.305',2.6
'0:00.309',4.36
'0:00.313',5.55
'0:00.316',5.83
'0:00.320',3.11
'0:00.324',-2.59
'0:00.328',-7.96
'0:00.332',-11.71
'0:00.336',-13.4
'0:00.340',-13.54
'0:00.344',-12.54
'0:00.348',-9.79
'0:00.352',-7.46
'0:00.355',-5.42
'0:00.359',-3.61
'0:00.363',-1.96
'0:00.367',-0.52
'0:00.371',0.63
'0:00.375',1.59
'0:00.379',1.84
'0:00.383',2.22
'0:00.387',2.58
'0:00.391',2.54
'0:00.395',2.54
'0:00.398',2.34
'0:00.402',2.17
'0:00.406',2.15
'0:00.410',2.22
'0:00.414',2.27
'0:00.418',2.44
'0:00.422',2.73
'0:00.426',2.58
'0:00.430',2.46
'0:00.434',2.34
'0:00.438',2.53
'0:00.441',3.22
'0:00.445',4.1
'0:00.449',5.23
'0:00.453',5.74
'0:00.457',5.67
'0:00.461',5.74
'0:00.465',6.06
'0:00.469',6.13
'0:00.473',5.9
'0:00.477',5.32
'0:00.480',4.62
'0:00.484',4.12
'0:00.488',3.46
'0:00.492',2.77
'0:00.496',2.06
'0:00.500',1.38
'0:00.504',0.65
'0:00.508',0.16
'0:00.512',-0.37
'0:00.516',-0.81
'0:00.520',-0.92
'0:00.523',-0.95
'0:00.527',-0.95
'0:00.531',-0.92
'0:00.535',-0.86
'0:00.539',-0.84
'0:00.543',-0.91
'0:00.547',-0.72
'0:00.551',-0.69
'0:00.555',-0.85
'0:00.559',-1.31
'0:00.563',-1.77
'0:00.566',-2.32
'0:00.570',-3.14
'0:00.574',-3.9
'0:00.578',-4.33
'0:00.582',-4.33
'0:00.586',-4.52
'0:00.590',-4.68
'0:00.594',-4.67
'0:00.598',-4.66
'0:00.602',-4.52
'0:00.605',-4.5
'0:00.609',-4.6
'0:00.613',-4.75
'0:00.617',-5.02
'0:00.621',-4.65
'0:00.625',-3.6
'0:00.629',-1.9
'0:00.633',0.55
'0:00.637',3.02
'0:00.641',5.03
'0:00.645',6.22
'0:00.648',4.46
'0:00.652',-0.82
'0:00.656',-6.51
'0:00.660',-10.73
'0:00.664',-13
'0:00.668',-13.63
'0:00.672',-12.6
'0:00.676',-10.14
'0:00.680',-7.19
'0:00.684',-4.57
'0:00.688',-2.55
'0:00.691',-1.13
'0:00.695',-0.14
'0:00.699',0.54
'0:00.703',0.99
'0:00.707',1.23
'0:00.711',1.38
'0:00.715',1.16
'0:00.719',0.93
'0:00.723',1.04
'0:00.727',1.37
'0:00.730',1.69
'0:00.734',1.95
'0:00.738',2.35
'0:00.742',2.89
'0:00.746',3.4
'0:00.750',3.48
'0:00.754',3
'0:00.758',2.57
'0:00.762',2.84
'0:00.766',3.57
'0:00.770',4.08
'0:00.773',4.24
'0:00.777',4.77
'0:00.781',5.49
'0:00.785',6.1
'0:00.789',6.55
'0:00.793',6.95
'0:00.797',7.23
'0:00.801',7.12
'0:00.805',6.37
'0:00.809',5.33
'0:00.813',4.61
'0:00.816',4.38
'0:00.820',3.99
'0:00.824',3.26
'0:00.828',2.58
'0:00.832',2.16
'0:00.836',1.79
'0:00.840',1.55
'0:00.844',1.47
'0:00.848',1.44
'0:00.852',1.3
'0:00.855',1.23
'0:00.859',0.92
'0:00.863',0.69
'0:00.867',0.65
'0:00.871',0.73
'0:00.875',0.8
'0:00.879',0.78
'0:00.883',0.65
'0:00.887',0.4
'0:00.891',-0.26
'0:00.895',-1.02
'0:00.898',-1.69
'0:00.902',-2.32
'0:00.906',-2.77
'0:00.910',-2.92
'0:00.914',-3.01
'0:00.918',-3.08
'0:00.922',-3.09
'0:00.926',-3.05
'0:00.930',-2.94
'0:00.934',-2.96
'0:00.938',-3.11
'0:00.941',-3.5
'0:00.945',-3.46
'0:00.949',-2.75
'0:00.953',-1.54
'0:00.957',0.16
'0:00.961',2.07
'0:00.965',3.76
'0:00.969',5.34
'0:00.973',5.82
'0:00.977',2.69
'0:00.980',-3.06
'0:00.984',-8.4
'0:00.988',-12.1
'0:00.992',-13.94
'0:00.996',-13.95
'0:01.000',-12.33
'0:01.004',-9.76
'0:01.008',-7.03
'0:01.012',-4.76
'0:01.016',-2.98
'0:01.020',-1.68
'0:01.023',-0.83
'0:01.027',-0.23
'0:01.031',0.32
'0:01.035',0.62
'0:01.039',0.58
'0:01.043',0.49
'0:01.047',0.51
'0:01.051',0.57
'0:01.055',0.82
'0:01.059',0.99
'0:01.063',1.27
'0:01.066',1.55
'0:01.070',1.62
'0:01.074',1.54
'0:01.078',1.54
'0:01.082',1.68
'0:01.086',1.93
'0:01.090',1.95
'0:01.094',2.01
'0:01.098',2.48
'0:01.102',3.33
'0:01.105',4.04
'0:01.109',4.74
'0:01.113',5.26
'0:01.117',5.76
'0:01.121',6.02
'0:01.125',6.39
'0:01.129',5.89
'0:01.133',4.94
'0:01.137',4.04
'0:01.141',3.23
'0:01.145',2.71
'0:01.148',2.13
'0:01.152',1.28
'0:01.156',0.57
'0:01.160',-0.09
'0:01.164',-0.3
'0:01.168',-0.58
'0:01.172',-0.91
'0:01.176',-1.04
'0:01.180',-0.94
'0:01.184',-0.55
'0:01.188',0
'0:01.191',-0.18
'0:01.195',-0.04
'0:01.199',0.22
'0:01.203',0.2
'0:01.207',0.38
'0:01.211',0.59
'0:01.215',0.58
'0:01.219',0.19
'0:01.223',-0.2
'0:01.227',-0.69
'0:01.230',-1.59
'0:01.234',-1.82
'0:01.238',-2.2
'0:01.242',-2.72
'0:01.246',-3.13
'0:01.250',-3.21
'0:01.254',-2.95
'0:01.258',-2.57
'0:01.262',-2.76
'0:01.266',-2.84
'0:01.270',-3.09
'0:01.273',-3.1
'0:01.277',-2.51
'0:01.281',-1.05
'0:01.285',1
'0:01.289',2.91
'0:01.293',4.19
'0:01.297',5.64
'0:01.301',6
'0:01.305',2.58
'0:01.309',-3.27
'0:01.313',-8.39
'0:01.316',-11.8
'0:01.320',-13.53
'0:01.324',-13.34
'0:01.328',-11.71
'0:01.332',-9.26
'0:01.336',-6.36
'0:01.340',-3.84
'0:01.344',-1.97
'0:01.348',-0.95
'0:01.352',-0.19
'0:01.355',0.7
'0:01.359',1.41
'0:01.363',1.83
'0:01.367',1.72
'0:01.371',1.49
'0:01.375',1.72
'0:01.379',2.2
'0:01.383',2.2
'0:01.387',1.82
'0:01.391',1.77
'0:01.395',2.03
'0:01.398',2.33
'0:01.402',2.49
'0:01.406',2.46
'0:01.410',2.66
'0:01.414',2.93
'0:01.418',3.36
'0:01.422',3.72
'0:01.426',3.92
'0:01.430',4.16
'0:01.434',4.46
'0:01.438',4.96
'0:01.441',5.45
'0:01.445',5.86
'0:01.449',5.95
'0:01.453',5.86
'0:01.457',5.89
'0:01.461',5.91
'0:01.465',5.47
'0:01.469',4.62
'0:01.473',3.67
'0:01.477',2.86
'0:01.480',2.18
'0:01.484',1.47
'0:01.488',0.8
'0:01.492',0.24
'0:01.496',-0.18
'0:01.500',-0.26
'0:01.504',-0.18
'0:01.508',0.02
'0:01.512',0.16
'0:01.516',0.2
'0:01.520',0.33
'0:01.523',0.52
'0:01.527',0.66
'0:01.531',0.84
'0:01.535',0.89
'0:01.539',0.59
'0:01.543',0.16
'0:01.547',-0.21
'0:01.551',-0.69
'0:01.555',-1.29
'0:01.559',-2
'0:01.563',-2.62
'0:01.566',-2.92
'0:01.570',-2.92
'0:01.574',-2.92
'0:01.578',-2.9
'0:01.582',-2.8
'0:01.586',-2.6
'0:01.590',-2.69
'0:01.594',-2.86
'0:01.598',-2.82
'0:01.602',-2.12
'0:01.605',-0.58
'0:01.609',1.62
'0:01.613',3.97
'0:01.617',5.91
'0:01.621',7.16
'0:01.625',6.49
'0:01.629',1.9
'0:01.633',-3.93
'0:01.637',-8.59
'0:01.641',-11.68
'0:01.645',-12.99
'0:01.648',-12.28
'0:01.652',-10.1
'0:01.656',-7.71
'0:01.660',-5.43
'0:01.664',-4.44
'0:01.668',-2.77
'0:01.672',-1.55
'0:01.676',-0.67
'0:01.680',-0.56
'0:01.684',-0.56
'0:01.688',-0.56
'0:01.691',0.36
'0:01.695',0.53
'0:01.699',0.84
'0:01.703',0.86
'0:01.707',0.71
'0:01.711',0.66
'0:01.715',0.76
'0:01.719',0.88
'0:01.723',0.95
'0:01.727',1
'0:01.730',1.16
'0:01.734',1.28
'0:01.738',1.37
'0:01.742',1.49
'0:01.746',1.96
'0:01.750',2.66
'0:01.754',3.24
'0:01.758',3.69
'0:01.762',4.16
'0:01.766',4.76
'0:01.770',5.18
'0:01.773',5.27
'0:01.777',5.16
'0:01.781',4.77
'0:01.785',4.51
'0:01.789',4.18
'0:01.793',3.54
'0:01.797',2.86
'0:01.801',2.22
'0:01.805',1.64
'0:01.809',1.14
'0:01.813',0.65
'0:01.816',0.11
'0:01.820',-0.14
'0:01.824',-0.06
'0:01.828',0.21
'0:01.832',0.36
'0:01.836',0.42
'0:01.840',0.31
'0:01.844',0.2
'0:01.848',0.18
'0:01.852',0.1
'0:01.855',0.13
'0:01.859',-0.02
'0:01.863',-0.16
'0:01.867',-0.6
'0:01.871',-1.05
'0:01.875',-1.72
'0:01.879',-2.44
'0:01.883',-3
'0:01.887',-3.32
'0:01.891',-3.47
'0:01.895',-3.78
'0:01.898',-3.96
'0:01.902',-3.86
'0:01.906',-3.7
'0:01.910',-3.52
'0:01.914',-3.54
'0:01.918',-4
'0:01.922',-4.31
'0:01.926',-4.3
'0:01.930',-3.56
'0:01.934',-1.96
'0:01.938',0.12
'0:01.941',2.27
'0:01.945',4.19
'0:01.949',5.61
'0:01.953',6.06
'0:01.957',3.14
'0:01.961',-2.54
'0:01.965',-7.89
'0:01.969',-11.5
'0:01.973',-13.24
'0:01.977',-13.42
'0:01.980',-11.55
'0:01.984',-8.71
'0:01.988',-6.04
'0:01.992',-3.87
'0:01.996',-2.32
'0:02.000',-1.25
'0:02.004',-0.41
'0:02.008',0.05
'0:02.012',0.32
'0:02.016',0.97
'0:02.020',1.87
'0:02.023',2.57
'0:02.027',2.33
'0:02.031',2.01
'0:02.035',2.07
'0:02.039',2.35
'0:02.043',2.8
'0:02.047',3.06
'0:02.051',3.34
'0:02.055',3.46
'0:02.059',3.61
'0:02.063',3.89
'0:02.066',4.12
'0:02.070',4.34
'0:02.074',4.55
'0:02.078',5.14
'0:02.082',5.29
'0:02.086',5.63
'0:02.090',5.96
'0:02.094',6.13
'0:02.098',6.37
'0:02.102',6.74
'0:02.105',6.76
'0:02.109',6.41
'0:02.113',5.99
'0:02.117',5.38
'0:02.121',4.77
'0:02.125',4.3
'0:02.129',3.89
'0:02.133',3.33
'0:02.137',2.71
'0:02.141',2.11
'0:02.145',1.34
'0:02.148',0.91
'0:02.152',0.67
'0:02.156',0.48
'0:02.160',0.55
'0:02.164',0.66
'0:02.168',0.39
'0:02.172',-0.14
'0:02.176',-0.18
'0:02.180',0.07
'0:02.184',-0.06
'0:02.188',-0.53
'0:02.191',-0.87
'0:02.195',-1.16
'0:02.199',-1.64
'0:02.203',-2.06
'0:02.207',-2.37
'0:02.211',-2.83
'0:02.215',-3.41
'0:02.219',-3.82
'0:02.223',-4.14
'0:02.227',-4.42
'0:02.230',-4.61
'0:02.234',-4.83
'0:02.238',-4.92
'0:02.242',-4.91
'0:02.246',-4.97
'0:02.250',-5.02
'0:02.254',-5.09
'0:02.258',-4.87
'0:02.262',-4.11
'0:02.266',-2.78
'0:02.270',-0.96
'0:02.273',0.95
'0:02.277',2.73
'0:02.281',4.37
'0:02.285',4.83
'0:02.289',1.38
'0:02.293',-4.49
'0:02.297',-9.53
'0:02.301',-12.75
'0:02.305',-14.17
'0:02.309',-13.81
'0:02.313',-12.16
'0:02.316',-9.84
'0:02.320',-7.28
'0:02.324',-4.93
'0:02.328',-3.05
'0:02.332',-1.41
'0:02.336',-0.11
'0:02.340',0.56
'0:02.344',1.08
'0:02.348',1.62
'0:02.352',2.04
'0:02.355',2.26
'0:02.359',2.21
'0:02.363',2.02
'0:02.367',1.8
'0:02.371',1.91
'0:02.375',2.46
'0:02.379',3.11
'0:02.383',3.2
'0:02.387',3.06
'0:02.391',3.06
'0:02.395',3.5
'0:02.398',3.86
'0:02.402',4.17
'0:02.406',4.6
'0:02.410',5.02
'0:02.414',5.71
'0:02.418',6.65
'0:02.422',7.24
'0:02.426',7.68
'0:02.430',7.67
'0:02.434',7.45
'0:02.438',7.33
'0:02.441',7.28
'0:02.445',6.96
'0:02.449',6.48
'0:02.453',5.81
'0:02.457',5.13
'0:02.461',4.28
'0:02.465',3.26
'0:02.469',2.49
'0:02.473',1.94
'0:02.477',1.38
'0:02.480',1.08
'0:02.484',0.79
'0:02.488',0.96
'0:02.492',1.14
'0:02.496',1.47
'0:02.500',1.47
'0:02.504',1.08
'0:02.508',0.96
'0:02.512',0.99
'0:02.516',0.94
'0:02.520',0.81
'0:02.523',0.54
'0:02.527',0.13
'0:02.531',-0.47
'0:02.535',-0.92
'0:02.539',-1.44
'0:02.543',-1.99
'0:02.547',-2.42
'0:02.551',-2.74
'0:02.555',-2.73
'0:02.559',-2.63
'0:02.563',-2.52
'0:02.566',-2.64
'0:02.570',-2.86
'0:02.574',-3.11
'0:02.578',-3.27
'0:02.582',-3.12
'0:02.586',-2.17
'0:02.590',-0.54
'0:02.594',1.37
'0:02.598',3.31
'0:02.602',4.98
'0:02.605',6.39
'0:02.609',7.22
'0:02.613',4.06
'0:02.617',-2.4
'0:02.621',-8.24
'0:02.625',-12.02
'0:02.629',-13.78
'0:02.633',-13.68
'0:02.637',-12.5
'0:02.641',-10.27
'0:02.645',-7.2
'0:02.648',-4.52
'0:02.652',-2.61
'0:02.656',-1.33
'0:02.660',-0.5
'0:02.664',-0.08
'0:02.668',0.27
'0:02.672',0.66
'0:02.676',0.94
'0:02.680',1.09
'0:02.684',1.26
'0:02.688',1.4
'0:02.691',1.54
'0:02.695',1.6
'0:02.699',1.55
'0:02.703',1.55
'0:02.707',1.58
'0:02.711',1.77
'0:02.715',1.85
'0:02.719',1.73
'0:02.723',1.78
'0:02.727',2.01
'0:02.730',2.43
'0:02.734',2.98
'0:02.738',3.58
'0:02.742',4.24
'0:02.746',4.63
'0:02.750',4.97
'0:02.754',5.26
'0:02.758',5.64
'0:02.762',5.72
'0:02.766',5.33
'0:02.770',4.66
'0:02.773',3.99
'0:02.777',3.28
'0:02.781',2.53
'0:02.785',1.94
'0:02.789',1.34
'0:02.793',0.56
'0:02.797',-0.24
'0:02.801',-0.93
'0:02.805',-1.49
'0:02.809',-1.71
'0:02.813',-1.57
'0:02.816',-1.24
'0:02.820',-0.82
'0:02.824',-0.41
'0:02.828',-0.27
'0:02.832',-0.23
'0:02.836',-0.3
'0:02.840',-0.52
'0:02.844',-0.62
'0:02.848',-0.78
'0:02.852',-0.98
'0:02.855',-0.93
'0:02.859',-1.26
'0:02.863',-1.66
'0:02.867',-2.11
'0:02.871',-2.35
'0:02.875',-2.58
'0:02.879',-2.84
'0:02.883',-2.93
'0:02.887',-3.05
'0:02.891',-3.14
'0:02.895',-3.77
'0:02.898',-3.81
'0:02.902',-3.76
'0:02.906',-3.75
'0:02.910',-3.63
'0:02.914',-2.94
'0:02.918',-1.66
'0:02.922',-0.01
'0:02.926',1.8
'0:02.930',3.93
'0:02.934',5.88
'0:02.938',6.95
'0:02.941',4.38
'0:02.945',-1.81
'0:02.949',-7.57
'0:02.953',-11.17
'0:02.957',-12.84
'0:02.961',-13.07
'0:02.965',-11.67
'0:02.969',-9.69
'0:02.973',-7.48
'0:02.977',-5.41
'0:02.980',-3.53
'0:02.984',-1.93
'0:02.988',-1.13
'0:02.992',-0.78
'0:02.996',-0.46
'0:03.000',-0.07
'0:03.004',0.23
'0:03.008',0.25
'0:03.012',0.12
'0:03.016',0.04
'0:03.020',0.16
'0:03.023',0.29
'0:03.027',0.32
'0:03.031',0.41
'0:03.035',0.94
'0:03.039',1.06
'0:03.043',1.12
'0:03.047',1.12
'0:03.051',1.14
'0:03.055',1.35
'0:03.059',1.55
'0:03.063',1.79
'0:03.066',2.14
'0:03.070',2.62
'0:03.074',3.14
'0:03.078',3.78
'0:03.082',4.43
'0:03.086',4.79
'0:03.090',4.79
'0:03.094',4.62
'0:03.098',4.37
'0:03.102',3.87
'0:03.105',3.19
'0:03.109',2.48
'0:03.113',1.96
'0:03.117',1.5
'0:03.121',0.97
'0:03.125',0.53
'0:03.129',0.33
'0:03.133',0.25
'0:03.137',0.21
'0:03.141',0.04
'0:03.145',-0.08
'0:03.148',-0.18
'0:03.152',-0.11
'0:03.156',0.11
'0:03.160',0.4
'0:03.164',0.56
'0:03.168',0.61
'0:03.172',0.53
'0:03.176',0.38
'0:03.180',0.13
'0:03.184',-0.37
'0:03.188',-0.74
'0:03.191',-0.82
'0:03.195',-1.17
'0:03.199',-1.93
'0:03.203',-2.32
'0:03.207',-2.35
'0:03.211',-2.2
'0:03.215',-2.21
'0:03.219',-2.32
'0:03.223',-2.25
'0:03.227',-2.23
'0:03.230',-2.42
'0:03.234',-2.48
'0:03.238',-2.33
'0:03.242',-1.84
'0:03.246',-1.13
'0:03.250',0.21
'0:03.254',2.3
'0:03.258',4.66
'0:03.262',6.66
'0:03.266',7.35
'0:03.270',4.73
'0:03.273',-0.58
'0:03.277',-5.3
'0:03.281',-8.71
'0:03.285',-10.71
'0:03.289',-11.19
'0:03.293',-10.13
'0:03.297',-7.85
'0:03.301',-5.33
'0:03.305',-3.2
'0:03.309',-1.61
'0:03.313',-0.57
'0:03.316',0.14
'0:03.320',0.64
'0:03.324',1.29
'0:03.328',1.67
'0:03.332',1.8
'0:03.336',1.85
'0:03.340',1.82
'0:03.344',1.76
'0:03.348',2.01
'0:03.352',2.44
'0:03.355',2.64
'0:03.359',2.71
'0:03.363',2.5
'0:03.367',2.42
'0:03.371',2.39
'0:03.375',2.44
'0:03.379',2.66
'0:03.383',2.96
'0:03.387',3.27
'0:03.391',3.72
'0:03.395',4.17
'0:03.398',4.56
'0:03.402',5.12
'0:03.406',5.77
'0:03.410',6.23
'0:03.414',6.59
'0:03.418',6.63
'0:03.422',6.34
'0:03.426',5.88
'0:03.430',5.29
'0:03.434',4.52
'0:03.438',3.69
'0:03.441',2.93
'0:03.445',2.27
'0:03.449',1.6
'0:03.453',1.06
'0:03.457',0.62
'0:03.461',0.37
'0:03.465',0.11
'0:03.469',-0.08
'0:03.473',-0.18
'0:03.477',-0.16
'0:03.480',-0.13
'0:03.484',-0.3
'0:03.488',-0.25
'0:03.492',-0.18
'0:03.496',-0.34
'0:03.500',-0.57
'0:03.504',-0.71
'0:03.508',-1.01
'0:03.512',-1.3
'0:03.516',-1.65
'0:03.520',-2.03
'0:03.523',-2.55
'0:03.527',-3.06
'0:03.531',-3.56
'0:03.535',-3.97
'0:03.539',-4.18
'0:03.543',-4.21
'0:03.547',-4.3
'0:03.551',-4.38
'0:03.555',-4.29
'0:03.559',-4.21
'0:03.563',-4.37
'0:03.566',-4.43
'0:03.570',-3.83
'0:03.574',-2.71
'0:03.578',-1.05
'0:03.582',0.94
'0:03.586',2.77
'0:03.590',4.4
'0:03.594',5.3
'0:03.598',2.87
'0:03.602',-2.93
'0:03.605',-8.32
'0:03.609',-11.83
'0:03.613',-13.67
'0:03.617',-13.91
'0:03.621',-12.8
'0:03.625',-10.81
'0:03.629',-8.03
'0:03.633',-5.38
'0:03.637',-3.27
'0:03.641',-1.76
'0:03.645',-0.65
'0:03.648',0.38
'0:03.652',1.11
'0:03.656',0.99
'0:03.660',1.03
'0:03.664',1.31
'0:03.668',1.75
'0:03.672',1.67
'0:03.676',1.78
'0:03.680',1.65
'0:03.684',1.87
'0:03.688',2.16
'0:03.691',2.3
'0:03.695',2.35
'0:03.699',2.54
'0:03.703',2.67
'0:03.707',2.94
'0:03.711',3.2
'0:03.715',3.72
'0:03.719',4.29
'0:03.723',5.12
'0:03.727',6.1
'0:03.730',6.62
'0:03.734',6.96
'0:03.738',7.19
'0:03.742',7.45
'0:03.746',7.58
'0:03.750',7.43
'0:03.754',6.89
'0:03.758',5.91
'0:03.762',5.22
'0:03.766',4.97
'0:03.770',4.78
'0:03.773',4.78
'0:03.777',4.78
'0:03.781',4.78
'0:03.785',0.41
'0:03.789',0.16
'0:03.793',0.25
'0:03.797',0.44
'0:03.801',0.34
'0:03.805',0.12
'0:03.809',0.25
'0:03.813',0.14
'0:03.816',0.03
'0:03.820',0
'0:03.824',-0.12
'0:03.828',-0.24
'0:03.832',-0.14
'0:03.836',-0.29
'0:03.840',-0.8
'0:03.844',-1.21
'0:03.848',-1.58
'0:03.852',-1.89
'0:03.855',-2.17
'0:03.859',-2.17
'0:03.863',-2.91
'0:03.867',-3.13
'0:03.871',-3.2
'0:03.875',-2.85
'0:03.879',-2.47
'0:03.883',-2.34
'0:03.887',-2.99
'0:03.891',-3.36
'0:03.895',-2.95
'0:03.898',-1.77
'0:03.902',0.23
'0:03.906',2.51
'0:03.910',4.27
'0:03.914',5.5
'0:03.918',5.76
'0:03.922',2.56
'0:03.926',-3.09
'0:03.930',-8.21
'0:03.934',-11.64
'0:03.938',-13.04
'0:03.941',-13.02
'0:03.945',-11.67
'0:03.949',-9.71
'0:03.953',-6.96
'0:03.957',-4.06
'0:03.961',-2.21
'0:03.965',-0.94
'0:03.969',0.02
'0:03.973',0.74
'0:03.977',1.04
'0:03.980',1.09
'0:03.984',1.37
'0:03.988',1.61
'0:03.992',1.56
'0:03.996',1.78
'0:04.000',2.38
'0:04.004',2.93
'0:04.008',3.1
'0:04.012',2.79
'0:04.016',2.69
'0:04.020',2.94
'0:04.023',2.84
'0:04.027',2.69
'0:04.031',2.95
'0:04.035',3.5
'0:04.039',4.05
'0:04.043',4.51
'0:04.047',4.92
'0:04.051',5.5
'0:04.055',6
'0:04.059',6.3
'0:04.063',6.43
'0:04.066',6.44
'0:04.070',6.46
'0:04.074',6.33
'0:04.078',5.88
'0:04.082',5.33
'0:04.086',4.73
'0:04.090',4.11
'0:04.094',3.55
'0:04.098',2.9
'0:04.102',2.17
'0:04.105',1.26
'0:04.109',0.44
'0:04.113',0.02
'0:04.117',0.01
'0:04.121',-0.06
'0:04.125',-0.09
'0:04.129',-0.03
'0:04.133',0.2
'0:04.137',0.49
'0:04.141',0.38
'0:04.145',0.33
'0:04.148',0.38
'0:04.152',0.46
'0:04.156',0.16
'0:04.160',-0.53
'0:04.164',-1.13
'0:04.168',-1.56
'0:04.172',-1.71
'0:04.176',-1.86
'0:04.180',-2.38
'0:04.184',-2.78
'0:04.188',-3.07
'0:04.191',-3.42
'0:04.195',-3.55
'0:04.199',-3.44
'0:04.203',-3.49
'0:04.207',-3.85
'0:04.211',-4.03
'0:04.215',-4.2
'0:04.219',-3.97
'0:04.223',-3.23
'0:04.227',-1.86
'0:04.230',0.18
'0:04.234',2.41
'0:04.238',4.25
'0:04.242',5.77
'0:04.246',5.97
'0:04.250',1.91
'0:04.254',-4.22
'0:04.258',-9.41
'0:04.262',-12.76
'0:04.266',-14.1
'0:04.270',-14.2
'0:04.273',-12.88
'0:04.277',-10.64
'0:04.281',-8.21
'0:04.285',-5.89
'0:04.289',-3.88
'0:04.293',-2.46
'0:04.297',-1.57
'0:04.301',-1.04
'0:04.305',-0.68
'0:04.309',-0.25
'0:04.313',0.22
'0:04.316',0.55
'0:04.320',0.75
'0:04.324',0.84
'0:04.328',0.83
'0:04.332',0.72
'0:04.336',0.66
'0:04.340',0.66
'0:04.344',0.54
'0:04.348',0.66
'0:04.352',0.92
'0:04.355',1.14
'0:04.359',1.34
'0:04.363',1.48
'0:04.367',1.81
'0:04.371',2.26
'0:04.375',2.8
'0:04.379',3.27
'0:04.383',3.97
'0:04.387',4.35
'0:04.391',4.67
'0:04.395',4.76
'0:04.398',4.46
'0:04.402',4.05
'0:04.406',3.45
'0:04.410',2.79
'0:04.414',2.24
'0:04.418',2.06
'0:04.422',1.74
'0:04.426',1.08
'0:04.430',0.27
'0:04.434',-0.44
'0:04.438',-1.07
'0:04.441',-0.99
'0:04.445',-0.48
'0:04.449',-0.02
'0:04.453',0.05
'0:04.457',-0.38
'0:04.461',-0.7
'0:04.465',-0.47
'0:04.469',0.03
'0:04.473',0.41
'0:04.477',0.4
'0:04.480',0.26
'0:04.484',0.09
'0:04.488',-0.52
'0:04.492',-1.06
'0:04.496',-1.66
'0:04.500',-2.21
'0:04.504',-2.43
'0:04.508',-2.59
'0:04.512',-2.73
'0:04.516',-2.97
'0:04.520',-3.3
'0:04.523',-3.25
'0:04.527',-2.64
'0:04.531',-2.32
'0:04.535',-2.53
'0:04.539',-2.53
'0:04.543',-2.41
'0:04.547',-1.96
'0:04.551',-1.17
'0:04.555',-0.09
'0:04.559',1.18
'0:04.563',2.93
'0:04.566',4.87
'0:04.570',6.35
'0:04.574',7.04
'0:04.578',5.4
'0:04.582',0.66
'0:04.586',-4.28
'0:04.590',-8.24
'0:04.594',-10.31
'0:04.598',-10.43
'0:04.602',-9.29
'0:04.605',-7.41
'0:04.609',-5.26
'0:04.613',-3.38
'0:04.617',-1.9
'0:04.621',-1.01
'0:04.625',-0.32
'0:04.629',0.3
'0:04.633',0.9
'0:04.637',1.32
'0:04.641',1.67
'0:04.645',1.77
'0:04.648',1.78
'0:04.652',1.94
'0:04.656',2.14
'0:04.660',2.15
'0:04.664',2.26
'0:04.668',2.39
'0:04.672',2.44
'0:04.676',2.72
'0:04.680',2.75
'0:04.684',2.5
'0:04.688',2.43
'0:04.691',2.71
'0:04.695',2.9
'0:04.699',2.86
'0:04.703',2.99
'0:04.707',3.48
'0:04.711',4.05
'0:04.715',4.46
'0:04.719',4.79
'0:04.723',4.98
'0:04.727',5
'0:04.730',5.01
'0:04.734',4.75
'0:04.738',4.18
'0:04.742',3.49
'0:04.746',2.68
'0:04.750',2.21
'0:04.754',1.86
'0:04.758',1.28
'0:04.762',0.72
'0:04.766',0.29
'0:04.770',0.11
'0:04.773',-0.08
'0:04.777',-0.09
'0:04.781',-0.11
'0:04.785',-0.05
'0:04.789',0.1
'0:04.793',0.23
'0:04.797',0.45
'0:04.801',0.53
'0:04.805',0.39
'0:04.809',-0.04
'0:04.813',-0.4
'0:04.816',-0.66
'0:04.820',-0.92
'0:04.824',-1.29
'0:04.828',-1.93
'0:04.832',-2.56
'0:04.836',-3.09
'0:04.840',-3.58
'0:04.844',-3.86
'0:04.848',-4.17
'0:04.852',-4.28
'0:04.855',-4.22
'0:04.859',-4.19
'0:04.863',-4.1
'0:04.867',-4
'0:04.871',-4.09
'0:04.875',-4.47
'0:04.879',-4.37
'0:04.883',-3.32
'0:04.887',-1.73
'0:04.891',0.22
'0:04.895',2.32
'0:04.898',4.37
'0:04.902',6.1
'0:04.906',5.31
'0:04.910',0.21
'0:04.914',-5.85
'0:04.918',-10.34
'0:04.922',-12.78
'0:04.926',-13.83
'0:04.930',-13.51
'0:04.934',-11.68
'0:04.938',-8.83
'0:04.941',-5.82
'0:04.945',-3.44
'0:04.949',-2.17
'0:04.953',-1.27
'0:04.957',-0.36
'0:04.961',0.32
'0:04.965',0.43
'0:04.969',0.27
'0:04.973',0.31
'0:04.977',0.66
'0:04.980',1.2
'0:04.984',1.58
'0:04.988',1.68
'0:04.992',1.87
'0:04.996',2.13
'0:05.000',2.31
'0:05.004',2.33
'0:05.008',2.57
'0:05.012',3.09
'0:05.016',3.38
'0:05.020',3.54
'0:05.023',3.62
'0:05.027',3.89
'0:05.031',4.4
'0:05.035',5.01
'0:05.039',5.42
'0:05.043',5.84
'0:05.047',6.47
'0:05.051',6.89
'0:05.055',7
'0:05.059',7.04
'0:05.063',7.03
'0:05.066',6.49
'0:05.070',5.51
'0:05.074',4.63
'0:05.078',4.06
'0:05.082',3.24
'0:05.086',2.11
'0:05.090',1.4
'0:05.094',1.01
'0:05.098',1
'0:05.102',0.44
'0:05.105',0.57
'0:05.109',0.64
'0:05.113',0.73
'0:05.117',0.56
'0:05.121',0.27
'0:05.125',0.14
'0:05.129',0.65
'0:05.133',0.96
'0:05.137',1.28
'0:05.141',1.28
'0:05.145',0.71
'0:05.148',-0.01
'0:05.152',-0.35
'0:05.156',-0.91
'0:05.160',-1.4
'0:05.164',-1.97
'0:05.168',-2.36
'0:05.172',-2.64
'0:05.176',-2.82
'0:05.180',-2.83
'0:05.184',-2.86
'0:05.188',-3.05
'0:05.191',-3.09
'0:05.195',-3.07
'0:05.199',-3.07
'0:05.203',-3.03
'0:05.207',-2.58
'0:05.211',-1.45
'0:05.215',0.34
'0:05.219',2.66
'0:05.223',4.55
'0:05.227',6
'0:05.230',6.76
'0:05.234',4.47
'0:05.238',-1.7
'0:05.242',-7.6
'0:05.246',-11.58
'0:05.250',-13.89
'0:05.254',-14.45
'0:05.258',-13.35
'0:05.262',-11.05
'0:05.266',-8.22
'0:05.270',-5.42
'0:05.273',-2.99
'0:05.277',-1.2
'0:05.281',-0.22
'0:05.285',0.35
'0:05.289',0.79
'0:05.293',1.08
'0:05.297',1.13
'0:05.301',0.85
'0:05.305',0.69
'0:05.309',0.85
'0:05.313',1.54
'0:05.316',2.12
'0:05.320',2.36
'0:05.324',2.31
'0:05.328',2.14
'0:05.332',2.09
'0:05.336',2.2
'0:05.340',2.28
'0:05.344',2.68
'0:05.348',3.14
'0:05.352',3.11
'0:05.355',3.23
'0:05.359',3.72
'0:05.363',4.13
'0:05.367',4.53
'0:05.371',5.21
'0:05.375',5.52
'0:05.379',5.6
'0:05.383',5.61
'0:05.387',5.65
'0:05.391',5.45
'0:05.395',4.7
'0:05.398',3.99
'0:05.402',3.47
'0:05.406',2.98
'0:05.410',2.32
'0:05.414',1.29
'0:05.418',0.26
'0:05.422',-0.21
'0:05.426',-0.1
'0:05.430',-0.12
'0:05.434',-0.17
'0:05.438',0.16
'0:05.441',0.59
'0:05.445',0.65
'0:05.449',0.64
'0:05.453',0.54
'0:05.457',0.49
'0:05.461',0.4
'0:05.465',0.26
'0:05.469',-0.06
'0:05.473',-0.48
'0:05.477',-0.97
'0:05.480',-1.34
'0:05.484',-1.62
'0:05.488',-1.78
'0:05.492',-2.16
'0:05.496',-2.81
'0:05.500',-2.99
'0:05.504',-2.99
'0:05.508',-3.21
'0:05.512',-3.31
'0:05.516',-3.41
'0:05.520',-3.71
'0:05.523',-3.88
'0:05.527',-4.34
'0:05.531',-4.56
'0:05.535',-4.07
'0:05.539',-2.95
'0:05.543',-1.35
'0:05.547',0.73
'0:05.551',2.77
'0:05.555',4.43
'0:05.559',5.49
'0:05.563',3.99
'0:05.566',-1.23
'0:05.570',-7.06
'0:05.574',-11.16
'0:05.578',-13.4
'0:05.582',-13.75
'0:05.586',-12.65
'0:05.590',-10.5
'0:05.594',-7.87
'0:05.598',-5.47
'0:05.602',-3.72
'0:05.605',-2.35
'0:05.609',-1.39
'0:05.613',-0.53
'0:05.617',0.13
'0:05.621',0.43
'0:05.625',0.56
'0:05.629',0.5
'0:05.633',0.45
'0:05.637',0.57
'0:05.641',0.74
'0:05.645',0.94
'0:05.648',1.27
'0:05.652',1.86
'0:05.656',2.53
'0:05.660',2.5
'0:05.664',2.05
'0:05.668',1.64
'0:05.672',1.63
'0:05.676',2.08
'0:05.680',2.85
'0:05.684',3.52
'0:05.688',3.89
'0:05.691',4.06
'0:05.695',4.57
'0:05.699',5.19
'0:05.703',5.52
'0:05.707',5.63
'0:05.711',5.57
'0:05.715',5.51
'0:05.719',5.45
'0:05.723',5.21
'0:05.727',4.85
'0:05.730',4.26
'0:05.734',3.39
'0:05.738',2.73
'0:05.742',2.52
'0:05.746',2.27
'0:05.750',1.99
'0:05.754',2.05
'0:05.758',1.89
'0:05.762',1.65
'0:05.766',1.41
'0:05.770',1.29
'0:05.773',1.61
'0:05.777',1.83
'0:05.781',1.43
'0:05.785',0.84
'0:05.789',0.61
'0:05.793',0.7
'0:05.797',0.61
'0:05.801',0.11
'0:05.805',-0.41
'0:05.809',-0.73
'0:05.813',-1.22
'0:05.816',-1.89
'0:05.820',-2.19
'0:05.824',-2.1
'0:05.828',-2.05
'0:05.832',-2.11
'0:05.836',-2.46
'0:05.840',-2.85
'0:05.844',-3.13
'0:05.848',-3.21
'0:05.852',-3.13
'0:05.855',-3.23
'0:05.859',-3.28
'0:05.863',-3.24
'0:05.867',-1.72
'0:05.871',-0.5
'0:05.875',1.25
'0:05.879',3.15
'0:05.883',4.56
'0:05.887',5.21
'0:05.891',2.72
'0:05.895',-1.53
'0:05.898',-9.88
'0:05.902',-12.54
'0:05.906',-13.34
'0:05.910',-12.55
'0:05.914',-10.46
'0:05.918',-7.91
'0:05.922',-5.51
'0:05.926',-3.56
'0:05.930',-1.91
'0:05.934',-0.75
'0:05.938',0
'0:05.941',0.65
'0:05.945',1.1
'0:05.949',1.4
'0:05.953',1.5
'0:05.957',1.39
'0:05.961',1.29
'0:05.965',1.27
'0:05.969',1.46
'0:05.973',1.58
'0:05.977',1.61
'0:05.980',1.7
'0:05.984',1.81
'0:05.988',1.92
'0:05.992',2.13
'0:05.996',2.38
'0:06.000',2.46
'0:06.004',2.53
'0:06.008',2.96
'0:06.012',3.7
'0:06.016',4.36
'0:06.020',4.37
'0:06.023',4.36
'0:06.027',4.37
'0:06.031',6.55
'0:06.035',6.77
'0:06.039',6.63
'0:06.043',6.16
'0:06.047',5.54
'0:06.051',4.82
'0:06.055',3.95
'0:06.059',2.96
'0:06.063',2.06
'0:06.066',1.35
'0:06.070',0.71
'0:06.074',0.04
'0:06.078',-0.46
'0:06.082',-0.72
'0:06.086',-0.85
'0:06.090',-0.86
'0:06.094',-0.8
'0:06.098',-0.75
'0:06.102',-0.64
'0:06.105',-0.45
'0:06.109',-0.3
'0:06.113',-0.16
'0:06.117',-0.18
'0:06.121',-0.45
'0:06.125',-0.69
'0:06.129',-0.81
'0:06.133',-1.16
'0:06.137',-1.87
'0:06.141',-2.58
'0:06.145',-2.68
'0:06.148',-2.78
'0:06.152',-3.13
'0:06.156',-3.1
'0:06.160',-2.78
'0:06.164',-2.82
'0:06.168',-2.97
'0:06.172',-3.32
'0:06.176',-3.43
'0:06.180',-3.57
'0:06.184',-3.61
'0:06.188',-3.11
'0:06.191',-2.27
'0:06.195',-1.03
'0:06.199',0.96
'0:06.203',3.35
'0:06.207',5.44
'0:06.211',6.89
'0:06.215',6.18
'0:06.219',1.67
'0:06.223',-4.14
'0:06.227',-9
'0:06.230',-12.1
'0:06.234',-13.1
'0:06.238',-12.55
'0:06.242',-10.65
'0:06.246',-7.73
'0:06.250',-4.73
'0:06.254',-2.77
'0:06.258',-2.29
'0:06.262',-2.29
'0:06.266',0.39
'0:06.270',1.05
'0:06.273',1.56
'0:06.277',1.99
'0:06.281',1.97
'0:06.285',1.71
'0:06.289',1.5
'0:06.293',1.93
'0:06.297',2.08
'0:06.301',1.91
'0:06.305',1.88
'0:06.309',2.01
'0:06.313',2.06
'0:06.316',2.16
'0:06.320',2.4
'0:06.324',2.62
'0:06.328',2.99
'0:06.332',3.51
'0:06.336',3.8
'0:06.340',4.1
'0:06.344',4.71
'0:06.348',5.44
'0:06.352',6.06
'0:06.355',6.53
'0:06.359',6.79
'0:06.363',6.74
'0:06.367',6.41
'0:06.371',5.89
'0:06.375',5.21
'0:06.379',4.57
'0:06.383',3.92
'0:06.387',2.98
'0:06.391',1.98
'0:06.395',1.18
'0:06.398',0.62
'0:06.402',0.23
'0:06.406',-0.07
'0:06.410',-0.32
'0:06.414',-0.37
'0:06.418',-0.15
'0:06.422',0.16
'0:06.426',0.21
'0:06.430',0.13
'0:06.434',0.02
'0:06.438',-0.15
'0:06.441',-0.42
'0:06.445',-0.76
'0:06.449',-1.05
'0:06.453',-1.28
'0:06.457',-1.4
'0:06.461',-1.69
'0:06.465',-2.21
'0:06.469',-2.63
'0:06.473',-2.98
'0:06.477',-3.12
'0:06.480',-3.12
'0:06.484',-3.16
'0:06.488',-3.21
'0:06.492',-3.35
'0:06.496',-3.48
'0:06.500',-3.27
'0:06.504',-3.2
'0:06.508',-3.46
'0:06.512',-3.67
'0:06.516',-3.28
'0:06.520',-2.08
'0:06.523',-0.28
'0:06.527',1.94
'0:06.531',4.31
'0:06.535',6.46
'0:06.539',7.39
'0:06.543',4.57
'0:06.547',-1.26
'0:06.551',-6.99
'0:06.555',-11.93
'0:06.559',-12.73
'0:06.563',-11.83
'0:06.566',-10.02
'0:06.570',-7.99
'0:06.574',-5.99
'0:06.578',-4.19
'0:06.582',-2.55
'0:06.586',-1.22
'0:06.590',-0.5
'0:06.594',0.05
'0:06.598',0.3
'0:06.602',0.21
'0:06.605',0.3
'0:06.609',0.57
'0:06.613',0.89
'0:06.617',1.27
'0:06.621',1.46
'0:06.625',1.49
'0:06.629',1.49
'0:06.633',1.66
'0:06.637',2.08
'0:06.641',2.4
'0:06.645',2.61
'0:06.648',2.54
'0:06.652',2.55
'0:06.656',2.82
'0:06.660',2.83
'0:06.664',3.09
'0:06.668',3.7
'0:06.672',4.47
'0:06.676',5.35
'0:06.680',5.63
'0:06.684',5.64
'0:06.688',6.2
'0:06.691',6.15
'0:06.695',6.13
'0:06.699',5.76
'0:06.703',5.09
'0:06.707',4.9
'0:06.711',4.9
'0:06.715',2.46
'0:06.719',1.91
'0:06.723',1.56
'0:06.727',1.25
'0:06.730',0.66
'0:06.734',0.36
'0:06.738',0.21
'0:06.742',0.24
'0:06.746',0.43
'0:06.750',0.7
'0:06.754',0.78
'0:06.758',0.69
'0:06.762',0.58
'0:06.766',0.39
'0:06.770',0.16
'0:06.773',-0.03
'0:06.777',-0.21
'0:06.781',-0.33
'0:06.785',-0.58
'0:06.789',-0.96
'0:06.793',-1.82
'0:06.797',-2.67
'0:06.801',-3.01
'0:06.805',-3.02
'0:06.809',-3.12
'0:06.813',-3.48
'0:06.816',-3.83
'0:06.820',-3.91
'0:06.824',-3.6
'0:06.828',-3.13
'0:06.832',-3.02
'0:06.836',-3.25
'0:06.840',-3.39
'0:06.844',-3.09
'0:06.848',-2.09
'0:06.852',-0.6
'0:06.855',1.39
'0:06.859',3.4
'0:06.863',5.11
'0:06.867',5.87
'0:06.871',3.67
'0:06.875',-1.48
'0:06.879',-6.86
'0:06.883',-10.95
'0:06.887',-12.8
'0:06.891',-12.75
'0:06.895',-11.26
'0:06.898',-9.07
'0:06.902',-6.53
'0:06.906',-3.97
'0:06.910',-2.16
'0:06.914',-0.93
'0:06.918',-0.15
'0:06.922',0.27
'0:06.926',0.57
'0:06.930',0.92
'0:06.934',1.19
'0:06.938',1.3
'0:06.941',1.25
'0:06.945',1.34
'0:06.949',1.46
'0:06.953',1.46
'0:06.957',1.54
'0:06.961',1.54
'0:06.965',1.74
'0:06.969',2.15
'0:06.973',2.35
'0:06.977',2.53
'0:06.980',2.59
'0:06.984',2.67
'0:06.988',3.16
'0:06.992',3.8
'0:06.996',4.33
'0:07.000',4.84
'0:07.004',5.64
'0:07.008',6.28
'0:07.012',6.65
'0:07.016',6.79
'0:07.020',6.75
'0:07.023',6.36
'0:07.027',5.98
'0:07.031',5.26
'0:07.035',4.18
'0:07.039',3.63
'0:07.043',2.96
'0:07.047',2.47
'0:07.051',1.75
'0:07.055',0.93
'0:07.059',0.13
'0:07.063',-0.11
'0:07.066',-0.36
'0:07.070',-0.47
'0:07.074',-0.31
'0:07.078',-0.03
'0:07.082',0.04
'0:07.086',-0.09
'0:07.090',-0.36
'0:07.094',-0.13
'0:07.098',0.19
'0:07.102',0.17
'0:07.105',-0.32
'0:07.109',-0.75
'0:07.113',-1.01
'0:07.117',-1.48
'0:07.121',-2.2
'0:07.125',-2.68
'0:07.129',-2.89
'0:07.133',-3.05
'0:07.137',-3.5
'0:07.141',-3.95
'0:07.145',-4.03
'0:07.148',-4.29
'0:07.152',-4.27
'0:07.156',-3.95
'0:07.160',-3.8
'0:07.164',-3.98
'0:07.168',-4.11
'0:07.172',-4.01
'0:07.176',-3.45
'0:07.180',-2.45
'0:07.184',-0.81
'0:07.188',1.28
'0:07.191',3.08
'0:07.195',4.48
'0:07.199',4.25
'0:07.203',0.37
'0:07.207',-5.35
'0:07.211',-10.15
'0:07.215',-13.31
'0:07.219',-14.62
'0:07.223',-14.4
'0:07.227',-12.59
'0:07.230',-9.96
'0:07.234',-7.46
'0:07.238',-5.07
'0:07.242',-2.96
'0:07.246',-1.55
'0:07.250',-0.78
'0:07.254',-0.18
'0:07.258',0.42
'0:07.262',0.62
'0:07.266',0.63
'0:07.270',0.8
'0:07.273',0.92
'0:07.277',1.12
'0:07.281',1.28
'0:07.285',1.61
'0:07.289',1.96
'0:07.293',2.22
'0:07.297',2.38
'0:07.301',2.53
'0:07.305',2.66
'0:07.309',2.93
'0:07.313',3.39
'0:07.316',3.76
'0:07.320',4.4
'0:07.324',5.01
'0:07.328',5.74
'0:07.332',6.16
'0:07.336',6.44
'0:07.340',6.99
'0:07.344',7.38
'0:07.348',7.52
'0:07.352',7.33
'0:07.355',6.98
'0:07.359',6.65
'0:07.363',6.08
'0:07.367',5.24
'0:07.371',4.38
'0:07.375',3.81
'0:07.379',3.38
'0:07.383',2.93
'0:07.387',2.42
'0:07.391',1.85
'0:07.395',1.49
'0:07.398',1.41
'0:07.402',1.7
'0:07.406',1.71
'0:07.410',1.68
'0:07.414',1.67
'0:07.418',1.64
'0:07.422',1.98
'0:07.426',2.13
'0:07.430',1.67
'0:07.434',1.15
'0:07.438',0.52
'0:07.441',0.25
'0:07.445',-0.09
'0:07.449',-0.63
'0:07.453',-0.92
'0:07.457',-1.19
'0:07.461',-1.48
'0:07.465',-1.79
'0:07.469',-1.97
'0:07.473',-1.83
'0:07.477',-1.57
'0:07.480',-1.48
'0:07.484',-1.46
'0:07.488',-1.55
'0:07.492',-1.8
'0:07.496',-2.07
'0:07.500',-1.83
'0:07.504',-0.78
'0:07.508',1.25
'0:07.512',3.58
'0:07.516',5.63
'0:07.520',7.02
'0:07.523',7.17
'0:07.527',3.62
'0:07.531',-2.44
'0:07.535',-7.89
'0:07.539',-11.79
'0:07.543',-13.66
'0:07.547',-13.6
'0:07.551',-12.02
'0:07.555',-9.5
'0:07.559',-6.71
'0:07.563',-4.23
'0:07.566',-2.37
'0:07.570',-1.01
'0:07.574',-0.04
'0:07.578',0.54
'0:07.582',0.91
'0:07.586',1.08
'0:07.590',0.87
'0:07.594',0.65
'0:07.598',0.45
'0:07.602',0.33
'0:07.605',0.25
'0:07.609',0.4
'0:07.613',0.63
'0:07.617',0.77
'0:07.621',1.04
'0:07.625',1.21
'0:07.629',1.34
'0:07.633',1.48
'0:07.637',1.66
'0:07.641',1.96
'0:07.645',2.4
'0:07.648',2.9
'0:07.652',3.51
'0:07.656',4.02
'0:07.660',4.48
'0:07.664',4.97
'0:07.668',5.44
'0:07.672',5.79
'0:07.676',5.76
'0:07.680',5.41
'0:07.684',4.82
'0:07.688',3.95
'0:07.691',2.95
'0:07.695',2.19
'0:07.699',1.43
'0:07.703',0.73
'0:07.707',0.25
'0:07.711',-0.21
'0:07.715',-0.61
'0:07.719',-0.82
'0:07.723',-0.92
'0:07.727',-0.88
'0:07.730',-0.66
'0:07.734',-0.44
'0:07.738',-0.52
'0:07.742',-0.79
'0:07.746',-0.87
'0:07.750',-0.99
'0:07.754',-1.18
'0:07.758',-1.4
'0:07.762',-1.51
'0:07.766',-1.46
'0:07.770',-1.59
'0:07.773',-2.22
'0:07.777',-2.95
'0:07.781',-3.74
'0:07.785',-4.04
'0:07.789',-3.83
'0:07.793',-3.77
'0:07.797',-3.95
'0:07.801',-4.2
'0:07.805',-4.31
'0:07.809',-4.34
'0:07.813',-4.19
'0:07.816',-4.18
'0:07.820',-4.22
'0:07.824',-4.08
'0:07.828',-3.48
'0:07.832',-2.45
'0:07.836',-0.64
'0:07.840',1.55
'0:07.844',3.61
'0:07.848',5.39
'0:07.852',5.89
'0:07.855',3
'0:07.859',-2.69
'0:07.863',-7.97
'0:07.867',-11.68
'0:07.871',-13.42
'0:07.875',-13.27
'0:07.879',-11.75
'0:07.883',-9.55
'0:07.887',-7.08
'0:07.891',-4.86
'0:07.895',-3.34
'0:07.898',-2.4
'0:07.902',-1.27
'0:07.906',-0.45
'0:07.910',0.05
'0:07.914',0.41
'0:07.918',0.43
'0:07.922',0.39
'0:07.926',0.71
'0:07.930',0.87
'0:07.934',1.06
'0:07.938',1.36
'0:07.941',1.63
'0:07.945',2.26
'0:07.949',2.72
'0:07.953',2.64
'0:07.957',2.24
'0:07.961',2.19
'0:07.965',2.75
'0:07.969',3.49
'0:07.973',3.93
'0:07.977',4.27
'0:07.980',4.68
'0:07.984',5.33
'0:07.988',6.03
'0:07.992',6.24
'0:07.996',6.21
'0:08.000',6.45
'0:08.004',6.46
'0:08.008',6.29
'0:08.012',5.85
'0:08.016',5.14
'0:08.020',4.27
'0:08.023',3.48
'0:08.027',2.99
'0:08.031',2.76
'0:08.035',2.67
'0:08.039',2.38
'0:08.043',1.65
'0:08.047',0.89
'0:08.051',0.43
'0:08.055',0.3
'0:08.059',0.2
'0:08.063',0.18
'0:08.066',0.22
'0:08.070',0.27
'0:08.074',-0.22
'0:08.078',-0.5
'0:08.082',-0.58
'0:08.086',-0.58
'0:08.090',-0.69
'0:08.094',-0.82
'0:08.098',-0.96
'0:08.102',-1.47
'0:08.105',-2.11
'0:08.109',-2.36
'0:08.113',-2.5
'0:08.117',-2.48
'0:08.121',-2.58
'0:08.125',-2.77
'0:08.129',-2.86
'0:08.133',-2.98
'0:08.137',-3.13
'0:08.141',-3.4
'0:08.145',-3.59
'0:08.148',-3.51
'0:08.152',-2.94
'0:08.156',-1.65
'0:08.160',0.03
'0:08.164',1.7
'0:08.168',3.37
'0:08.172',4.7
'0:08.176',5.73
'0:08.180',4.73
'0:08.184',0.24
'0:08.188',-5.33
'0:08.191',-9.74
'0:08.195',-12.5
'0:08.199',-13.43
'0:08.203',-12.68
'0:08.207',-10.7
'0:08.211',-8.03
'0:08.215',-5.19
'0:08.219',-2.77
'0:08.223',-1.25
'0:08.227',-0.22
'0:08.230',0.38
'0:08.234',0.76
'0:08.238',1.24
'0:08.242',1.55
'0:08.246',1.5
'0:08.250',1.37
'0:08.254',1.46
'0:08.258',1.54
'0:08.262',1.64
'0:08.266',1.66
'0:08.270',1.81
'0:08.273',2.28
'0:08.277',2.28
'0:08.281',2.27
'0:08.285',2.38
'0:08.289',2.53
'0:08.293',2.75
'0:08.297',3.03
'0:08.301',3.49
'0:08.305',4.09
'0:08.309',4.65
'0:08.313',5.14
'0:08.316',5.73
'0:08.320',6.15
'0:08.324',6.63
'0:08.328',7.01
'0:08.332',7.21
'0:08.336',6.98
'0:08.340',6.44
'0:08.344',5.77
'0:08.348',4.69
'0:08.352',3.85
'0:08.355',3.23
'0:08.359',2.49
'0:08.363',1.84
'0:08.367',1.15
'0:08.371',0.75
'0:08.375',0.57
'0:08.379',0.68
'0:08.383',0.7
'0:08.387',0.49
'0:08.391',0.53
'0:08.395',0.79
'0:08.398',0.98
'0:08.402',1.05
'0:08.406',0.77
'0:08.410',0.52
'0:08.414',0.24
'0:08.418',-0.04
'0:08.422',-0.46
'0:08.426',-0.85
'0:08.430',-1.38
'0:08.434',-1.9
'0:08.438',-2.36
'0:08.441',-2.86
'0:08.445',-2.88
'0:08.449',-2.65
'0:08.453',-2.67
'0:08.457',-2.93
'0:08.461',-3.12
'0:08.465',-3.01
'0:08.469',-2.91
'0:08.473',-2.92
'0:08.477',-2.97
'0:08.480',-2.63
'0:08.484',-1.62
'0:08.488',-0.04
'0:08.492',2.27
'0:08.496',4.97
'0:08.500',7
'0:08.504',7.49
'0:08.508',4.26
'0:08.512',-1.9
'0:08.516',-7.64
'0:08.520',-11.31
'0:08.523',-13.12
'0:08.527',-13.38
'0:08.531',-11.91
'0:08.535',-9.34
'0:08.539',-6.57
'0:08.543',-4.29
'0:08.547',-2.49
'0:08.551',-1.16
'0:08.555',-0.27
'0:08.559',0.39
'0:08.563',0.76
'0:08.566',0.95
'0:08.570',0.94
'0:08.574',1.19
'0:08.578',1.48
'0:08.582',1.64
'0:08.586',1.55
'0:08.590',1.77
'0:08.594',1.89
'0:08.598',1.78
'0:08.602',1.87
'0:08.605',2.11
'0:08.609',2.27
'0:08.613',2.35
'0:08.617',2.74
'0:08.621',2.88
'0:08.625',2.98
'0:08.629',3.16
'0:08.633',3.59
'0:08.637',4.03
'0:08.641',4.52
'0:08.645',4.96
'0:08.648',5.22
'0:08.652',5.58
'0:08.656',5.91
'0:08.660',5.72
'0:08.664',5.31
'0:08.668',4.58
'0:08.672',3.76
'0:08.676',2.9
'0:08.680',1.99
'0:08.684',1.12
'0:08.688',0.38
'0:08.691',-0.12
'0:08.695',-0.51
'0:08.699',-0.89
'0:08.703',-0.63
'0:08.707',-0.18
'0:08.711',0.02
'0:08.715',0.17
'0:08.719',0.41
'0:08.723',0.58
'0:08.727',0.83
'0:08.730',0.67
'0:08.734',0.4
'0:08.738',0.26
'0:08.742',0.21
'0:08.746',-0.09
'0:08.750',-0.65
'0:08.754',-1.4
'0:08.758',-2.11
'0:08.762',-2.52
'0:08.766',-2.74
'0:08.770',-2.84
'0:08.773',-3.03
'0:08.777',-3.46
'0:08.781',-3.76
'0:08.785',-3.71
'0:08.789',-3.49
'0:08.793',-3.54
'0:08.797',-3.73
'0:08.801',-3.8
'0:08.805',-3.2
'0:08.809',-2.42
'0:08.813',-1.19
'0:08.816',0.9
'0:08.820',3.18
'0:08.824',4.81
'0:08.828',6.42
'0:08.832',6.41
'0:08.836',1.91
'0:08.840',-4.47
'0:08.844',-9.55
'0:08.848',-12.73
'0:08.852',-13.98
'0:08.855',-13.53
'0:08.859',-11.91
'0:08.863',-9.7
'0:08.867',-7.42
'0:08.871',-5.46
'0:08.875',-3.74
'0:08.879',-2.27
'0:08.883',-1.48
'0:08.887',-1.17
'0:08.891',-0.92
'0:08.895',-0.79
'0:08.898',-0.57
'0:08.902',0.02
'0:08.906',0.7
'0:08.910',1
'0:08.914',0.61
'0:08.918',0.14
'0:08.922',-0.16
'0:08.926',-0.15
'0:08.930',-0.02
'0:08.934',0.01
'0:08.938',-0.06
'0:08.941',-0.11
'0:08.945',0.04
'0:08.949',0.3
'0:08.953',0.78
'0:08.957',1.47
'0:08.961',2.15
'0:08.965',2.82
'0:08.969',3.51
'0:08.973',4.22
'0:08.977',4.71
'0:08.980',4.92
'0:08.984',4.86
'0:08.988',4.55
'0:08.992',3.98
'0:08.996',3.25
'0:09.000',2.63
'0:09.004',2.33
'0:09.008',2.13
'0:09.012',1.89
'0:09.016',1.64
'0:09.020',1.39
'0:09.023',1.09
'0:09.027',0.89
'0:09.031',0.72
'0:09.035',0.59
'0:09.039',0.59
'0:09.043',0.61
'0:09.047',0.47
'0:09.051',0.46
'0:09.055',0.45
'0:09.059',0.35
'0:09.063',0.16
'0:09.066',-0.06
'0:09.070',-0.05
'0:09.074',0.12
'0:09.078',-0.02
'0:09.082',-0.63
'0:09.086',-1.1
'0:09.090',-1.48
'0:09.094',-1.68
'0:09.098',-1.49
'0:09.102',-1.44
'0:09.105',-1.79
'0:09.109',-1.96
'0:09.113',-2.13
'0:09.117',-2.26
'0:09.121',-2.59
'0:09.125',-2.92
'0:09.129',-2.63
'0:09.133',-2
'0:09.137',-0.98
'0:09.141',0.65
'0:09.145',2.76
'0:09.148',4.91
'0:09.152',6.56
'0:09.156',7.93
'0:09.160',8.23
'0:09.164',5.2
'0:09.168',0.02
'0:09.172',-4.73
'0:09.176',-7.92
'0:09.180',-9.77
'0:09.184',-10.22
'0:09.188',-9.02
'0:09.191',-6.82
'0:09.195',-4.55
'0:09.199',-2.5
'0:09.203',-0.84
'0:09.207',0.3
'0:09.211',1.02
'0:09.215',1.6
'0:09.219',2.01
'0:09.223',2.29
'0:09.227',2.32
'0:09.230',2.3
'0:09.234',2.18
'0:09.238',2.01
'0:09.242',1.95
'0:09.246',2.18
'0:09.250',2.45
'0:09.254',2.69
'0:09.258',2.88
'0:09.262',2.72
'0:09.266',2.63
'0:09.270',2.75
'0:09.273',3.01
'0:09.277',3.37
'0:09.281',3.74
'0:09.285',4.12
'0:09.289',4.78
'0:09.293',5.34
'0:09.297',5.74
'0:09.301',5.94
'0:09.305',6.27
'0:09.309',6.5
'0:09.313',6.64
'0:09.316',6.35
'0:09.320',5.76
'0:09.324',4.93
'0:09.328',4.17
'0:09.332',3.38
'0:09.336',2.78
'0:09.340',2.22
'0:09.344',1.45
'0:09.348',0.71
'0:09.352',0.24
'0:09.355',-0.1
'0:09.359',-0.26
'0:09.363',-0.22
'0:09.367',-0.18
'0:09.371',-0.14
'0:09.375',-0.28
'0:09.379',-0.61
'0:09.383',-0.94
'0:09.387',-1.04
'0:09.391',-0.99
'0:09.395',-0.95
'0:09.398',-0.96
'0:09.402',-1.17
'0:09.406',-1.59
'0:09.410',-1.89
'0:09.414',-2.31
'0:09.418',-2.96
'0:09.422',-3.51
'0:09.426',-3.7
'0:09.430',-3.7
'0:09.434',-3.78
'0:09.438',-4
'0:09.441',-4.19
'0:09.445',-4.07
'0:09.449',-3.83
'0:09.453',-3.87
'0:09.457',-4.28
'0:09.461',-4.53
'0:09.465',-4.11
'0:09.469',-2.91
'0:09.473',-0.99
'0:09.477',1.21
'0:09.480',3
'0:09.484',4.47
'0:09.488',5.32
'0:09.492',3.14
'0:09.496',-2.6
'0:09.500',-8.34
'0:09.504',-12.22
'0:09.508',-14.06
'0:09.512',-14.31
'0:09.516',-13.24
'0:09.520',-11.07
'0:09.523',-8.49
'0:09.527',-6.07
'0:09.531',-3.98
'0:09.535',-2.49
'0:09.539',-1.33
'0:09.543',-0.47
'0:09.547',0.25
'0:09.551',0.67
'0:09.555',1.05
'0:09.559',0.89
'0:09.563',0.76
'0:09.566',0.9
'0:09.570',1.07
'0:09.574',1.2
'0:09.578',1.54
'0:09.582',1.94
'0:09.586',2.03
'0:09.590',2.13
'0:09.594',2.81
'0:09.598',3.03
'0:09.602',3.06
'0:09.605',3.3
'0:09.609',3.67
'0:09.613',4.05
'0:09.617',4.72
'0:09.621',5.53
'0:09.625',6.28
'0:09.629',6.92
'0:09.633',7.23
'0:09.637',7.42
'0:09.641',7.41
'0:09.645',7.12
'0:09.648',6.7
'0:09.652',5.82
'0:09.656',4.84
'0:09.660',4.24
'0:09.664',3.78
'0:09.668',2.62
'0:09.672',1.34
'0:09.676',0.61
'0:09.680',0.37
'0:09.684',0.38
'0:09.688',0.18
'0:09.691',-0.13
'0:09.695',-0.26
'0:09.699',-0.21
'0:09.703',-0.33
'0:09.707',-0.22
'0:09.711',0.13
'0:09.715',0.3
'0:09.719',0.25
'0:09.723',0.27
'0:09.727',0.05
'0:09.730',-0.56
'0:09.734',-1.1
'0:09.738',-1.4
'0:09.742',-1.82
'0:09.746',-2.41
'0:09.750',-2.89
'0:09.754',-2.95
'0:09.758',-3.02
'0:09.762',-3.13
'0:09.766',-3.26
'0:09.770',-3.24
'0:09.773',-3.19
'0:09.777',-3.11
'0:09.781',-2.97
'0:09.785',-2.92
'0:09.789',-2.88
'0:09.793',-2.29
'0:09.797',-1.04
'0:09.801',0.82
'0:09.805',2.66
'0:09.809',4.01
'0:09.813',5.22
'0:09.816',5.03
'0:09.820',0.93
'0:09.824',-4.66
'0:09.828',-9.11
'0:09.832',-12.1
'0:09.836',-13.5
'0:09.840',-13.33
'0:09.844',-11.57
'0:09.848',-8.91
'0:09.852',-6.64
'0:09.855',-4.85
'0:09.859',-3.07
'0:09.863',-1.54
'0:09.867',-0.59
'0:09.871',-0.08
'0:09.875',0.35
'0:09.879',0.53
'0:09.883',0.57
'0:09.887',0.74
'0:09.891',0.99
'0:09.895',1.06
'0:09.898',0.95
'0:09.902',1.13
'0:09.906',1.38
'0:09.910',1.78
'0:09.914',2.13
'0:09.918',2.4
'0:09.922',2.46
'0:09.926',2.42
'0:09.930',2.53
'0:09.934',2.75
'0:09.938',3.17
'0:09.941',3.85
'0:09.945',4.45
'0:09.949',4.59
'0:09.953',4.69
'0:09.957',5.06
'0:09.961',5.38
'0:09.965',5.51
'0:09.969',5.37
'0:09.973',5.39
'0:09.977',5.32
'0:09.980',4.78
'0:09.984',3.97
'0:09.988',3.06
'0:09.992',2.32
'0:09.996',1.66
'0:10.000',0.78
'0:10.004',0.02
'0:10.008',-0.14
'0:10.012',0.12
'0:10.016',0.66
'0:10.020',1.02
'0:10.023',1.03
'0:10.027',1.05
'0:10.031',0.9
'0:10.035',1.12
'0:10.039',1.11
'0:10.043',0.99
'0:10.047',0.81
'0:10.051',0.65
'0:10.055',0.14
'0:10.059',-0.16
'0:10.063',-0.21
'0:10.066',-0.47
'0:10.070',-0.92
'0:10.074',-1.72
'0:10.078',-2.07
'0:10.082',-2.14
'0:10.086',-2.83
'0:10.090',-3.18
'0:10.094',-3.15
'0:10.098',-2.91
'0:10.102',-2.71
'0:10.105',-2.66
'0:10.109',-2.69
'0:10.113',-2.93
'0:10.117',-3.05
'0:10.121',-3.04
'0:10.125',-3.04
'0:10.129',-3.04
'0:10.133',-3.04
'0:10.137',5.48
'0:10.141',6.8
'0:10.145',6.06
'0:10.148',1.48
'0:10.152',-4.32
'0:10.156',-8.96
'0:10.160',-11.77
'0:10.164',-12.83
'0:10.168',-12.3
'0:10.172',-10.4
'0:10.176',-7.79
'0:10.180',-5.46
'0:10.184',-3.69
'0:10.188',-2.27
'0:10.191',-1.26
'0:10.195',-0.46
'0:10.199',0.09
'0:10.203',0.22
'0:10.207',0.29
'0:10.211',0.55
'0:10.215',0.84
'0:10.219',1.09
'0:10.223',1.05
'0:10.227',1.13
'0:10.230',1.61
'0:10.234',1.93
'0:10.238',2.1
'0:10.242',2.16
'0:10.246',2.32
'0:10.250',2.51
'0:10.254',2.59
'0:10.258',2.58
'0:10.262',2.86
'0:10.266',3.15
'0:10.270',3.83
'0:10.273',4.26
'0:10.277',4.54
'0:10.281',4.96
'0:10.285',5.47
'0:10.289',5.93
'0:10.293',6.21
'0:10.297',6.11
'0:10.301',5.65
'0:10.305',4.88
'0:10.309',4.1
'0:10.313',3.49
'0:10.316',2.86
'0:10.320',2.21
'0:10.324',1.61
'0:10.328',1.26
'0:10.332',1.17
'0:10.336',1.17
'0:10.340',1.17
'0:10.344',0.06
'0:10.348',-0.2
'0:10.352',-0.36
'0:10.355',-0.48
'0:10.359',-0.54
'0:10.363',-0.27
'0:10.367',-0.07
'0:10.371',0.01
'0:10.375',-0.11
'0:10.379',-0.23
'0:10.383',-0.35
'0:10.387',-0.5
'0:10.391',-0.87
'0:10.395',-1.52
'0:10.398',-2.2
'0:10.402',-2.69
'0:10.406',-2.9
'0:10.410',-2.87
'0:10.414',-2.91
'0:10.418',-3.13
'0:10.422',-3.34
'0:10.426',-3.44
'0:10.430',-3.34
'0:10.434',-3.34
'0:10.438',-3.66
'0:10.441',-3.96
'0:10.445',-3.44
'0:10.449',-2.44
'0:10.453',-1.1
'0:10.457',0.28
'0:10.461',2.04
'0:10.465',3.65
'0:10.469',4.77
'0:10.473',4.74
'0:10.477',1.01
'0:10.480',-4.65
'0:10.484',-9.27
'0:10.488',-12.56
'0:10.492',-14.09
'0:10.496',-13.78
'0:10.500',-11.77
'0:10.504',-9.03
'0:10.508',-6.45
'0:10.512',-4.3
'0:10.516',-2.47
'0:10.520',-1.46
'0:10.523',-0.48
'0:10.527',0.34
'0:10.531',0.75
'0:10.535',0.9
'0:10.539',1.37
'0:10.543',1.6
'0:10.547',1.7
'0:10.551',1.67
'0:10.555',1.38
'0:10.559',1.45
'0:10.563',1.71
'0:10.566',1.68
'0:10.570',1.62
'0:10.574',1.51
'0:10.578',1.74
'0:10.582',2.12
'0:10.586',2.6
'0:10.590',3.01
'0:10.594',3.35
'0:10.598',3.92
'0:10.602',4.54
'0:10.605',5.02
'0:10.609',5.65
'0:10.613',6.34
'0:10.617',6.76
'0:10.621',6.73
'0:10.625',6.43
'0:10.629',5.86
'0:10.633',5.13
'0:10.637',4.47
'0:10.641',3.93
'0:10.645',3.07
'0:10.648',2.14
'0:10.652',1.14
'0:10.656',0.41
'0:10.660',0.37
'0:10.664',0.31
'0:10.668',0.13
'0:10.672',0.13
'0:10.676',0.15
'0:10.680',0.04
'0:10.684',0.07
'0:10.688',0.27
'0:10.691',0.36
'0:10.695',0.23
'0:10.699',0.24
'0:10.703',0.55
'0:10.707',0.76
'0:10.711',0.42
'0:10.715',-0.23
'0:10.719',-1
'0:10.723',-1.65
'0:10.727',-2.03
'0:10.730',-2.35
'0:10.734',-2.63
'0:10.738',-2.6
'0:10.742',-2.53
'0:10.746',-2.36
'0:10.750',-2.33
'0:10.754',-2.48
'0:10.758',-2.48
'0:10.762',-2.45
'0:10.766',-2.62
'0:10.770',-2.66
'0:10.773',-1.94
'0:10.777',-0.61
'0:10.781',1.12
'0:10.785',3.21
'0:10.789',4.96
'0:10.793',5.94
'0:10.797',6.43
'0:10.801',4.37
'0:10.805',-1.05
'0:10.809',-6.48
'0:10.813',-10.29
'0:10.816',-12.22
'0:10.820',-12.83
'0:10.824',-11.88
'0:10.828',-9.42
'0:10.832',-6.52
'0:10.836',-4.04
'0:10.840',-2.1
'0:10.844',-0.29
'0:10.848',1.08
'0:10.852',1.92
'0:10.855',2.49
'0:10.859',2.75
'0:10.863',2.8
'0:10.867',2.53
'0:10.871',2.46
'0:10.875',2.76
'0:10.879',3.11
'0:10.883',3.3
'0:10.887',3.38
'0:10.891',3.69
'0:10.895',3.83
'0:10.898',3.66
'0:10.902',3.85
'0:10.906',4.01
'0:10.910',4.32
'0:10.914',4.84
'0:10.918',5.27
'0:10.922',5.55
'0:10.926',5.83
'0:10.930',6.25
'0:10.934',6.52
'0:10.938',6.79
'0:10.941',7.15
'0:10.945',7.32
'0:10.949',7.26
'0:10.953',7.11
'0:10.957',6.54
'0:10.961',5.6
'0:10.965',4.6
'0:10.969',3.78
'0:10.973',3.08
'0:10.977',2.23
'0:10.980',1.56
'0:10.984',0.77
'0:10.988',0.08
'0:10.992',-0.33
'0:10.996',-0.54
'0:11.000',-0.9
'0:11.004',-0.86
'0:11.008',-0.78
'0:11.012',-0.8
'0:11.016',-0.68
'0:11.020',-0.54
'0:11.023',-0.43
'0:11.027',-0.43
'0:11.031',-0.5
'0:11.035',-0.65
'0:11.039',-1.07
'0:11.043',-1.63
'0:11.047',-2.31
'0:11.051',-2.85
'0:11.055',-3.19
'0:11.059',-3.52
'0:11.063',-3.87
'0:11.066',-4.02
'0:11.070',-4.19
'0:11.074',-4.22
'0:11.078',-4.1
'0:11.082',-3.99
'0:11.086',-3.97
'0:11.090',-4.06
'0:11.094',-4.28
'0:11.098',-4.34
'0:11.102',-4.05
'0:11.105',-3.14
'0:11.109',-1.36
'0:11.113',0.89
'0:11.117',2.99
'0:11.121',4.71
'0:11.125',5.75
'0:11.129',4.05
'0:11.133',-1.51
'0:11.137',-7.54
'0:11.141',-12.01
'0:11.145',-14.61
'0:11.148',-15.37
'0:11.152',-14.27
'0:11.156',-12.46
'0:11.160',-9.03
'0:11.164',-6.77
'0:11.168',-4.97
'0:11.172',-3.57
'0:11.176',-2.6
'0:11.180',-1.68
'0:11.184',-1.13
'0:11.188',-0.99
'0:11.191',-1.14
'0:11.195',-1.24
'0:11.199',-1.03
'0:11.203',-0.63
'0:11.207',-0.28
'0:11.211',0
'0:11.215',0.22
'0:11.219',0.37
'0:11.223',0.58
'0:11.227',0.68
'0:11.230',0.92
'0:11.234',1.05
'0:11.238',1.17
'0:11.242',1.23
'0:11.246',1.33
'0:11.250',1.97
'0:11.254',2.91
'0:11.258',3.96
'0:11.262',4.8
'0:11.266',5.27
'0:11.270',5.62
'0:11.273',5.72
'0:11.277',5.92
'0:11.281',5.8
'0:11.285',5.38
'0:11.289',4.94
'0:11.293',4.48
'0:11.297',3.63
'0:11.301',2.51
'0:11.305',1.3
'0:11.309',0.07
'0:11.313',-0.47
'0:11.316',-0.49
'0:11.320',-0.2
'0:11.324',0.23
'0:11.328',0.67
'0:11.332',0.86
'0:11.336',0.95
'0:11.340',1.27
'0:11.344',1.58
'0:11.348',2.13
'0:11.352',2.22
'0:11.355',1.97
'0:11.359',1.45
'0:11.363',0.67
'0:11.367',-0.02
'0:11.371',-0.13
'0:11.375',-0.23
'0:11.379',-0.54
'0:11.383',-1.11
'0:11.387',-2.08
'0:11.391',-2.46
'0:11.395',-2.46
'0:11.398',-2.25
'0:11.402',-2.14
'0:11.406',-2.02
'0:11.410',-1.95
'0:11.414',-2.15
'0:11.418',-2.35
'0:11.422',-2.3
'0:11.426',-1.9
'0:11.430',-1.1
'0:11.434',0.07
'0:11.438',1.57
'0:11.441',3.27
'0:11.445',4.66
'0:11.449',5.72
'0:11.453',5.63
'0:11.457',2.32
'0:11.461',-3.11
'0:11.465',-7.92
'0:11.469',-11.06
'0:11.473',-12.61
'0:11.477',-12.48
'0:11.480',-10.83
'0:11.484',-8.42
'0:11.488',-6.1
'0:11.492',-4.16
'0:11.496',-2.57
'0:11.500',-1.36
'0:11.504',-0.69
'0:11.508',-0.29
'0:11.512',0.27
'0:11.516',0.63
'0:11.520',0.75
'0:11.523',0.79
'0:11.527',0.78
'0:11.531',0.79
'0:11.535',0.92
'0:11.539',1.24
'0:11.543',1.63
'0:11.547',1.62
'0:11.551',1.49
'0:11.555',1.74
'0:11.559',2.02
'0:11.563',2.09
'0:11.566',2.29
'0:11.570',2.46
'0:11.574',2.86
'0:11.578',3.58
'0:11.582',4.13
'0:11.586',4.55
'0:11.590',5.05
'0:11.594',5.56
'0:11.598',5.96
'0:11.602',6.14
'0:11.605',6.24
'0:11.609',5.87
'0:11.613',5.17
'0:11.617',4.23
'0:11.621',3.3
'0:11.625',2.45
'0:11.629',1.85
'0:11.633',1.44
'0:11.637',0.91
'0:11.641',0.34
'0:11.645',-0.09
'0:11.648',-0.61
'0:11.652',-0.82
'0:11.656',-0.5
'0:11.660',-0.13
'0:11.664',0.15
'0:11.668',0.34
'0:11.672',0.53
'0:11.676',0.65
'0:11.680',0.73
'0:11.684',0.64
'0:11.688',0.47
'0:11.691',0.31
'0:11.695',0.21
'0:11.699',0.09
'0:11.703',-0.19
'0:11.707',-0.77
'0:11.711',-1.25
'0:11.715',-1.48
'0:11.719',-1.81
'0:11.723',-2.05
'0:11.727',-2.42
'0:11.730',-2.67
'0:11.734',-2.55
'0:11.738',-2.68
'0:11.742',-2.69
'0:11.746',-2.2
'0:11.750',-2.1
'0:11.754',-2.14
'0:11.758',-1.85
'0:11.762',-0.9
'0:11.766',0.64
'0:11.770',2.37
'0:11.773',4.39
'0:11.777',6.07
'0:11.781',7.2
'0:11.785',5.52
'0:11.789',-0.41
'0:11.793',-6.51
'0:11.797',-10.57
'0:11.801',-12.61
'0:11.805',-13.03
'0:11.809',-11.98
'0:11.813',-9.7
'0:11.816',-6.72
'0:11.820',-3.83
'0:11.824',-1.63
'0:11.828',-0.36
'0:11.832',0.17
'0:11.836',0.22
'0:11.840',1.05
'0:11.844',1.71
'0:11.848',2.12
'0:11.852',2.2
'0:11.855',2.11
'0:11.859',2.13
'0:11.863',2.33
'0:11.867',2.69
'0:11.871',3.02
'0:11.875',3
'0:11.879',2.91
'0:11.883',2.6
'0:11.887',2.44
'0:11.891',2.82
'0:11.895',3.23
'0:11.898',3.51
'0:11.902',4.03
'0:11.906',4.66
'0:11.910',5.34
'0:11.914',6
'0:11.918',6.56
'0:11.922',6.96
'0:11.926',7.22
'0:11.930',7.1
'0:11.934',6.79
'0:11.938',6.4
'0:11.941',5.89
'0:11.945',5.27
'0:11.949',4.45
'0:11.953',3.41
'0:11.957',2.29
'0:11.961',1.33
'0:11.965',0.61
'0:11.969',0.14
'0:11.973',-0.22
'0:11.977',-0.54
'0:11.980',-0.63
'0:11.984',-0.54
'0:11.988',-0.22
'0:11.992',-0.02
'0:11.996',-0.03
'0:12.000',-0.16
'0:12.004',-0.26
'0:12.008',-0.42
'0:12.012',-0.62
'0:12.016',-0.87
'0:12.020',-1.27
'0:12.023',-1.62
'0:12.027',-1.84
'0:12.031',-2.17
'0:12.035',-2.68
'0:12.039',-3.24
'0:12.043',-3.71
'0:12.047',-3.99
'0:12.051',-4.02
'0:12.055',-3.94
'0:12.059',-3.88
'0:12.063',-3.73
'0:12.066',-3.72
'0:12.070',-3.82
'0:12.074',-4.19
'0:12.078',-4.59
'0:12.082',-4.85
'0:12.086',-4.25
'0:12.090',-2.79
'0:12.094',-0.72
'0:12.098',1.44
'0:12.102',3.28
'0:12.105',4.78
'0:12.109',4.68
'0:12.113',0.62
'0:12.117',-5.44
'0:12.121',-10.49
'0:12.125',-13.93
'0:12.129',-15.51
'0:12.133',-14.95
'0:12.137',-12.47
'0:12.141',-9.77
'0:12.145',-7.41
'0:12.148',-5.78
'0:12.152',-4.38
'0:12.156',-3.02
'0:12.160',-2.03
'0:12.164',-1.25
'0:12.168',-0.91
'0:12.172',-0.59
'0:12.176',-0.44
'0:12.180',-0.22
'0:12.184',0.2
'0:12.188',0.8
'0:12.191',1.1
'0:12.195',0.94
'0:12.199',0.79
'0:12.203',0.81
'0:12.207',1.06
'0:12.211',1.35
'0:12.215',1.49
'0:12.219',1.38
'0:12.223',1.08
'0:12.227',1.1
'0:12.230',1.47
'0:12.234',2.33
'0:12.238',3.21
'0:12.242',4.06
'0:12.246',4.95
'0:12.250',5.45
'0:12.254',5.49
'0:12.258',5.51
'0:12.262',5.53
'0:12.266',5.68
'0:12.270',5.47
'0:12.273',4.76
'0:12.277',3.88
'0:12.281',3.1
'0:12.285',2.51
'0:12.289',1.95
'0:12.293',1.15
'0:12.297',0.84
'0:12.301',0.85
'0:12.305',0.76
'0:12.309',0.65
'0:12.313',0.29
'0:12.316',0.29
'0:12.320',0.65
'0:12.324',0.85
'0:12.328',1.12
'0:12.332',1.24
'0:12.336',0.96
'0:12.340',0.41
'0:12.344',-0.24
'0:12.348',-0.37
'0:12.352',-0.3
'0:12.355',-0.66
'0:12.359',-1.19
'0:12.363',-1.97
'0:12.367',-2.68
'0:12.371',-3.13
'0:12.375',-3.17
'0:12.379',-3.02
'0:12.383',-3.16
'0:12.387',-3.35
'0:12.391',-3.46
'0:12.395',-3.68
'0:12.398',-3.82
'0:12.402',-3.65
'0:12.406',-3.41
'0:12.410',-2.99
'0:12.414',-2.04
'0:12.418',-0.5
'0:12.422',1.3
'0:12.426',3.01
'0:12.430',4.35
'0:12.434',5.51
'0:12.438',5.87
'0:12.441',3
'0:12.445',-2.26
'0:12.449',-7.04
'0:12.453',-10.35
'0:12.457',-11.86
'0:12.461',-11.63
'0:12.465',-10
'0:12.469',-7.53
'0:12.473',-4.96
'0:12.477',-2.68
'0:12.480',-0.96
'0:12.484',0.23
'0:12.488',1.01
'0:12.492',1.66
'0:12.496',2.15
'0:12.500',2.29
'0:12.504',2.27
'0:12.508',2.55
'0:12.512',2.9
'0:12.516',3.03
'0:12.520',2.82
'0:12.523',2.75
'0:12.527',2.78
'0:12.531',2.85
'0:12.535',3.02
'0:12.539',3.03
'0:12.543',3.14
'0:12.547',3.38
'0:12.551',3.73
'0:12.555',3.87
'0:12.559',4.31
'0:12.563',5.14
'0:12.566',5.69
'0:12.570',6.06
'0:12.574',6.42
'0:12.578',6.74
'0:12.582',6.71
'0:12.586',6.66
'0:12.590',6.38
'0:12.594',6
'0:12.598',5.48
'0:12.602',4.64
'0:12.605',3.61
'0:12.609',2.6
'0:12.613',1.81
'0:12.617',1.22
'0:12.621',0.49
'0:12.625',0.01
'0:12.629',-0.17
'0:12.633',-0.42
'0:12.637',-0.41
'0:12.641',-0.38
'0:12.645',-0.16
'0:12.648',0.14
'0:12.652',0.2
'0:12.656',0.01
'0:12.660',-0.08
'0:12.664',-0.12
'0:12.668',-0.12
'0:12.672',-0.12
'0:12.676',-0.37
'0:12.680',-0.67
'0:12.684',-1.01
'0:12.688',-1.44
'0:12.691',-1.95
'0:12.695',-2.56
'0:12.699',-3.1
'0:12.703',-3.4
'0:12.707',-3.62
'0:12.711',-3.8
'0:12.715',-3.9
'0:12.719',-3.9
'0:12.723',-3.71
'0:12.727',-3.65
'0:12.730',-3.63
'0:12.734',-3.62
'0:12.738',-3.82
'0:12.742',-3.49
'0:12.746',-2.17
'0:12.750',-0.6
'0:12.754',1.11
'0:12.758',2.98
'0:12.762',4.72
'0:12.766',6.03
'0:12.770',5.34
'0:12.773',0.34
'0:12.777',-5.96
'0:12.781',-10.6
'0:12.785',-13.13
'0:12.789',-13.91
'0:12.793',-13.03
'0:12.797',-10.82
'0:12.801',-8.05
'0:12.805',-5.54
'0:12.809',-3.25
'0:12.813',-1.51
'0:12.816',-0.38
'0:12.820',0.44
'0:12.824',1.2
'0:12.828',1.67
'0:12.832',2.04
'0:12.836',2.06
'0:12.840',2.05
'0:12.844',2.15
'0:12.848',2.34
'0:12.852',2.41
'0:12.855',2.46
'0:12.859',2.24
'0:12.863',2.12
'0:12.867',2.4
'0:12.871',2.73
'0:12.875',2.82
'0:12.879',2.81
'0:12.883',3.05
'0:12.887',3.82
'0:12.891',4.29
'0:12.895',5
'0:12.898',5.3
'0:12.902',5.76
'0:12.906',6.41
'0:12.910',6.62
'0:12.914',6.81
'0:12.918',6.78
'0:12.922',6.71
'0:12.926',6.14
'0:12.930',5.46
'0:12.934',4.81
'0:12.938',3.82
'0:12.941',2.91
'0:12.945',2.1
'0:12.949',1.42
'0:12.953',0.97
'0:12.957',0.25
'0:12.961',-0.32
'0:12.965',-0.64
'0:12.969',-0.63
'0:12.973',-0.17
'0:12.977',0.25
'0:12.980',0.4
'0:12.984',0.47
'0:12.988',0.4
'0:12.992',0.39
'0:12.996',0.61
'0:13.000',0.67
'0:13.004',0.29
'0:13.008',-0.41
'0:13.012',-1.05
'0:13.016',-1.43
'0:13.020',-1.46
'0:13.023',-1.5
'0:13.027',-2.09
'0:13.031',-2.8
'0:13.035',-3.3
'0:13.039',-3.59
'0:13.043',-3.53
'0:13.047',-3.55
'0:13.051',-3.53
'0:13.055',-3.53
'0:13.059',-3.49
'0:13.063',-3.36
'0:13.066',-3.34
'0:13.070',-2.73
'0:13.074',-1.41
'0:13.078',0.56
'0:13.082',2.71
'0:13.086',4.31
'0:13.090',5.47
'0:13.094',5.34
'0:13.098',1.26
'0:13.102',-5.07
'0:13.105',-10.2
'0:13.109',-13.24
'0:13.113',-14.54
'0:13.117',-14.3
'0:13.121',-12.63
'0:13.125',-10.16
'0:13.129',-7.55
'0:13.133',-5.1
'0:13.137',-2.97
'0:13.141',-1.36
'0:13.145',-0.32
'0:13.148',0.19
'0:13.152',0.28
'0:13.156',0.47
'0:13.160',0.73
'0:13.164',0.85
'0:13.168',0.88
'0:13.172',0.97
'0:13.176',1.16
'0:13.180',1.27
'0:13.184',1.27
'0:13.188',1.34
'0:13.191',1.51
'0:13.195',1.8
'0:13.199',2.04
'0:13.203',2.06
'0:13.207',1.86
'0:13.211',1.92
'0:13.215',2.19
'0:13.219',2.67
'0:13.223',3.32
'0:13.227',3.81
'0:13.230',4.31
'0:13.234',4.75
'0:13.238',4.96
'0:13.242',5.07
'0:13.246',5.12
'0:13.250',4.94
'0:13.254',4.44
'0:13.258',3.83
'0:13.262',3.13
'0:13.266',2.28
'0:13.270',1.52
'0:13.273',0.85
'0:13.277',0.13
'0:13.281',-0.34
'0:13.285',-0.6
'0:13.289',-0.73
'0:13.293',-0.71
'0:13.297',-0.61
'0:13.301',-0.42
'0:13.305',-0.29
'0:13.309',-0.17
'0:13.313',0.08
'0:13.316',0.3
'0:13.320',0.45
'0:13.324',0.51
'0:13.328',0.28
'0:13.332',0.06
'0:13.336',-0.13
'0:13.340',-0.35
'0:13.344',-0.75
'0:13.348',-1.34
'0:13.352',-1.88
'0:13.355',-2.13
'0:13.359',-2.09
'0:13.363',-2.09
'0:13.367',-2.16
'0:13.371',-2.26
'0:13.375',-2.38
'0:13.379',-2.52
'0:13.383',-2.46
'0:13.387',-2.25
'0:13.391',-2.12
'0:13.395',-2.07
'0:13.398',-1.52
'0:13.402',-0.15
'0:13.406',1.64
'0:13.410',3.74
'0:13.414',5.76
'0:13.418',7.4
'0:13.422',8.33
'0:13.426',6.19
'0:13.430',0.85
'0:13.434',-4.8
'0:13.438',-9.18
'0:13.441',-11.79
'0:13.445',-12.39
'0:13.449',-11.03
'0:13.453',-8.83
'0:13.457',-6.37
'0:13.461',-4.26
'0:13.465',-2.6
'0:13.469',-1.52
'0:13.473',-0.66
'0:13.477',0.02
'0:13.480',0.31
'0:13.484',0.56
'0:13.488',0.86
'0:13.492',0.88
'0:13.496',0.97
'0:13.500',1.19
'0:13.504',1.35
'0:13.508',1.55
'0:13.512',1.89
'0:13.516',2.16
'0:13.520',2.36
'0:13.523',2.47
'0:13.527',2.67
'0:13.531',3
'0:13.535',3.26
'0:13.539',3.29
'0:13.543',3.29
'0:13.547',3.79
'0:13.551',4.41
'0:13.555',4.96
'0:13.559',5.46
'0:13.563',5.74
'0:13.566',6.2
'0:13.570',6.59
'0:13.574',6.57
'0:13.578',6.42
'0:13.582',6
'0:13.586',5.4
'0:13.590',4.68
'0:13.594',3.91
'0:13.598',3.22
'0:13.602',2.51
'0:13.605',1.9
'0:13.609',1.41
'0:13.613',1.06
'0:13.617',0.87
'0:13.621',0.78
'0:13.625',0.79
'0:13.629',0.78
'0:13.633',0.78
'0:13.637',0.5
'0:13.641',0.4
'0:13.645',0.31
'0:13.648',0.27
'0:13.652',0.07
'0:13.656',-0.28
'0:13.660',-0.56
'0:13.664',-0.68
'0:13.668',-0.67
'0:13.672',-1.09
'0:13.676',-1.82
'0:13.680',-2.46
'0:13.684',-3.09
'0:13.688',-3.46
'0:13.691',-3.55
'0:13.695',-3.59
'0:13.699',-3.74
'0:13.703',-3.86
'0:13.707',-3.73
'0:13.711',-3.44
'0:13.715',-3.59
'0:13.719',-3.94
'0:13.723',-4.05
'0:13.727',-3.54
'0:13.730',-2.38
'0:13.734',-0.8
'0:13.738',0.9
'0:13.742',2.46
'0:13.746',3.88
'0:13.750',4.31
'0:13.754',1.44
'0:13.758',-4.03
'0:13.762',-9.28
'0:13.766',-12.9
'0:13.770',-14.5
'0:13.773',-14.42
'0:13.777',-12.74
'0:13.781',-10.2
'0:13.785',-7.59
'0:13.789',-5.19
'0:13.793',-3.27
'0:13.797',-1.75
'0:13.801',-0.96
'0:13.805',-0.45
'0:13.809',0.09
'0:13.813',0.43
'0:13.816',0.61
'0:13.820',0.82
'0:13.824',1.16
'0:13.828',1.12
'0:13.832',1.45
'0:13.836',1.59
'0:13.840',1.75
'0:13.844',1.95
'0:13.848',1.98
'0:13.852',2.02
'0:13.855',2.25
'0:13.859',2.57
'0:13.863',2.89
'0:13.867',3.21
'0:13.871',3.62
'0:13.875',4.01
'0:13.879',4.85
'0:13.883',5.82
'0:13.887',6.35
'0:13.891',6.64
'0:13.895',6.8
'0:13.898',7.13
'0:13.902',7.38
'0:13.906',6.97
'0:13.910',6.24
'0:13.914',5.42
'0:13.918',4.47
'0:13.922',3.74
'0:13.926',2.79
'0:13.930',1.86
'0:13.934',1.15
'0:13.938',0.4
'0:13.941',-0.31
'0:13.945',-0.54
'0:13.949',-0.36
'0:13.953',-0.08
'0:13.957',0.3
'0:13.961',0.58
'0:13.965',0.64
'0:13.969',0.52
'0:13.973',0.26
'0:13.977',-0.07
'0:13.980',-0.31
'0:13.984',-0.34
'0:13.988',-0.4
'0:13.992',-0.78
'0:13.996',-1.13
'0:14.000',-1.52
'0:14.004',-1.96
'0:14.008',-2.39
'0:14.012',-2.69
'0:14.016',-2.89
'0:14.020',-3.03
'0:14.023',-3.21
'0:14.027',-3.29
'0:14.031',-3.36
'0:14.035',-3.21
'0:14.039',-3.36
'0:14.043',-3.24
'0:14.047',-3.18
'0:14.051',-3.05
'0:14.055',-2.34
'0:14.059',-1.05
'0:14.063',0.76
'0:14.066',2.55
'0:14.070',4.1
'0:14.074',5.71
'0:14.078',5.64
'0:14.082',1.56
'0:14.086',-4.44
'0:14.090',-9.54
'0:14.094',-12.59
'0:14.098',-13.49
'0:14.102',-12.5
'0:14.105',-10.33
'0:14.109',-7.78
'0:14.113',-5.06
'0:14.117',-2.72
'0:14.121',-1.11
'0:14.125',-0.01
'0:14.129',0.75
'0:14.133',1.39
'0:14.137',2.17
'0:14.141',2.38
'0:14.145',2.08
'0:14.148',2
'0:14.152',2.28
'0:14.156',2.76
'0:14.160',3.24
'0:14.164',3.36
'0:14.168',3.34
'0:14.172',3.57
'0:14.176',4.1
'0:14.180',4.71
'0:14.184',4.85
'0:14.188',4.92
'0:14.191',5.2
'0:14.195',5.43
'0:14.199',5.6
'0:14.203',5.98
'0:14.207',6.66
'0:14.211',7.28
'0:14.215',7.72
'0:14.219',7.85
'0:14.223',7.99
'0:14.227',7.84
'0:14.230',7.42
'0:14.234',6.99
'0:14.238',6.45
'0:14.242',5.94
'0:14.246',5.42
'0:14.250',4.37
'0:14.254',3.22
'0:14.258',2.23
'0:14.262',1.65
'0:14.266',1.05
'0:14.270',0.44
'0:14.273',0.2
'0:14.277',0.23
'0:14.281',0.11
'0:14.285',-0.18
'0:14.289',-0.62
'0:14.293',-0.8
'0:14.297',-0.38
'0:14.301',0.13
'0:14.305',0.46
'0:14.309',0.45
'0:14.313',0.09
'0:14.316',-0.34
'0:14.320',-0.92
'0:14.324',-1.69
'0:14.328',-2.6
'0:14.332',-3.25
'0:14.336',-3.55
'0:14.340',-3.79
'0:14.344',-4.22
'0:14.348',-4.5
'0:14.352',-4.65
'0:14.355',-4.75
'0:14.359',-4.75
'0:14.363',-4.77
'0:14.367',-4.93
'0:14.371',-5.24
'0:14.375',-5.55
'0:14.379',-5.42
'0:14.383',-4.47
'0:14.387',-2.81
'0:14.391',-0.5
'0:14.395',1.88
'0:14.398',3.86
'0:14.402',5.39
'0:14.406',5.05
'0:14.410',0.61
'0:14.414',-5.38
'0:14.418',-10.49
'0:14.422',-13.8
'0:14.426',-15.03
'0:14.430',-14.44
'0:14.434',-12.48
'0:14.438',-9.95
'0:14.441',-7.32
'0:14.445',-4.99
'0:14.449',-3.35
'0:14.453',-2.41
'0:14.457',-1.77
'0:14.461',-1.16
'0:14.465',-0.72
'0:14.469',-0.28
'0:14.473',0.09
'0:14.477',0.2
'0:14.480',0.18
'0:14.484',0.13
'0:14.488',0.1
'0:14.492',0.13
'0:14.496',0.2
'0:14.500',0.38
'0:14.504',0.82
'0:14.508',0.86
'0:14.512',0.46
'0:14.516',0.2
'0:14.520',0.45
'0:14.523',1.29
'0:14.527',2.36
'0:14.531',3.32
'0:14.535',4.03
'0:14.539',4.63
'0:14.543',4.9
'0:14.547',5.08
'0:14.551',5.36
'0:14.555',5.42
'0:14.559',5.11
'0:14.563',4.73
'0:14.566',4.16
'0:14.570',3.53
'0:14.574',2.82
'0:14.578',1.91
'0:14.582',0.83
'0:14.586',-0.3
'0:14.590',-0.75
'0:14.594',-0.71
'0:14.598',-0.59
'0:14.602',-0.48
'0:14.605',-0.28
'0:14.609',0.21
'0:14.613',0.6
'0:14.617',0.71
'0:14.621',0.2
'0:14.625',-0.21
'0:14.629',-0.12
'0:14.633',0.02
'0:14.637',-0.04
'0:14.641',-0.33
'0:14.645',-0.34
'0:14.648',-0.36
'0:14.652',-0.62
'0:14.656',-1.22
'0:14.660',-1.7
'0:14.664',-2.21
'0:14.668',-2.85
'0:14.672',-2.99
'0:14.676',-3.09
'0:14.680',-2.98
'0:14.684',-2.75
'0:14.688',-2.49
'0:14.691',-2.16
'0:14.695',-2.33
'0:14.699',-2.81
'0:14.703',-3.17
'0:14.707',-2.92
'0:14.711',-2.01
'0:14.715',-0.52
'0:14.719',1.51
'0:14.723',3.54
'0:14.727',5.06
'0:14.730',6.14
'0:14.734',5.71
'0:14.738',1.92
'0:14.742',-3.24
'0:14.746',-7.66
'0:14.750',-10.73
'0:14.754',-12.04
'0:14.758',-11.3
'0:14.762',-9.41
'0:14.766',-7.04
'0:14.770',-4.67
'0:14.773',-2.63
'0:14.777',-1.21
'0:14.781',-0.27
'0:14.785',0.27
'0:14.789',0.6
'0:14.793',1.01
'0:14.797',1.36
'0:14.801',1.57
'0:14.805',1.93
'0:14.809',2.08
'0:14.813',1.92
'0:14.816',1.64
'0:14.820',1.55
'0:14.824',1.7
'0:14.828',1.81
'0:14.832',2
'0:14.836',2.23
'0:14.840',2.46
'0:14.844',2.81
'0:14.848',3.16
'0:14.852',3.46
'0:14.855',3.56
'0:14.859',3.66
'0:14.863',4.2
'0:14.867',4.9
'0:14.871',5.26
'0:14.875',5.47
'0:14.879',5.76
'0:14.883',5.99
'0:14.887',5.89
'0:14.891',5.5
'0:14.895',4.74
'0:14.898',3.74
'0:14.902',2.96
'0:14.906',2.34
'0:14.910',1.67
'0:14.914',0.97
'0:14.918',0.45
'0:14.922',0.06
'0:14.926',-0.36
'0:14.930',-0.56
'0:14.934',-0.6
'0:14.938',-0.37
'0:14.941',0.02
'0:14.945',0.27
'0:14.949',0.26
'0:14.953',0.25
'0:14.957',0.28
'0:14.961',0.23
'0:14.965',-0.14
'0:14.969',-0.57
'0:14.973',-1.05
'0:14.977',-1.24
'0:14.980',-1.21
'0:14.984',-1.35
'0:14.988',-1.54
'0:14.992',-2.04
'0:14.996',-2.61
'0:15.000',-2.85
'0:15.004',-2.71
'0:15.008',-2.74
'0:15.012',-3.04
'0:15.016',-3.07
'0:15.020',-3.06
'0:15.023',-2.9
'0:15.027',-2.91
'0:15.031',-3.15
'0:15.035',-3.08
'0:15.039',-2.5
'0:15.043',-1.38
'0:15.047',0.66
'0:15.051',3.09
'0:15.055',5.2
'0:15.059',6.85
'0:15.063',7.56
'0:15.066',4.79
'0:15.070',-1.24
'0:15.074',-7.08
'0:15.078',-11.31
'0:15.082',-13.42
'0:15.086',-13.41
'0:15.090',-11.83
'0:15.094',-9.18
'0:15.098',-6.3
'0:15.102',-3.8
'0:15.105',-1.79
'0:15.109',-0.47
'0:15.113',0.37
'0:15.117',1.21
'0:15.121',1.98
'0:15.125',2.33
'0:15.129',2.49
'0:15.133',2.77
'0:15.137',2.97
'0:15.141',3.25
'0:15.145',3.43
'0:15.148',3.23
'0:15.152',3.06
'0:15.156',2.93
'0:15.160',3.02
'0:15.164',3.12
'0:15.168',2.96
'0:15.172',3.16
'0:15.176',3.35
'0:15.180',3.72
'0:15.184',4.32
'0:15.188',5.1
'0:15.191',5.81
'0:15.195',6.44
'0:15.199',6.91
'0:15.203',7.23
'0:15.207',7.56
'0:15.211',7.8
'0:15.215',7.67
'0:15.219',7.13
'0:15.223',6.71
'0:15.227',6.19
'0:15.230',5.26
'0:15.234',4.04
'0:15.238',2.98
'0:15.242',2.22
'0:15.246',1.46
'0:15.250',1.01
'0:15.254',0.72
'0:15.258',0.54
'0:15.262',0.34
'0:15.266',0.18
'0:15.270',0.38
'0:15.273',0.73
'0:15.277',0.83
'0:15.281',0.88
'0:15.285',1.14
'0:15.289',1.13
'0:15.293',0.85
'0:15.297',0.17
'0:15.301',-0.47
'0:15.305',-0.91
'0:15.309',-1.16
'0:15.313',-1.61
'0:15.316',-2.15
'0:15.320',-2.66
'0:15.324',-3.01
'0:15.328',-3.18
'0:15.332',-3.36
'0:15.336',-3.41
'0:15.340',-3.64
'0:15.344',-3.56
'0:15.348',-3.67
'0:15.352',-3.8
'0:15.355',-3.98
'0:15.359',-3.95
'0:15.363',-3.58
'0:15.367',-2.4
'0:15.371',-0.65
'0:15.375',1.28
'0:15.379',3.07
'0:15.383',4.43
'0:15.387',4.44
'0:15.391',4.44
'0:15.395',4.44
'0:15.398',-7.55
'0:15.402',-11.59
'0:15.406',-13.94
'0:15.410',-14.73
'0:15.414',-13.55
'0:15.418',-11.38
'0:15.422',-9.15
'0:15.426',-7.15
'0:15.430',-5.17
'0:15.434',-3.76
'0:15.438',-2.57
'0:15.441',-1.7
'0:15.445',-1.13
'0:15.449',-0.77
'0:15.453',-0.68
'0:15.457',-0.24
'0:15.461',0.21
'0:15.465',0.74
'0:15.469',0.98
'0:15.473',1
'0:15.477',1.35
'0:15.480',1.68
'0:15.484',1.8
'0:15.488',1.81
'0:15.492',1.97
'0:15.496',2.27
'0:15.500',2.88
'0:15.504',3.08
'0:15.508',2.84
'0:15.512',2.61
'0:15.516',3.16
'0:15.520',4.15
'0:15.523',4.98
'0:15.527',5.45
'0:15.531',5.79
'0:15.535',6.04
'0:15.539',6.02
'0:15.543',5.7
'0:15.547',5.66
'0:15.551',4.98
'0:15.555',4.31
'0:15.559',3.52
'0:15.563',2.95
'0:15.566',2.25
'0:15.570',1.35
'0:15.574',0.56
'0:15.578',0.13
'0:15.582',-0.11
'0:15.586',-0.26
'0:15.590',-0.44
'0:15.594',-0.69
'0:15.598',-1.01
'0:15.602',-0.95
'0:15.605',-0.68
'0:15.609',-0.47
'0:15.613',-0.33
'0:15.617',-0.13
'0:15.621',-0.21
'0:15.625',-0.66
'0:15.629',-1.1
'0:15.633',-1.82
'0:15.637',-2.44
'0:15.641',-2.89
'0:15.645',-3.08
'0:15.648',-3.11
'0:15.652',-3.51
'0:15.656',-4.19
'0:15.660',-4.6
'0:15.664',-4.47
'0:15.668',-4.08
'0:15.672',-3.92
'0:15.676',-3.92
'0:15.680',-3.87
'0:15.684',-3.96
'0:15.688',-4.32
'0:15.691',-4.18
'0:15.695',-3.27
'0:15.699',-1.66
'0:15.703',0.58
'0:15.707',3.09
'0:15.711',5
'0:15.715',5.98
'0:15.719',4.81
'0:15.723',0.09
'0:15.727',-5.53
'0:15.730',-10.22
'0:15.734',-13.06
'0:15.738',-14.02
'0:15.742',-13.2
'0:15.746',-11.02
'0:15.750',-8.34
'0:15.754',-5.79
'0:15.758',-3.71
'0:15.762',-2.37
'0:15.766',-1.53
'0:15.770',-0.92
'0:15.773',-0.4
'0:15.777',0
'0:15.781',0.19
'0:15.785',0.37
'0:15.789',0.68
'0:15.793',0.95
'0:15.797',1.14
'0:15.801',1.39
'0:15.805',1.72
'0:15.809',2.23
'0:15.813',2.65
'0:15.816',2.71
'0:15.820',2.68
'0:15.824',2.73
'0:15.828',2.85
'0:15.832',2.95
'0:15.836',3.09
'0:15.840',3.42
'0:15.844',3.96
'0:15.848',4.49
'0:15.852',5.1
'0:15.855',5.88
'0:15.859',6.68
'0:15.863',7.16
'0:15.867',7.16
'0:15.871',7.06
'0:15.875',6.98
'0:15.879',6.75
'0:15.883',5.88
'0:15.887',4.85
'0:15.891',4.07
'0:15.895',3.52
'0:15.898',3.13
'0:15.902',2.63
'0:15.906',2.15
'0:15.910',1.89
'0:15.914',1.74
'0:15.918',1.55
'0:15.922',1.53
'0:15.926',1.7
'0:15.930',1.62
'0:15.934',1.45
'0:15.938',1.13
'0:15.941',1.12
'0:15.945',1.2
'0:15.949',0.8
'0:15.953',0.59
'0:15.957',0.56
'0:15.961',0.34
'0:15.965',-0.05
'0:15.969',-0.68
'0:15.973',-1.25
'0:15.977',-1.71
'0:15.980',-1.99
'0:15.984',-1.97
'0:15.988',-2.11
'0:15.992',-2.46
'0:15.996',-2.65
'0:16.000',-2.47
'0:16.004',-2.17
'0:16.008',-1.76
'0:16.012',-1.72
'0:16.016',-2.05
'0:16.020',-2.03
'0:16.023',-1.55
'0:16.027',-0.5
'0:16.031',1.16
'0:16.035',2.92
'0:16.039',4.54
'0:16.043',5.8
'0:16.047',4.92
'0:16.051',0.63
'0:16.055',-4.55
'0:16.059',-8.84
'0:16.063',-11.67
'0:16.066',-12.73
'0:16.070',-11.85
'0:16.074',-9.62
'0:16.078',-6.89
'0:16.082',-4.56
'0:16.086',-2.86
'0:16.090',-1.61
'0:16.094',-0.58
'0:16.098',0.2
'0:16.102',0.6
'0:16.105',0.82
'0:16.109',0.96
'0:16.113',1.26
'0:16.117',1.37
'0:16.121',1.37
'0:16.125',1.37
'0:16.129',1.42
'0:16.133',1.63
'0:16.137',1.78
'0:16.141',1.76
'0:16.145',1.9
'0:16.148',2.26
'0:16.152',2.56
'0:16.156',2.7
'0:16.160',3
'0:16.164',3.29
'0:16.168',3.62
'0:16.172',4.03
'0:16.176',4.64
'0:16.180',5.2
'0:16.184',5.65
'0:16.188',5.92
'0:16.191',6.09
'0:16.195',5.98
'0:16.199',5.62
'0:16.203',5.02
'0:16.207',4.25
'0:16.211',3.25
'0:16.215',2.35
'0:16.219',1.45
'0:16.223',0.52
'0:16.227',-0.28
'0:16.230',-0.91
'0:16.234',-1.27
'0:16.238',-1.45
'0:16.242',-1.59
'0:16.246',-1.45
'0:16.250',-1.17
'0:16.254',-1
'0:16.258',-1.04
'0:16.262',-1.16
'0:16.266',-1.21
'0:16.270',-1.22
'0:16.273',-1.31
'0:16.277',-1.32
'0:16.281',-1.48
'0:16.285',-1.32
'0:16.289',-1.63
'0:16.293',-2.22
'0:16.297',-2.62
'0:16.301',-2.96
'0:16.305',-3.46
'0:16.309',-4.03
'0:16.313',-4.22
'0:16.316',-4.38
'0:16.320',-4.59
'0:16.324',-4.56
'0:16.328',-4.13
'0:16.332',-3.82
'0:16.336',-3.89
'0:16.340',-4.11
'0:16.344',-4.21
'0:16.348',-3.98
'0:16.352',-3.15
'0:16.355',-1.67
'0:16.359',0.1
'0:16.363',2.28
'0:16.367',4.42
'0:16.371',5.99
'0:16.375',6.1
'0:16.379',2.69
'0:16.383',-3.21
'0:16.387',-8.45
'0:16.391',-11.64
'0:16.395',-13.01
'0:16.398',-12.8
'0:16.402',-11.14
'0:16.406',-8.68
'0:16.410',-6.18
'0:16.414',-3.77
'0:16.418',-1.57
'0:16.422',0.04
'0:16.426',0.79
'0:16.430',1.14
'0:16.434',1.22
'0:16.438',1.26
'0:16.441',1.41
'0:16.445',1.77
'0:16.449',1.97
'0:16.453',2.03
'0:16.457',2.26
'0:16.461',2.9
'0:16.465',3.45
'0:16.469',3.19
'0:16.473',2.4
'0:16.477',1.96
'0:16.480',2.19
'0:16.484',2.76
'0:16.488',3.29
'0:16.492',3.74
'0:16.496',4.46
'0:16.500',5.13
'0:16.504',5.78
'0:16.508',6.1
'0:16.512',6.28
'0:16.516',6.71
'0:16.520',7.01
'0:16.523',7.04
'0:16.527',6.86
'0:16.531',6.31
'0:16.535',5.54
'0:16.539',4.68
'0:16.543',4.02
'0:16.547',3.46
'0:16.551',2.64
'0:16.555',1.89
'0:16.559',1.47
'0:16.563',0.95
'0:16.566',0.62
'0:16.570',0.22
'0:16.574',-0.18
'0:16.578',-0.17
'0:16.582',0.26
'0:16.586',0.8
'0:16.590',0.92
'0:16.594',0.77
'0:16.598',0.64
'0:16.602',0.84
'0:16.605',0.99
'0:16.609',0.84
'0:16.613',0.51
'0:16.617',0.11
'0:16.621',-0.15
'0:16.625',-0.87
'0:16.629',-1.7
'0:16.633',-2.21
'0:16.637',-2.45
'0:16.641',-2.46
'0:16.645',-2.41
'0:16.648',-2.29
'0:16.652',-2.31
'0:16.656',-1.97
'0:16.660',-1.45
'0:16.664',-1.2
'0:16.668',-1.37
'0:16.672',-2.07
'0:16.676',-2.22
'0:16.680',-1.34
'0:16.684',0.4
'0:16.688',2.64
'0:16.691',4.6
'0:16.695',5.99
'0:16.699',6.86
'0:16.703',5.27
'0:16.707',-0.41
'0:16.711',-6.3
'0:16.715',-10.16
'0:16.719',-12.25
'0:16.723',-12.81
'0:16.727',-11.78
'0:16.730',-10.21
'0:16.734',-8.03
'0:16.738',-5.32
'0:16.742',-2.89
'0:16.746',-1.35
'0:16.750',-0.5
'0:16.754',0.41
'0:16.758',1.18
'0:16.762',1.59
'0:16.766',1.8
'0:16.770',1.8
'0:16.773',1.71
'0:16.777',1.62
'0:16.781',1.26
'0:16.785',1.31
'0:16.789',1.75
'0:16.793',2.19
'0:16.797',2.6
'0:16.801',3.09
'0:16.805',3.22
'0:16.809',3.13
'0:16.813',3.31
'0:16.816',3.49
'0:16.820',3.68
'0:16.824',3.87
'0:16.828',4.08
'0:16.832',4.85
'0:16.836',5.99
'0:16.840',6.72
'0:16.844',7.01
'0:16.848',6.89
'0:16.852',6.52
'0:16.855',6.01
'0:16.859',5.26
'0:16.863',4.46
'0:16.867',3.62
'0:16.871',2.66
'0:16.875',1.73
'0:16.879',0.95
'0:16.883',0.41
'0:16.887',-0.23
'0:16.891',-0.74
'0:16.895',-0.92
'0:16.898',-0.99
'0:16.902',-0.94
'0:16.906',-0.96
'0:16.910',-1
'0:16.914',-0.79
'0:16.918',-0.52
'0:16.922',-0.46
'0:16.926',-0.48
'0:16.930',-0.41
'0:16.934',-0.29
'0:16.938',-0.35
'0:16.941',-0.55
'0:16.945',-1.07
'0:16.949',-1.59
'0:16.953',-2.02
'0:16.957',-2.56
'0:16.961',-3.03
'0:16.965',-3.35
'0:16.969',-3.47
'0:16.973',-3.57
'0:16.977',-3.69
'0:16.980',-3.91
'0:16.984',-4.16
'0:16.988',-4.33
'0:16.992',-4.24
'0:16.996',-4.33
'0:17.000',-4.46
'0:17.004',-4.37
'0:17.008',-3.56
'0:17.012',-2.01
'0:17.016',0.18
'0:17.020',2.58
'0:17.023',4.68
'0:17.027',6.15
'0:17.031',5.82
'0:17.035',1.1
'0:17.039',-5.3
'0:17.043',-10.37
'0:17.047',-13.38
'0:17.051',-14.74
'0:17.055',-14.51
'0:17.059',-12.73
'0:17.063',-10.07
'0:17.066',-7.21
'0:17.070',-4.8
'0:17.074',-3.17
'0:17.078',-2.21
'0:17.082',-1.66
'0:17.086',-1.07
'0:17.090',-0.36
'0:17.094',0.24
'0:17.098',0.56
'0:17.102',0.47
'0:17.105',0.42
'0:17.109',0.58
'0:17.113',0.66
'0:17.117',0.29
'0:17.121',0.02
'0:17.125',0.31
'0:17.129',0.63
'0:17.133',0.79
'0:17.137',0.97
'0:17.141',1.33
'0:17.145',1.58
'0:17.148',1.65
'0:17.152',1.94
'0:17.156',2.5
'0:17.160',3.06
'0:17.164',4.11
'0:17.168',5.29
'0:17.172',6.04
'0:17.176',6.22
'0:17.180',5.98
'0:17.184',6.17
'0:17.188',6.12
'0:17.191',5.87
'0:17.195',5.03
'0:17.199',3.68
'0:17.203',2.69
'0:17.207',2.02
'0:17.211',1.41
'0:17.215',0.94
'0:17.219',0.56
'0:17.223',0.42
'0:17.227',0.54
'0:17.230',0.65
'0:17.234',0.78
'0:17.238',0.96
'0:17.242',0.89
'0:17.246',0.64
'0:17.250',0.38
'0:17.254',0.21
'0:17.258',0.01
'0:17.262',0.06
'0:17.266',0.32
'0:17.270',0.23
'0:17.273',-0.55
'0:17.277',-1.2
'0:17.281',-1.81
'0:17.285',-2.16
'0:17.289',-2.29
'0:17.293',-2.26
'0:17.297',-2.35
'0:17.301',-2.6
'0:17.305',-2.91
'0:17.309',-3.46
'0:17.313',-3.82
'0:17.316',-3.78
'0:17.320',-3.28
'0:17.324',-2.71
'0:17.328',-2.72
'0:17.332',-2.67
'0:17.336',-2
'0:17.340',-0.72
'0:17.344',0.93
'0:17.348',2.58
'0:17.352',4.15
'0:17.355',5.5
'0:17.359',5.19
'0:17.363',1.29
'0:17.367',-3.99
'0:17.371',-8.57
'0:17.375',-11.81
'0:17.379',-13.13
'0:17.383',-12.53
'0:17.387',-10.47
'0:17.391',-7.56
'0:17.395',-4.85
'0:17.398',-2.7
'0:17.402',-1.26
'0:17.406',-0.33
'0:17.410',0.47
'0:17.414',1.04
'0:17.418',1.27
'0:17.422',1.25
'0:17.426',1.34
'0:17.430',1.52
'0:17.434',1.61
'0:17.438',1.78
'0:17.441',1.9
'0:17.445',1.88
'0:17.449',1.73
'0:17.453',1.71
'0:17.457',1.9
'0:17.461',2.02
'0:17.465',2.03
'0:17.469',2.24
'0:17.473',2.71
'0:17.477',3.21
'0:17.480',3.79
'0:17.484',4.26
'0:17.488',4.79
'0:17.492',5.38
'0:17.496',5.86
'0:17.500',6.3
'0:17.504',6.76
'0:17.508',6.97
'0:17.512',6.72
'0:17.516',6.32
'0:17.520',6.01
'0:17.523',5.43
'0:17.527',4.47
'0:17.531',3.47
'0:17.535',2.8
'0:17.539',2.24
'0:17.543',1.7
'0:17.547',1.05
'0:17.551',0.32
'0:17.555',-0.06
'0:17.559',-0.21
'0:17.563',-0.07
'0:17.566',0.24
'0:17.570',0.29
'0:17.574',0.13
'0:17.578',0.06
'0:17.582',0.2
'0:17.586',0.06
'0:17.590',-0.26
'0:17.594',-0.43
'0:17.598',-0.39
'0:17.602',-0.38
'0:17.605',-0.74
'0:17.609',-1.37
'0:17.613',-2
'0:17.617',-2.78
'0:17.621',-3.45
'0:17.625',-3.69
'0:17.629',-3.89
'0:17.633',-3.67
'0:17.637',-3.26
'0:17.641',-3.31
'0:17.645',-3.57
'0:17.648',-3.77
'0:17.652',-3.71
'0:17.656',-3.7
'0:17.660',-3.5
'0:17.664',-2.71
'0:17.668',-1.73
'0:17.672',-0.1
'0:17.676',2.16
'0:17.680',4.4
'0:17.684',6.29
'0:17.688',7.16
'0:17.691',4.49
'0:17.695',-1.62
'0:17.699',-7.58
'0:17.703',-11.69
'0:17.707',-13.84
'0:17.711',-14.25
'0:17.715',-14.25
'0:17.719',-8.57
'0:17.723',-5.72
'0:17.727',-3.47
'0:17.730',-2.14
'0:17.734',-1.12
'0:17.738',-0.24
'0:17.742',0.59
'0:17.746',1.16
'0:17.750',1.37
'0:17.754',1.46
'0:17.758',1.61
'0:17.762',1.45
'0:17.766',1.29
'0:17.770',1.67
'0:17.773',2.16
'0:17.777',2.3
'0:17.781',2.29
'0:17.785',2.41
'0:17.789',2.73
'0:17.793',3.18
'0:17.797',3.33
'0:17.801',3.22
'0:17.805',3.29
'0:17.809',3.93
'0:17.813',4.92
'0:17.816',5.75
'0:17.820',6.14
'0:17.824',6.35
'0:17.828',6.74
'0:17.832',7.18
'0:17.836',7.2
'0:17.840',6.93
'0:17.844',6.43
'0:17.848',5.98
'0:17.852',5.14
'0:17.855',4.33
'0:17.859',3.32
'0:17.863',2.39
'0:17.867',1.59
'0:17.871',1.06
'0:17.875',0.7
'0:17.879',0.21
'0:17.883',0.08
'0:17.887',0.03
'0:17.891',0.13
'0:17.895',0.18
'0:17.898',0.15
'0:17.902',0.24
'0:17.906',0.35
'0:17.910',0.4
'0:17.914',0.21
'0:17.918',-0.11
'0:17.922',-0.33
'0:17.926',-0.72
'0:17.930',-0.98
'0:17.934',-1.16
'0:17.938',-1.66
'0:17.941',-2.29
'0:17.945',-2.67
'0:17.949',-2.61
'0:17.953',-2.8
'0:17.957',-3.18
'0:17.961',-3.52
'0:17.965',-3.65
'0:17.969',-3.01
'0:17.973',-2.68
'0:17.977',-2.76
'0:17.980',-3.04
'0:17.984',-2.84
'0:17.988',-1.92
'0:17.992',-0.29
'0:17.996',1.7
'0:18.000',3.82
'0:18.004',5.4
'0:18.008',6.7
'0:18.012',6.97
'0:18.016',3.98
'0:18.020',-2.29
'0:18.023',-8.05
'0:18.027',-11.94
'0:18.031',-13.68
'0:18.035',-13.3
'0:18.039',-11.22
'0:18.043',-8.53
'0:18.047',-5.82
'0:18.051',-3.51
'0:18.055',-2.08
'0:18.059',-0.78
'0:18.063',0.32
'0:18.066',1.09
'0:18.070',1.3
'0:18.074',1.24
'0:18.078',1.17
'0:18.082',0.91
'0:18.086',0.43
'0:18.090',0.14
'0:18.094',0.05
'0:18.098',0.46
'0:18.102',1.04
'0:18.105',1.69
'0:18.109',1.9
'0:18.113',2
'0:18.117',1.59
'0:18.121',1.37
'0:18.125',1.43
'0:18.129',1.63
'0:18.133',1.85
'0:18.137',1.88
'0:18.141',2.07
'0:18.145',2.57
'0:18.148',3.29
'0:18.152',4.12
'0:18.156',4.79
'0:18.160',5.17
'0:18.164',5.37
'0:18.168',5.27
'0:18.172',4.77
'0:18.176',3.9
'0:18.180',2.74
'0:18.184',1.52
'0:18.188',0.49
'0:18.191',-0.11
'0:18.195',-0.43
'0:18.199',-0.7
'0:18.203',-0.71
'0:18.207',-0.65
'0:18.211',-0.6
'0:18.215',-0.73
'0:18.219',-0.68
'0:18.223',-0.47
'0:18.227',-0.29
'0:18.230',-0.27
'0:18.234',-0.29
'0:18.238',-0.22
'0:18.242',-0.28
'0:18.246',-0.48
'0:18.250',-0.74
'0:18.254',-1.03
'0:18.258',-1.35
'0:18.262',-1.55
'0:18.266',-1.93
'0:18.270',-2.49
'0:18.273',-3.03
'0:18.277',-3.43
'0:18.281',-3.57
'0:18.285',-3.56
'0:18.289',-3.62
'0:18.293',-3.61
'0:18.297',-3.43
'0:18.301',-3.26
'0:18.305',-3.29
'0:18.309',-3.5
'0:18.313',-3.81
'0:18.316',-3.61
'0:18.320',-2.56
'0:18.324',-0.99
'0:18.328',0.79
'0:18.332',2.57
'0:18.336',4.39
'0:18.340',6.01
'0:18.344',6.03
'0:18.348',2.25
'0:18.352',-3.07
'0:18.355',-7.69
'0:18.359',-10.72
'0:18.363',-12.15
'0:18.367',-12.01
'0:18.371',-10.19
'0:18.375',-7.34
'0:18.379',-4.5
'0:18.383',-2.55
'0:18.387',-1.38
'0:18.391',-0.93
'0:18.395',-0.69
'0:18.398',-0.02
'0:18.402',1.09
'0:18.406',2.06
'0:18.410',2.6
'0:18.414',2.8
'0:18.418',2.74
'0:18.422',2.47
'0:18.426',2.36
'0:18.430',2.44
'0:18.434',2.72
'0:18.438',3.2
'0:18.441',3.39
'0:18.445',3.18
'0:18.449',2.83
'0:18.453',2.79
'0:18.457',2.75
'0:18.461',3.04
'0:18.465',3.71
'0:18.469',4.37
'0:18.473',4.8
'0:18.477',5.26
'0:18.480',5.79
'0:18.484',6.04
'0:18.488',6.61
'0:18.492',7.27
'0:18.496',7.41
'0:18.500',7.12
'0:18.504',6.55
'0:18.508',5.89
'0:18.512',5.07
'0:18.516',4.12
'0:18.520',3.31
'0:18.523',2.67
'0:18.527',2.16
'0:18.531',1.77
'0:18.535',1.74
'0:18.539',1.76
'0:18.543',1.75
'0:18.547',1.64
'0:18.551',1.49
'0:18.555',1.28
'0:18.559',0.86
'0:18.563',0.47
'0:18.566',0.37
'0:18.570',0.4
'0:18.574',0.3
'0:18.578',0.04
'0:18.582',-0.16
'0:18.586',-0.36
'0:18.590',-0.73
'0:18.594',-1.3
'0:18.598',-1.79
'0:18.602',-2.21
'0:18.605',-2.57
'0:18.609',-2.77
'0:18.613',-2.91
'0:18.617',-3.06
'0:18.621',-3.11
'0:18.625',-3.19
'0:18.629',-3.11
'0:18.633',-2.94
'0:18.637',-3.18
'0:18.641',-3.55
'0:18.645',-3.49
'0:18.648',-2.59
'0:18.652',-1.2
'0:18.656',0.42
'0:18.660',2.37
'0:18.664',4.01
'0:18.668',5.08
'0:18.672',4.22
'0:18.676',-0.36
'0:18.680',-6.11
'0:18.684',-10.52
'0:18.688',-13.06
'0:18.691',-14.04
'0:18.695',-13.47
'0:18.699',-11.45
'0:18.703',-8.83
'0:18.707',-6.07
'0:18.711',-3.68
'0:18.715',-2.01
'0:18.719',-1.01
'0:18.723',-0.45
'0:18.727',-0.17
'0:18.730',0.07
'0:18.734',0.22
'0:18.738',0.39
'0:18.742',0.72
'0:18.746',1.14
'0:18.750',1.41
'0:18.754',1.37
'0:18.758',1.11
'0:18.762',1.19
'0:18.766',1.5
'0:18.770',1.82
'0:18.773',1.76
'0:18.777',1.54
'0:18.781',1.42
'0:18.785',1.53
'0:18.789',2.33
'0:18.793',3.15
'0:18.797',3.88
'0:18.801',4.56
'0:18.805',5.35
'0:18.809',6.05
'0:18.813',6.39
'0:18.816',6.41
'0:18.820',6.44
'0:18.824',6.36
'0:18.828',6.3
'0:18.832',5.91
'0:18.836',5.15
'0:18.840',3.89
'0:18.844',2.68
'0:18.848',1.78
'0:18.852',0.99
'0:18.855',0.42
'0:18.859',0.11
'0:18.863',-0.32
'0:18.867',-0.6
'0:18.871',-0.42
'0:18.875',-0.09
'0:18.879',-0.04
'0:18.883',0
'0:18.887',0.24
'0:18.891',0.46
'0:18.895',0.47
'0:18.898',0.56
'0:18.902',0.75
'0:18.906',0.71
'0:18.910',0.49
'0:18.914',0.11
'0:18.918',-0.49
'0:18.922',-1.2
'0:18.926',-1.8
'0:18.930',-2.16
'0:18.934',-2.49
'0:18.938',-2.93
'0:18.941',-3.2
'0:18.945',-3.06
'0:18.949',-2.9
'0:18.953',-3.02
'0:18.957',-3.02
'0:18.961',-2.88
'0:18.965',-3.02
'0:18.969',-3.2
'0:18.973',-3
'0:18.977',-2.36
'0:18.980',-0.67
'0:18.984',1.58
'0:18.988',3.65
'0:18.992',4.95
'0:18.996',5.78
'0:19.000',4.67
'0:19.004',-0.5
'0:19.008',-6.38
'0:19.012',-10.89
'0:19.016',-13.59
'0:19.020',-14.37
'0:19.023',-13.55
'0:19.027',-11.39
'0:19.031',-8.55
'0:19.035',-5.74
'0:19.039',-3.39
'0:19.043',-1.43
'0:19.047',-0.31
'0:19.051',0.34
'0:19.055',0.86
'0:19.059',1.31
'0:19.063',1.54
'0:19.066',1.5
'0:19.070',1.58
'0:19.074',1.87
'0:19.078',2.14
'0:19.082',2.2
'0:19.086',2.12
'0:19.090',2.08
'0:19.094',2.03
'0:19.098',2.1
'0:19.102',2.22
'0:19.105',2.46
'0:19.109',2.89
'0:19.113',3.38
'0:19.117',3.73
'0:19.121',4.01
'0:19.125',4.41
'0:19.129',5.05
'0:19.133',5.51
'0:19.137',5.84
'0:19.141',6.11
'0:19.145',6.17
'0:19.148',6.1
'0:19.152',5.81
'0:19.156',5.36
'0:19.160',4.65
'0:19.164',3.9
'0:19.168',3.28
'0:19.172',2.72
'0:19.176',2.2
'0:19.180',1.65
'0:19.184',1.04
'0:19.188',0.67
'0:19.191',0.54
'0:19.195',0.53
'0:19.199',0.8
'0:19.203',1.1
'0:19.207',1.18
'0:19.211',0.91
'0:19.215',0.76
'0:19.219',0.77
'0:19.223',0.73
'0:19.227',0.61
'0:19.230',0.45
'0:19.234',0.44
'0:19.238',0.26
'0:19.242',-0.18
'0:19.246',-0.19
'0:19.250',-0.98
'0:19.254',-1.52
'0:19.258',-1.92
'0:19.262',-2.31
'0:19.266',-2.62
'0:19.270',-2.8
'0:19.273',-2.71
'0:19.277',-2.46
'0:19.281',-2.4
'0:19.285',-2.5
'0:19.289',-2.7
'0:19.293',-3.01
'0:19.297',-3.04
'0:19.301',-2.34
'0:19.305',-0.81
'0:19.309',1.01
'0:19.313',3.28
'0:19.316',5.32
'0:19.320',6.96
'0:19.324',7.73
'0:19.328',4.86
'0:19.332',-1.06
'0:19.336',-6.79
'0:19.340',-10.95
'0:19.344',-13.21
'0:19.348',-13.62
'0:19.352',-12.39
'0:19.355',-10.28
'0:19.359',-7.8
'0:19.363',-5.81
'0:19.367',-4.22
'0:19.371',-2.93
'0:19.375',-1.8
'0:19.379',-0.82
'0:19.383',-0.16
'0:19.387',0.05
'0:19.391',0.19
'0:19.395',0.6
'0:19.398',0.92
'0:19.402',1.1
'0:19.406',1.2
'0:19.410',1.18
'0:19.414',1.01
'0:19.418',0.81
'0:19.422',0.78
'0:19.426',0.73
'0:19.430',0.85
'0:19.434',1.21
'0:19.438',1.48
'0:19.441',1.66
'0:19.445',2.07
'0:19.449',2.75
'0:19.453',3.31
'0:19.457',3.91
'0:19.461',4.57
'0:19.465',5
'0:19.469',5.3
'0:19.473',5.49
'0:19.477',5.33
'0:19.480',4.96
'0:19.484',4.5
'0:19.488',4.02
'0:19.492',3.54
'0:19.496',2.99
'0:19.500',2.19
'0:19.504',1.36
'0:19.508',0.81
'0:19.512',0.57
'0:19.516',0.31
'0:19.520',-0.04
'0:19.523',-0.36
'0:19.527',-0.36
