'0:00.000',-3.17
'0:00.004',-3.21
'0:00.008',-3.36
'0:00.012',-3.59
'0:00.016',-3.92
'0:00.020',-3.98
'0:00.023',-3.46
'0:00.027',-2.12
'0:00.031',0.14
'0:00.035',2.95
'0:00.039',5.81
'0:00.043',8.33
'0:00.047',8.97
'0:00.051',5.25
'0:00.055',-0.92
'0:00.059',-6.66
'0:00.063',-10.74
'0:00.066',-12.5
'0:00.070',-12.03
'0:00.074',-10.24
'0:00.078',-7.99
'0:00.082',-5.83
'0:00.086',-4.04
'0:00.090',-2.62
'0:00.094',-1.55
'0:00.098',-0.8
'0:00.102',-0.29
'0:00.105',0.03
'0:00.109',0.22
'0:00.113',0.38
'0:00.117',0.49
'0:00.121',0.62
'0:00.125',0.7
'0:00.129',0.84
'0:00.133',1.1
'0:00.137',1.43
'0:00.141',1.6
'0:00.145',1.7
'0:00.148',1.87
'0:00.152',2.12
'0:00.156',2.33
'0:00.160',2.49
'0:00.164',2.65
'0:00.168',2.88
'0:00.172',3.32
'0:00.176',3.96
'0:00.180',4.62
'0:00.184',5
'0:00.188',5.41
'0:00.191',5.69
'0:00.195',5.82
'0:00.199',5.88
'0:00.203',5.86
'0:00.207',5.66
'0:00.211',5.2
'0:00.215',4.58
'0:00.219',3.78
'0:00.223',2.83
'0:00.227',1.96
'0:00.230',1.13
'0:00.234',0.5
'0:00.238',0.21
'0:00.242',0.07
'0:00.246',-0.08
'0:00.250',-0.33
'0:00.254',-0.57
'0:00.258',-0.74
'0:00.262',-0.87
'0:00.266',-0.74
'0:00.270',-0.64
'0:00.273',-0.55
'0:00.277',-0.35
'0:00.281',-0.08
'0:00.285',0.09
'0:00.289',0.18
'0:00.293',0.16
'0:00.297',0.15
'0:00.301',0.16
'0:00.305',0.18
'0:00.309',0.18
'0:00.313',0.04
'0:00.316',-0.21
'0:00.320',-0.62
'0:00.324',-1.04
'0:00.328',-1.41
'0:00.332',-1.84
'0:00.336',-2.32
'0:00.340',-2.68
'0:00.344',-2.82
'0:00.348',-2.8
'0:00.352',-2.75
'0:00.355',-2.8
'0:00.359',-2.85
'0:00.363',-2.84
'0:00.367',-2.82
'0:00.371',-2.84
'0:00.375',-3.09
'0:00.379',-3.52
'0:00.383',-3.37
'0:00.387',-2.52
'0:00.391',-1
'0:00.395',1.07
'0:00.398',3.42
'0:00.402',5.69
'0:00.406',7.5
'0:00.410',7.29
'0:00.414',3.38
'0:00.418',-2.27
'0:00.422',-7.25
'0:00.426',-10.64
'0:00.430',-11.99
'0:00.434',-11.43
'0:00.438',-9.67
'0:00.441',-7.39
'0:00.445',-5.11
'0:00.449',-3.31
'0:00.453',-2.06
'0:00.457',-1.24
'0:00.461',-0.62
'0:00.465',-0.07
'0:00.469',0.24
'0:00.473',0.34
'0:00.477',0.35
'0:00.480',0.53
'0:00.484',0.85
'0:00.488',1.14
'0:00.492',1.17
'0:00.496',1.14
'0:00.500',1.26
'0:00.504',1.48
'0:00.508',1.79
'0:00.512',2.06
'0:00.516',2.26
'0:00.520',2.63
'0:00.523',2.97
'0:00.527',3.32
'0:00.531',3.66
'0:00.535',3.97
'0:00.539',4.52
'0:00.543',5.24
'0:00.547',5.87
'0:00.551',6.14
'0:00.555',6.17
'0:00.559',6.26
'0:00.563',6.25
'0:00.566',5.98
'0:00.570',5.48
'0:00.574',4.71
'0:00.578',3.91
'0:00.582',2.95
'0:00.586',1.93
'0:00.590',0.96
'0:00.594',0.18
'0:00.598',-0.37
'0:00.602',-0.87
'0:00.605',-1.18
'0:00.609',-1.48
'0:00.613',-1.71
'0:00.617',-1.63
'0:00.621',-1.45
'0:00.625',-1.36
'0:00.629',-1.31
'0:00.633',-1.29
'0:00.637',-1.19
'0:00.641',-1.16
'0:00.645',-1.14
'0:00.648',-0.91
'0:00.652',-0.58
'0:00.656',-0.36
'0:00.660',-0.36
'0:00.664',-0.25
'0:00.668',0.03
'0:00.672',-0.03
'0:00.676',-0.33
'0:00.680',-0.81
'0:00.684',-1.31
'0:00.688',-1.75
'0:00.691',-1.98
'0:00.695',-2.31
'0:00.699',-2.87
'0:00.703',-3.31
'0:00.707',-3.59
'0:00.711',-3.76
'0:00.715',-3.79
'0:00.719',-3.55
'0:00.723',-3.29
'0:00.727',-3.16
'0:00.730',-3.16
'0:00.734',-3.25
'0:00.738',-3.4
'0:00.742',-3.54
'0:00.746',-3.48
'0:00.750',-2.86
'0:00.754',-1.3
'0:00.758',1.1
'0:00.762',3.67
'0:00.766',6
'0:00.770',7.64
'0:00.773',6.74
'0:00.777',1.41
'0:00.781',-5.05
'0:00.785',-9.88
'0:00.789',-12.63
'0:00.793',-13.2
'0:00.797',-11.96
'0:00.801',-9.59
'0:00.805',-7.14
'0:00.809',-5.07
'0:00.813',-3.25
'0:00.816',-1.63
'0:00.820',-0.4
'0:00.824',0.31
'0:00.828',0.77
'0:00.832',0.94
'0:00.836',1.22
'0:00.840',1.6
'0:00.844',1.71
'0:00.848',1.8
'0:00.852',1.97
'0:00.855',2.1
'0:00.859',2.21
'0:00.863',2.21
'0:00.867',2.26
'0:00.871',2.37
'0:00.875',2.53
'0:00.879',2.77
'0:00.883',3.04
'0:00.887',3.4
'0:00.891',4.02
'0:00.895',4.61
'0:00.898',4.97
'0:00.902',5.68
'0:00.906',6.45
'0:00.910',6.65
'0:00.914',6.72
'0:00.918',6.87
'0:00.922',6.76
'0:00.926',6.35
'0:00.930',5.83
'0:00.934',5.55
'0:00.938',5.09
'0:00.941',4.17
'0:00.945',3.06
'0:00.949',1.97
'0:00.953',1.16
'0:00.957',0.51
'0:00.961',-0.23
'0:00.965',-0.73
'0:00.969',-1.02
'0:00.973',-1.19
'0:00.977',-1.24
'0:00.980',-1.22
'0:00.984',-1.05
'0:00.988',-0.82
'0:00.992',-0.64
'0:00.996',-0.53
'0:01.000',-0.51
'0:01.004',-0.51
'0:01.008',-0.35
'0:01.012',-0.1
'0:01.016',0.05
'0:01.020',0.13
'0:01.023',0.25
'0:01.027',0.33
'0:01.031',0.35
'0:01.035',0.19
'0:01.039',-0.05
'0:01.043',-0.36
'0:01.047',-0.7
'0:01.051',-1.09
'0:01.055',-1.55
'0:01.059',-2.03
'0:01.063',-2.53
'0:01.066',-2.88
'0:01.070',-3.11
'0:01.074',-3.14
'0:01.078',-3.19
'0:01.082',-3.28
'0:01.086',-3.25
'0:01.090',-3.13
'0:01.094',-2.97
'0:01.098',-3.1
'0:01.102',-3.46
'0:01.105',-3.54
'0:01.109',-3.03
'0:01.113',-1.76
'0:01.117',0.28
'0:01.121',2.67
'0:01.125',4.85
'0:01.129',6.73
'0:01.133',7.82
'0:01.137',5.63
'0:01.141',-0.34
'0:01.145',-6.31
'0:01.148',-10.37
'0:01.152',-12.25
'0:01.156',-12.13
'0:01.160',-10.57
'0:01.164',-8.33
'0:01.168',-6
'0:01.172',-3.91
'0:01.176',-2.14
'0:01.180',-0.82
'0:01.184',0.04
'0:01.188',0.54
'0:01.191',0.91
'0:01.195',1.18
'0:01.199',1.38
'0:01.203',1.59
'0:01.207',1.82
'0:01.211',2.11
'0:01.215',2.19
'0:01.219',2.22
'0:01.223',2.25
'0:01.227',2.33
'0:01.230',2.53
'0:01.234',2.76
'0:01.238',2.99
'0:01.242',3.07
'0:01.246',3.19
'0:01.250',3.49
'0:01.254',3.86
'0:01.258',4.2
'0:01.262',4.52
'0:01.266',5
'0:01.270',5.55
'0:01.273',5.92
'0:01.277',6.23
'0:01.281',6.41
'0:01.285',6.5
'0:01.289',6.52
'0:01.293',6.21
'0:01.297',5.76
'0:01.301',5.04
'0:01.305',4.26
'0:01.309',3.49
'0:01.313',2.51
'0:01.316',1.64
'0:01.320',0.88
'0:01.324',0.35
'0:01.328',-0.01
'0:01.332',-0.37
'0:01.336',-0.61
'0:01.340',-0.68
'0:01.344',-0.59
'0:01.348',-0.42
'0:01.352',-0.29
'0:01.355',-0.17
'0:01.359',-0.07
'0:01.363',0.09
'0:01.367',0.18
'0:01.371',0.2
'0:01.375',0.23
'0:01.379',0.29
'0:01.383',0.48
'0:01.387',0.61
'0:01.391',0.48
'0:01.395',0.36
'0:01.398',0.17
'0:01.402',-0.21
'0:01.406',-0.63
'0:01.410',-1.11
'0:01.414',-1.67
'0:01.418',-2.16
'0:01.422',-2.56
'0:01.426',-2.81
'0:01.430',-3.12
'0:01.434',-3.41
'0:01.438',-3.55
'0:01.441',-3.49
'0:01.445',-3.41
'0:01.449',-3.33
'0:01.453',-3.31
'0:01.457',-3.36
'0:01.461',-3.56
'0:01.465',-3.79
'0:01.469',-3.77
'0:01.473',-3.17
'0:01.477',-1.79
'0:01.480',0.43
'0:01.484',3.17
'0:01.488',5.8
'0:01.492',7.99
'0:01.496',8.45
'0:01.500',4.86
'0:01.504',-1
'0:01.508',-6.37
'0:01.512',-10.21
'0:01.516',-11.99
'0:01.520',-11.72
'0:01.523',-10.09
'0:01.527',-7.92
'0:01.531',-5.74
'0:01.535',-3.94
'0:01.539',-2.73
'0:01.543',-1.77
'0:01.547',-1.05
'0:01.551',-0.66
'0:01.555',-0.4
'0:01.559',-0.2
'0:01.563',0.04
'0:01.566',0.2
'0:01.570',0.38
'0:01.574',0.58
'0:01.578',0.75
'0:01.582',0.85
'0:01.586',0.89
'0:01.590',0.98
'0:01.594',1.09
'0:01.598',1.37
'0:01.602',1.57
'0:01.605',1.81
'0:01.609',2.13
'0:01.613',2.45
'0:01.617',2.77
'0:01.621',3.11
'0:01.625',3.58
'0:01.629',4.16
'0:01.633',4.59
'0:01.637',4.91
'0:01.641',5.14
'0:01.645',5.28
'0:01.648',5.25
'0:01.652',5.06
'0:01.656',4.68
'0:01.660',4.12
'0:01.664',3.43
'0:01.668',2.61
'0:01.672',1.82
'0:01.676',1.21
'0:01.680',0.73
'0:01.684',0.25
'0:01.688',-0.28
'0:01.691',-0.71
'0:01.695',-1.01
'0:01.699',-1.16
'0:01.703',-1.21
'0:01.707',-1.29
'0:01.711',-1.3
'0:01.715',-1.2
'0:01.719',-1.07
'0:01.723',-1
'0:01.727',-0.99
'0:01.730',-0.93
'0:01.734',-0.72
'0:01.738',-0.48
'0:01.742',-0.3
'0:01.746',-0.33
'0:01.750',-0.41
'0:01.754',-0.31
'0:01.758',-0.26
'0:01.762',-0.43
'0:01.766',-0.68
'0:01.770',-0.98
'0:01.773',-1.34
'0:01.777',-1.8
'0:01.781',-2.27
'0:01.785',-2.85
'0:01.789',-3.34
'0:01.793',-3.57
'0:01.797',-3.68
'0:01.801',-3.75
'0:01.805',-3.8
'0:01.809',-3.8
'0:01.813',-3.71
'0:01.816',-3.63
'0:01.820',-3.58
'0:01.824',-3.64
'0:01.828',-3.86
'0:01.832',-3.92
'0:01.836',-3.42
'0:01.840',-2.26
'0:01.844',-0.41
'0:01.848',2
'0:01.852',4.4
'0:01.855',6.7
'0:01.859',7.69
'0:01.863',4.99
'0:01.867',-0.8
'0:01.871',-6.45
'0:01.875',-10.65
'0:01.879',-12.81
'0:01.883',-12.73
'0:01.887',-11.06
'0:01.891',-8.62
'0:01.895',-6.35
'0:01.898',-4.44
'0:01.902',-2.82
'0:01.906',-1.58
'0:01.910',-0.74
'0:01.914',-0.17
'0:01.918',0.23
'0:01.922',0.59
'0:01.926',0.97
'0:01.930',1.21
'0:01.934',1.34
'0:01.938',1.32
'0:01.941',1.38
'0:01.945',1.62
'0:01.949',1.95
'0:01.953',2.15
'0:01.957',2.35
'0:01.961',2.6
'0:01.965',2.74
'0:01.969',3.01
'0:01.973',3.42
'0:01.977',3.74
'0:01.980',4.18
'0:01.984',4.73
'0:01.988',5.34
'0:01.992',5.86
'0:01.996',6.35
'0:02.000',6.82
'0:02.004',7.18
'0:02.008',7.2
'0:02.012',6.99
'0:02.016',6.7
'0:02.020',6.27
'0:02.023',5.61
'0:02.027',4.75
'0:02.031',3.78
'0:02.035',2.82
'0:02.039',1.89
'0:02.043',1.04
'0:02.047',0.42
'0:02.051',-0.02
'0:02.055',-0.37
'0:02.059',-0.64
'0:02.063',-0.89
'0:02.066',-0.88
'0:02.070',-0.59
'0:02.074',-0.39
'0:02.078',-0.38
'0:02.082',-0.6
'0:02.086',-0.53
'0:02.090',-0.37
'0:02.094',-0.27
'0:02.098',-0.1
'0:02.102',0.24
'0:02.105',0.39
'0:02.109',0.48
'0:02.113',0.56
'0:02.117',0.45
'0:02.121',0.23
'0:02.125',-0.03
'0:02.129',-0.28
'0:02.133',-0.57
'0:02.137',-0.95
'0:02.141',-1.46
'0:02.145',-1.75
'0:02.148',-1.75
'0:02.152',-2.67
'0:02.156',-3.1
'0:02.160',-3.5
'0:02.164',-3.58
'0:02.168',-3.46
'0:02.172',-3.3
'0:02.176',-3.12
'0:02.180',-3.01
'0:02.184',-3.11
'0:02.188',-3.35
'0:02.191',-3.55
'0:02.195',-3.17
'0:02.199',-1.88
'0:02.203',0.2
'0:02.207',2.73
'0:02.211',5.01
'0:02.215',7.07
'0:02.219',8.12
'0:02.223',5.34
'0:02.227',-1.14
'0:02.230',-7.11
'0:02.234',-10.95
'0:02.238',-12.71
'0:02.242',-12.39
'0:02.246',-10.82
'0:02.250',-8.42
'0:02.254',-5.73
'0:02.258',-3.48
'0:02.262',-2.03
'0:02.266',-0.85
'0:02.270',0.23
'0:02.273',0.87
'0:02.277',1.12
'0:02.281',1.33
'0:02.285',1.48
'0:02.289',1.76
'0:02.293',2.02
'0:02.297',1.99
'0:02.301',1.93
'0:02.305',2.22
'0:02.309',2.67
'0:02.313',2.65
'0:02.316',2.53
'0:02.320',2.6
'0:02.324',2.87
'0:02.328',3.11
'0:02.332',3.19
'0:02.336',3.37
'0:02.340',3.9
'0:02.344',4.46
'0:02.348',5.04
'0:02.352',5.6
'0:02.355',6.13
'0:02.359',6.68
'0:02.363',7.11
'0:02.367',7.21
'0:02.371',7.08
'0:02.375',6.57
'0:02.379',5.9
'0:02.383',5.23
'0:02.387',4.53
'0:02.391',3.49
'0:02.395',2.57
'0:02.398',1.74
'0:02.402',0.91
'0:02.406',0.2
'0:02.410',-0.34
'0:02.414',-0.82
'0:02.418',-1.27
'0:02.422',-1.43
'0:02.426',-1.38
'0:02.430',-1.38
'0:02.434',-1.34
'0:02.438',-1.29
'0:02.441',-1.29
'0:02.445',-1.24
'0:02.449',-1.15
'0:02.453',-0.89
'0:02.457',-0.57
'0:02.461',-0.36
'0:02.465',-0.31
'0:02.469',-0.34
'0:02.473',-0.3
'0:02.477',-0.24
'0:02.480',-0.42
'0:02.484',-0.83
'0:02.488',-1.25
'0:02.492',-1.5
'0:02.496',-1.64
'0:02.500',-1.86
'0:02.504',-2.27
'0:02.508',-2.61
'0:02.512',-3.11
'0:02.516',-3.5
'0:02.520',-3.81
'0:02.523',-4.11
'0:02.527',-4.21
'0:02.531',-4.2
'0:02.535',-4.14
'0:02.539',-3.95
'0:02.543',-3.68
'0:02.547',-3.69
'0:02.551',-3.91
'0:02.555',-3.88
'0:02.559',-3.19
'0:02.563',-1.68
'0:02.566',0.44
'0:02.570',2.82
'0:02.574',4.99
'0:02.578',6.58
'0:02.582',6.5
'0:02.586',2.33
'0:02.590',-3.98
'0:02.594',-9.08
'0:02.598',-12.11
'0:02.602',-13.16
'0:02.605',-12.39
'0:02.609',-10.4
'0:02.613',-7.87
'0:02.617',-5.47
'0:02.621',-3.45
'0:02.625',-2.02
'0:02.629',-1.12
'0:02.633',-0.45
'0:02.637',0.07
'0:02.641',0.55
'0:02.645',0.94
'0:02.648',1.28
'0:02.652',1.55
'0:02.656',1.7
'0:02.660',1.8
'0:02.664',1.92
'0:02.668',2.02
'0:02.672',2.14
'0:02.676',2.33
'0:02.680',2.44
'0:02.684',2.49
'0:02.688',2.52
'0:02.691',2.67
'0:02.695',2.9
'0:02.699',3.18
'0:02.703',3.59
'0:02.707',4.03
'0:02.711',4.52
'0:02.715',5.08
'0:02.719',5.43
'0:02.723',5.64
'0:02.727',5.98
'0:02.730',6.3
'0:02.734',6.3
'0:02.738',6.15
'0:02.742',5.89
'0:02.746',5.33
'0:02.750',4.48
'0:02.754',3.6
'0:02.758',2.79
'0:02.762',2.06
'0:02.766',1.42
'0:02.770',0.78
'0:02.773',0.24
'0:02.777',-0.22
'0:02.781',-0.57
'0:02.785',-0.73
'0:02.789',-0.75
'0:02.793',-0.74
'0:02.797',-0.59
'0:02.801',-0.4
'0:02.805',-0.24
'0:02.809',-0.1
'0:02.813',0.05
'0:02.816',0.13
'0:02.820',0.29
'0:02.824',0.49
'0:02.828',0.63
'0:02.832',0.72
'0:02.836',0.77
'0:02.840',0.57
'0:02.844',0.24
'0:02.848',-0.06
'0:02.852',-0.19
'0:02.855',-0.48
'0:02.859',-1
'0:02.863',-1.37
'0:02.867',-1.71
'0:02.871',-2.14
'0:02.875',-2.52
'0:02.879',-2.84
'0:02.883',-2.92
'0:02.887',-2.87
'0:02.891',-2.75
'0:02.895',-2.77
'0:02.898',-2.82
'0:02.902',-2.78
'0:02.906',-2.82
'0:02.910',-3.05
'0:02.914',-3.3
'0:02.918',-3.28
'0:02.922',-2.53
'0:02.926',-0.9
'0:02.930',1.55
'0:02.934',4.19
'0:02.938',6.87
'0:02.941',9.16
'0:02.945',9.52
'0:02.949',5.64
'0:02.953',-0.53
'0:02.957',-6.22
'0:02.961',-10.23
'0:02.965',-11.87
'0:02.969',-11.51
'0:02.973',-9.89
'0:02.977',-7.71
'0:02.980',-5.49
'0:02.984',-3.63
'0:02.988',-2.21
'0:02.992',-1.39
'0:02.996',-0.98
'0:03.000',-0.65
'0:03.004',-0.2
'0:03.008',0.14
'0:03.012',0.24
'0:03.016',0.5
'0:03.020',0.8
'0:03.023',1.08
'0:03.027',1.27
'0:03.031',1.24
'0:03.035',1.29
'0:03.039',1.42
'0:03.043',1.63
'0:03.047',1.85
'0:03.051',1.99
'0:03.055',2.12
'0:03.059',2.29
'0:03.063',2.55
'0:03.066',2.94
'0:03.070',3.38
'0:03.074',3.84
'0:03.078',4.35
'0:03.082',4.83
'0:03.086',5.23
'0:03.090',5.54
'0:03.094',5.71
'0:03.098',5.69
'0:03.102',5.4
'0:03.105',4.93
'0:03.109',4.28
'0:03.113',3.5
'0:03.117',2.68
'0:03.121',1.96
'0:03.125',1.27
'0:03.129',0.66
'0:03.133',0.21
'0:03.137',-0.15
'0:03.141',-0.58
'0:03.145',-1.03
'0:03.148',-1.35
'0:03.152',-1.48
'0:03.156',-1.44
'0:03.160',-1.25
'0:03.164',-1.05
'0:03.168',-0.95
'0:03.172',-0.96
'0:03.176',-0.92
'0:03.180',-0.64
'0:03.184',-0.37
'0:03.188',-0.31
'0:03.191',-0.27
'0:03.195',-0.1
'0:03.199',0
'0:03.203',0.04
'0:03.207',-0.21
'0:03.211',-0.56
'0:03.215',-0.88
'0:03.219',-1.13
'0:03.223',-1.42
'0:03.227',-1.79
'0:03.230',-2.25
'0:03.234',-2.66
'0:03.238',-3.01
'0:03.242',-3.21
'0:03.246',-3.42
'0:03.250',-3.59
'0:03.254',-3.63
'0:03.258',-3.53
'0:03.262',-3.41
'0:03.266',-3.36
'0:03.270',-3.36
'0:03.273',-3.5
'0:03.277',-3.73
'0:03.281',-3.68
'0:03.285',-3.03
'0:03.289',-1.74
'0:03.293',0.23
'0:03.297',2.54
'0:03.301',4.8
'0:03.305',6.81
'0:03.309',7.39
'0:03.313',4.35
'0:03.316',-0.94
'0:03.320',-6.04
'0:03.324',-9.91
'0:03.328',-11.78
'0:03.332',-11.63
'0:03.336',-10.04
'0:03.340',-7.83
'0:03.344',-5.78
'0:03.348',-4.06
'0:03.352',-2.73
'0:03.355',-1.64
'0:03.359',-0.86
'0:03.363',-0.33
'0:03.367',0.04
'0:03.371',0.33
'0:03.375',0.57
'0:03.379',0.8
'0:03.383',1.02
'0:03.387',1.15
'0:03.391',1.23
'0:03.395',1.3
'0:03.398',1.36
'0:03.402',1.42
'0:03.406',1.51
'0:03.410',1.7
'0:03.414',1.87
'0:03.418',2.18
'0:03.422',2.56
'0:03.426',2.79
'0:03.430',2.97
'0:03.434',3.39
'0:03.438',4.16
'0:03.441',4.83
'0:03.445',5.28
'0:03.449',5.57
'0:03.453',5.82
'0:03.457',5.99
'0:03.461',6.05
'0:03.465',5.84
'0:03.469',5.36
'0:03.473',4.74
'0:03.477',4.05
'0:03.480',3.2
'0:03.484',2.44
'0:03.488',1.67
'0:03.492',0.84
'0:03.496',0.23
'0:03.500',-0.24
'0:03.504',-0.66
'0:03.508',-0.96
'0:03.512',-1.18
'0:03.516',-1.29
'0:03.520',-1.36
'0:03.523',-1.34
'0:03.527',-1.24
'0:03.531',-1.16
'0:03.535',-1.12
'0:03.539',-1.12
'0:03.543',-1.16
'0:03.547',-1.14
'0:03.551',-0.91
'0:03.555',-0.47
'0:03.559',-0.16
'0:03.563',-0.08
'0:03.566',-0.18
'0:03.570',-0.23
'0:03.574',-0.38
'0:03.578',-0.69
'0:03.582',-1.03
'0:03.586',-1.19
'0:03.590',-1.38
'0:03.594',-1.8
'0:03.598',-2.55
'0:03.602',-3.26
'0:03.605',-3.6
'0:03.609',-3.63
'0:03.613',-3.6
'0:03.617',-3.58
'0:03.621',-3.45
'0:03.625',-3.25
'0:03.629',-3.21
'0:03.633',-3.37
'0:03.637',-3.59
'0:03.641',-3.9
'0:03.645',-4.09
'0:03.648',-3.73
'0:03.652',-2.66
'0:03.656',-0.86
'0:03.660',1.52
'0:03.664',3.96
'0:03.668',6.23
'0:03.672',7.68
'0:03.676',5.58
'0:03.680',-0.25
'0:03.684',-6.14
'0:03.688',-10.22
'0:03.691',-12.18
'0:03.695',-12.18
'0:03.699',-10.74
'0:03.703',-8.59
'0:03.707',-6.25
'0:03.711',-4.05
'0:03.715',-2.23
'0:03.719',-1.03
'0:03.723',-0.43
'0:03.727',0.02
'0:03.730',0.56
'0:03.734',0.99
'0:03.738',1.26
'0:03.742',1.41
'0:03.746',1.62
'0:03.750',1.92
'0:03.754',2.09
'0:03.758',2.05
'0:03.762',2.05
'0:03.766',2.14
'0:03.770',2.34
'0:03.773',2.5
'0:03.777',2.6
'0:03.781',2.89
'0:03.785',3.25
'0:03.789',3.66
'0:03.793',4.1
'0:03.797',4.5
'0:03.801',5.14
'0:03.805',5.76
'0:03.809',6.2
'0:03.813',6.52
'0:03.816',6.76
'0:03.820',7.09
'0:03.824',7.14
'0:03.828',6.95
'0:03.832',6.67
'0:03.836',6.14
'0:03.840',5.37
'0:03.844',4.34
'0:03.848',3.19
'0:03.852',2.15
'0:03.855',1.23
'0:03.859',0.64
'0:03.863',0.43
'0:03.867',0.08
'0:03.871',-0.58
'0:03.875',-1.05
'0:03.879',-0.89
'0:03.883',-0.49
'0:03.887',-0.57
'0:03.891',-0.61
'0:03.895',-0.35
'0:03.898',-0.14
'0:03.902',-0.14
'0:03.906',-0.16
'0:03.910',0.04
'0:03.914',0.34
'0:03.918',0.61
'0:03.922',0.71
'0:03.926',0.8
'0:03.930',0.75
'0:03.934',0.57
'0:03.938',0.36
'0:03.941',0.18
'0:03.945',0
'0:03.949',-0.48
'0:03.953',-1.33
'0:03.957',-1.81
'0:03.961',-2.25
'0:03.965',-2.54
'0:03.969',-2.79
'0:03.973',-3.13
'0:03.977',-3.36
'0:03.980',-3.22
'0:03.984',-3.12
'0:03.988',-3.25
'0:03.992',-3.55
'0:03.996',-3.3
'0:04.000',-2.79
'0:04.004',-2.79
'0:04.008',-2.99
'0:04.012',-2.55
'0:04.016',-1.54
'0:04.020',0.14
'0:04.023',2.67
'0:04.027',5.17
'0:04.031',6.81
'0:04.035',7.44
'0:04.039',4.94
'0:04.043',-1.17
'0:04.047',-7.29
'0:04.051',-11.1
'0:04.055',-12.78
'0:04.059',-12.55
'0:04.063',-10.87
'0:04.066',-8.58
'0:04.070',-6.48
'0:04.074',-4.29
'0:04.078',-2.42
'0:04.082',-1.04
'0:04.086',-0.03
'0:04.090',0.71
'0:04.094',1.31
'0:04.098',1.55
'0:04.102',1.58
'0:04.105',1.85
'0:04.109',2.08
'0:04.113',2.12
'0:04.117',1.86
'0:04.121',1.94
'0:04.125',2.61
'0:04.129',2.67
'0:04.133',2.58
'0:04.137',2.97
'0:04.141',3.03
'0:04.145',2.9
'0:04.148',3.18
'0:04.152',3.47
'0:04.156',3.64
'0:04.160',4.42
'0:04.164',5.4
'0:04.168',5.84
'0:04.172',5.97
'0:04.176',6.5
'0:04.180',7.24
'0:04.184',7.13
'0:04.188',6.79
'0:04.191',6.37
'0:04.195',5.56
'0:04.199',4.7
'0:04.203',3.56
'0:04.207',2.57
'0:04.211',2.15
'0:04.215',2.04
'0:04.219',1.14
'0:04.223',-0.05
'0:04.227',-1
'0:04.230',-1.63
'0:04.234',-1.52
'0:04.238',-1.25
'0:04.242',-1.09
'0:04.246',-1.41
'0:04.250',-1.65
'0:04.254',-1.69
'0:04.258',-2.08
'0:04.262',-1.77
'0:04.266',-1.35
'0:04.270',-1.48
'0:04.273',-1.37
'0:04.277',-0.79
'0:04.281',-0.19
'0:04.285',0.23
'0:04.289',0.23
'0:04.293',0.02
'0:04.297',-0.14
'0:04.301',-0.24
'0:04.305',-0.25
'0:04.309',-0.5
'0:04.313',-0.92
'0:04.316',-1.48
'0:04.320',-1.93
'0:04.324',-2.4
'0:04.328',-2.87
'0:04.332',-3.34
'0:04.336',-3.59
'0:04.340',-3.53
'0:04.344',-3.5
'0:04.348',-3.58
'0:04.352',-3.34
'0:04.355',-3.31
'0:04.359',-3.55
'0:04.363',-3.6
'0:04.367',-3.6
'0:04.371',-3.56
'0:04.375',-3.12
'0:04.379',-2.05
'0:04.383',-0.13
'0:04.387',2.44
'0:04.391',4.65
'0:04.395',6.06
'0:04.398',6.67
'0:04.402',4.87
'0:04.406',-0.66
'0:04.410',-6.52
'0:04.414',-10.59
'0:04.418',-12.71
'0:04.422',-12.95
'0:04.426',-11.71
'0:04.430',-9.57
'0:04.434',-7.1
'0:04.438',-4.92
'0:04.441',-3.03
'0:04.445',-1.58
'0:04.449',-0.51
'0:04.453',0.13
'0:04.457',0.46
'0:04.461',0.74
'0:04.465',1
'0:04.469',1.24
'0:04.473',1.52
'0:04.477',1.76
'0:04.480',1.9
'0:04.484',1.97
'0:04.488',2.17
'0:04.492',2.45
'0:04.496',2.7
'0:04.500',2.83
'0:04.504',2.8
'0:04.508',2.78
'0:04.512',2.97
'0:04.516',3.26
'0:04.520',3.57
'0:04.523',3.96
'0:04.527',4.42
'0:04.531',5.07
'0:04.535',5.68
'0:04.539',6.16
'0:04.543',6.45
'0:04.547',6.48
'0:04.551',6.36
'0:04.555',6.29
'0:04.559',6.18
'0:04.563',5.67
'0:04.566',4.98
'0:04.570',4.15
'0:04.574',3.18
'0:04.578',2.04
'0:04.582',0.99
'0:04.586',0.25
'0:04.590',-0.33
'0:04.594',-0.79
'0:04.598',-1.06
'0:04.602',-1.04
'0:04.605',-0.88
'0:04.609',-0.68
'0:04.613',-0.49
'0:04.617',-0.41
'0:04.621',-0.31
'0:04.625',-0.19
'0:04.629',-0.16
'0:04.633',-0.11
'0:04.637',-0.04
'0:04.641',0.05
'0:04.645',0.15
'0:04.648',0.28
'0:04.652',0.3
'0:04.656',0.21
'0:04.660',0.08
'0:04.664',-0.13
'0:04.668',-0.35
'0:04.672',-0.6
'0:04.676',-0.89
'0:04.680',-1.36
'0:04.684',-1.88
'0:04.688',-2.34
'0:04.691',-2.81
'0:04.695',-3.27
'0:04.699',-3.59
'0:04.703',-3.61
'0:04.707',-3.49
'0:04.711',-3.5
'0:04.715',-3.5
'0:04.719',-3.57
'0:04.723',-3.67
'0:04.727',-3.7
'0:04.730',-3.74
'0:04.734',-3.85
'0:04.738',-3.55
'0:04.742',-2.44
'0:04.746',-0.35
'0:04.750',2.27
'0:04.754',4.95
'0:04.758',7.35
'0:04.762',9.23
'0:04.766',8.49
'0:04.770',3.29
'0:04.773',-3.29
'0:04.777',-8.83
'0:04.781',-12.19
'0:04.785',-13.08
'0:04.789',-12.09
'0:04.793',-10.05
'0:04.797',-7.83
'0:04.801',-5.77
'0:04.805',-3.93
'0:04.809',-2.64
'0:04.813',-1.83
'0:04.816',-1.31
'0:04.820',-0.91
'0:04.824',-0.61
'0:04.828',-0.33
'0:04.832',-0.08
'0:04.836',0.07
'0:04.840',0.34
'0:04.844',0.55
'0:04.848',0.73
'0:04.852',0.92
'0:04.855',1
'0:04.859',1.18
'0:04.863',1.47
'0:04.867',1.73
'0:04.871',1.92
'0:04.875',2.13
'0:04.879',2.5
'0:04.883',2.84
'0:04.887',3.23
'0:04.891',3.71
'0:04.895',4.25
'0:04.898',4.74
'0:04.902',5.2
'0:04.906',5.57
'0:04.910',5.75
'0:04.914',5.76
'0:04.918',5.64
'0:04.922',5.37
'0:04.926',5
'0:04.930',4.6
'0:04.934',3.93
'0:04.938',3.06
'0:04.941',2.23
'0:04.945',1.51
'0:04.949',0.8
'0:04.953',-0.06
'0:04.957',-0.4
'0:04.961',-0.62
'0:04.965',-1.14
'0:04.969',-1.85
'0:04.973',-2.3
'0:04.977',-2.17
'0:04.980',-1.88
'0:04.984',-1.7
'0:04.988',-1.52
'0:04.992',-1.43
'0:04.996',-1.43
'0:05.000',-1.22
'0:05.004',-0.86
'0:05.008',-0.54
'0:05.012',-0.2
'0:05.016',0.11
'0:05.020',0.27
'0:05.023',0.21
'0:05.027',-0.05
'0:05.031',-0.36
'0:05.035',-0.58
'0:05.039',-0.86
'0:05.043',-1.38
'0:05.047',-2.05
'0:05.051',-2.58
'0:05.055',-2.98
'0:05.059',-3.23
'0:05.063',-3.24
'0:05.066',-3.05
'0:05.070',-2.92
'0:05.074',-2.76
'0:05.078',-2.68
'0:05.082',-2.72
'0:05.086',-2.82
'0:05.090',-2.89
'0:05.094',-3.01
'0:05.098',-3.2
'0:05.102',-3.26
'0:05.105',-2.77
'0:05.109',-1.64
'0:05.113',0.3
'0:05.117',2.62
'0:05.121',4.88
'0:05.125',7
'0:05.129',8.41
'0:05.133',6.57
'0:05.137',1.34
'0:05.141',-4.12
'0:05.145',-8.35
'0:05.148',-10.71
'0:05.152',-10.98
'0:05.156',-9.64
'0:05.160',-7.44
'0:05.164',-5.19
'0:05.168',-3.41
'0:05.172',-2.01
'0:05.176',-0.98
'0:05.180',-0.33
'0:05.184',0.11
'0:05.188',0.46
'0:05.191',0.75
'0:05.195',0.97
'0:05.199',1.14
'0:05.203',1.34
'0:05.207',1.37
'0:05.211',1.41
'0:05.215',1.53
'0:05.219',1.72
'0:05.223',1.85
'0:05.227',1.97
'0:05.230',2.1
'0:05.234',2.31
'0:05.238',2.65
'0:05.242',2.93
'0:05.246',3.46
'0:05.250',3.69
'0:05.254',4.08
'0:05.258',4.54
'0:05.262',5
'0:05.266',5.49
'0:05.270',5.98
'0:05.273',6.36
'0:05.277',6.56
'0:05.281',6.56
'0:05.285',6.3
'0:05.289',6.03
'0:05.293',5.6
'0:05.297',4.77
'0:05.301',3.77
'0:05.305',2.89
'0:05.309',2.12
'0:05.313',1.4
'0:05.316',0.75
'0:05.320',0.21
'0:05.324',-0.33
'0:05.328',-0.74
'0:05.332',-1.15
'0:05.336',-1.38
'0:05.340',-1.3
'0:05.344',-1.15
'0:05.348',-0.98
'0:05.352',-0.87
'0:05.355',-0.87
'0:05.359',-1.06
'0:05.363',-1.15
'0:05.367',-0.95
'0:05.371',-0.57
'0:05.375',-0.27
'0:05.379',-0.19
'0:05.383',-0.29
'0:05.387',-0.21
'0:05.391',-0.13
'0:05.395',-0.21
'0:05.398',-0.44
'0:05.402',-0.74
'0:05.406',-1.16
'0:05.410',-1.54
'0:05.414',-1.95
'0:05.418',-2.49
'0:05.422',-3.07
'0:05.426',-3.51
'0:05.430',-3.7
'0:05.434',-3.78
'0:05.438',-3.78
'0:05.441',-3.66
'0:05.445',-3.5
'0:05.449',-3.56
'0:05.453',-3.55
'0:05.457',-3.62
'0:05.461',-3.88
'0:05.465',-4.2
'0:05.469',-3.95
'0:05.473',-2.98
'0:05.477',-1.29
'0:05.480',0.92
'0:05.484',3.35
'0:05.488',5.69
'0:05.492',7.69
'0:05.496',7.18
'0:05.500',2.14
'0:05.504',-4.19
'0:05.508',-9.16
'0:05.512',-11.99
'0:05.516',-12.66
'0:05.520',-11.67
'0:05.523',-9.49
'0:05.527',-6.75
'0:05.531',-4.34
'0:05.535',-2.63
'0:05.539',-1.57
'0:05.543',-0.73
'0:05.547',-0.07
'0:05.551',0.5
'0:05.555',0.8
'0:05.559',1.12
'0:05.563',1.56
'0:05.566',2.06
'0:05.570',2.48
'0:05.574',2.63
'0:05.578',2.54
'0:05.582',2.4
'0:05.586',2.37
'0:05.590',2.34
'0:05.594',2.51
'0:05.598',2.8
'0:05.602',3.28
'0:05.605',3.53
'0:05.609',3.79
'0:05.613',4.02
'0:05.617',4.19
'0:05.621',4.57
'0:05.625',5.18
'0:05.629',5.72
'0:05.633',6.24
'0:05.637',6.62
'0:05.641',6.79
'0:05.645',6.87
'0:05.648',6.83
'0:05.652',6.43
'0:05.656',5.62
'0:05.660',4.74
'0:05.664',3.84
'0:05.668',2.94
'0:05.672',2.13
'0:05.676',1.32
'0:05.680',0.58
'0:05.684',0
'0:05.688',-0.53
'0:05.691',-1.12
'0:05.695',-1.54
'0:05.699',-1.59
'0:05.703',-1.42
'0:05.707',-1.34
'0:05.711',-1.12
'0:05.715',-1.02
'0:05.719',-1.16
'0:05.723',-1.21
'0:05.727',-1.06
'0:05.730',-0.65
'0:05.734',-0.32
'0:05.738',-0.24
'0:05.742',-0.26
'0:05.746',-0.25
'0:05.750',-0.07
'0:05.754',0.05
'0:05.758',-0.08
'0:05.762',-0.28
'0:05.766',-0.45
'0:05.770',-0.7
'0:05.773',-1.12
'0:05.777',-1.57
'0:05.781',-2.03
'0:05.785',-2.52
'0:05.789',-2.95
'0:05.793',-3.36
'0:05.797',-3.69
'0:05.801',-3.73
'0:05.805',-3.46
'0:05.809',-3.26
'0:05.813',-3.1
'0:05.816',-2.99
'0:05.820',-2.94
'0:05.824',-3.05
'0:05.828',-3.27
'0:05.832',-3.43
'0:05.836',-3.13
'0:05.840',-2.17
'0:05.844',-0.31
'0:05.848',2.08
'0:05.852',4.23
'0:05.855',5.97
'0:05.859',7.1
'0:05.863',5.21
'0:05.867',-0.68
'0:05.871',-6.63
'0:05.875',-10.86
'0:05.879',-12.95
'0:05.883',-12.89
'0:05.887',-11.27
'0:05.891',-8.74
'0:05.895',-6.12
'0:05.898',-4.17
'0:05.902',-2.58
'0:05.906',-1.17
'0:05.910',-0.1
'0:05.914',0.59
'0:05.918',0.94
'0:05.922',1.1
'0:05.926',1.17
'0:05.930',1.25
'0:05.934',1.5
'0:05.938',1.75
'0:05.941',1.95
'0:05.945',2
'0:05.949',1.97
'0:05.953',2.04
'0:05.957',2.27
'0:05.961',2.48
'0:05.965',2.58
'0:05.969',2.6
'0:05.973',2.84
'0:05.977',3.16
'0:05.980',3.58
'0:05.984',4.12
'0:05.988',4.68
'0:05.992',5.25
'0:05.996',5.83
'0:06.000',6.3
'0:06.004',6.62
'0:06.008',6.75
'0:06.012',6.78
'0:06.016',6.54
'0:06.020',6.04
'0:06.023',5.42
'0:06.027',4.63
'0:06.031',3.67
'0:06.035',2.69
'0:06.039',1.79
'0:06.043',1.05
'0:06.047',0.37
'0:06.051',-0.27
'0:06.055',-0.83
'0:06.059',-1.14
'0:06.063',-1.28
'0:06.066',-1.37
'0:06.070',-1.39
'0:06.074',-1.29
'0:06.078',-1.12
'0:06.082',-0.98
'0:06.086',-0.92
'0:06.090',-0.76
'0:06.094',-0.51
'0:06.098',-0.27
'0:06.102',-0.03
'0:06.105',0.03
'0:06.109',0.05
'0:06.113',0.17
'0:06.117',0.32
'0:06.121',0.44
'0:06.125',0.35
'0:06.129',0.04
'0:06.133',-0.26
'0:06.137',-0.55
'0:06.141',-0.93
'0:06.145',-1.44
'0:06.148',-2.02
'0:06.152',-2.54
'0:06.156',-2.97
'0:06.160',-3.23
'0:06.164',-3.46
'0:06.168',-3.55
'0:06.172',-3.49
'0:06.176',-3.41
'0:06.180',-3.38
'0:06.184',-3.43
'0:06.188',-3.43
'0:06.191',-3.37
'0:06.195',-3.38
'0:06.199',-3.36
'0:06.203',-2.82
'0:06.207',-1.45
'0:06.211',0.68
'0:06.215',3.19
'0:06.219',5.53
'0:06.223',7.5
'0:06.227',8.5
'0:06.230',6.03
'0:06.234',-0.23
'0:06.238',-6.43
'0:06.242',-10.63
'0:06.246',-12.58
'0:06.250',-12.35
'0:06.254',-10.69
'0:06.258',-8.27
'0:06.262',-5.85
'0:06.266',-3.8
'0:06.270',-2.15
'0:06.273',-0.93
'0:06.277',-0.12
'0:06.281',0.33
'0:06.285',0.75
'0:06.289',1.09
'0:06.293',1.31
'0:06.297',1.45
'0:06.301',1.65
'0:06.305',1.85
'0:06.309',2.04
'0:06.313',2.19
'0:06.316',2.29
'0:06.320',2.37
'0:06.324',2.45
'0:06.328',2.62
'0:06.332',2.82
'0:06.336',3.02
'0:06.340',3.21
'0:06.344',3.52
'0:06.348',3.94
'0:06.352',4.37
'0:06.355',4.81
'0:06.359',5.28
'0:06.363',5.78
'0:06.367',6.16
'0:06.371',6.43
'0:06.375',6.58
'0:06.379',6.63
'0:06.383',6.52
'0:06.387',6.18
'0:06.391',5.67
'0:06.395',4.97
'0:06.398',4.14
'0:06.402',3.25
'0:06.406',2.43
'0:06.410',1.69
'0:06.414',0.95
'0:06.418',0.28
'0:06.422',-0.23
'0:06.426',-0.55
'0:06.430',-0.81
'0:06.434',-1.03
'0:06.438',-1.09
'0:06.441',-0.98
'0:06.445',-0.78
'0:06.449',-0.59
'0:06.453',-0.46
'0:06.457',-0.43
'0:06.461',-0.44
'0:06.465',-0.35
'0:06.469',-0.25
'0:06.473',-0.19
'0:06.477',-0.12
'0:06.480',-0.05
'0:06.484',0.03
'0:06.488',0.04
'0:06.492',-0.11
'0:06.496',-0.33
'0:06.500',-0.61
'0:06.504',-0.91
'0:06.508',-1.34
'0:06.512',-1.83
'0:06.516',-2.33
'0:06.520',-2.83
'0:06.523',-3.22
'0:06.527',-3.51
'0:06.531',-3.72
'0:06.535',-3.84
'0:06.539',-3.78
'0:06.543',-3.59
'0:06.547',-3.43
'0:06.551',-3.45
'0:06.555',-3.45
'0:06.559',-3.52
'0:06.563',-3.72
'0:06.566',-3.82
'0:06.570',-3.43
'0:06.574',-2.13
'0:06.578',0.09
'0:06.582',2.83
'0:06.586',5.55
'0:06.590',7.99
'0:06.594',9
'0:06.598',6.1
'0:06.602',0.16
'0:06.605',-5.65
'0:06.609',-10.09
'0:06.613',-12.45
'0:06.617',-12.52
'0:06.621',-10.84
'0:06.625',-8.52
'0:06.629',-6.37
'0:06.633',-4.61
'0:06.637',-3.29
'0:06.641',-2.39
'0:06.645',-1.75
'0:06.648',-1.23
'0:06.652',-0.75
'0:06.656',-0.44
'0:06.660',-0.18
'0:06.664',0.1
'0:06.668',0.34
'0:06.672',0.42
'0:06.676',0.42
'0:06.680',0.42
'0:06.684',0.58
'0:06.688',0.91
'0:06.691',1.24
'0:06.695',1.45
'0:06.699',1.51
'0:06.703',1.58
'0:06.707',1.77
'0:06.711',2.04
'0:06.715',2.47
'0:06.719',3.05
'0:06.723',3.71
'0:06.727',4.37
'0:06.730',4.77
'0:06.734',5.09
'0:06.738',5.4
'0:06.742',5.6
'0:06.746',5.71
'0:06.750',5.61
'0:06.754',5.33
'0:06.758',4.84
'0:06.762',4.22
'0:06.766',3.44
'0:06.770',2.75
'0:06.773',2.17
'0:06.777',1.49
'0:06.781',0.82
'0:06.785',0.26
'0:06.789',-0.13
'0:06.793',-0.38
'0:06.797',-0.52
'0:06.801',-0.72
'0:06.805',-0.86
'0:06.809',-0.92
'0:06.813',-0.83
'0:06.816',-0.66
'0:06.820',-0.56
'0:06.824',-0.53
'0:06.828',-0.56
'0:06.832',-0.44
'0:06.836',-0.22
'0:06.840',-0.05
'0:06.844',0.07
'0:06.848',0.1
'0:06.852',0.17
'0:06.855',0.29
'0:06.859',0.36
'0:06.863',0.16
'0:06.867',-0.18
'0:06.871',-0.55
'0:06.875',-0.96
'0:06.879',-1.42
'0:06.883',-1.92
'0:06.887',-2.44
'0:06.891',-2.83
'0:06.895',-3.02
'0:06.898',-3.13
'0:06.902',-3.19
'0:06.906',-3.19
'0:06.910',-3.19
'0:06.914',-3.19
'0:06.918',-3.07
'0:06.922',-2.9
'0:06.926',-2.99
'0:06.930',-3.34
'0:06.934',-3.48
'0:06.938',-3
'0:06.941',-1.82
'0:06.945',0.04
'0:06.949',2.37
'0:06.953',4.73
'0:06.957',6.94
'0:06.961',8.22
'0:06.965',6.26
'0:06.969',0.88
'0:06.973',-4.78
'0:06.977',-9.16
'0:06.980',-11.64
'0:06.984',-11.9
'0:06.988',-10.55
'0:06.992',-8.39
'0:06.996',-5.98
'0:07.000',-3.97
'0:07.004',-2.5
'0:07.008',-1.42
'0:07.012',-0.67
'0:07.016',-0.18
'0:07.020',0.12
'0:07.023',0.26
'0:07.027',0.4
'0:07.031',0.6
'0:07.035',0.89
'0:07.039',1.07
'0:07.043',1.14
'0:07.047',1.21
'0:07.051',1.41
'0:07.055',1.61
'0:07.059',1.73
'0:07.063',1.87
'0:07.066',1.97
'0:07.070',2.09
'0:07.074',2.43
'0:07.078',2.89
'0:07.082',3.34
'0:07.086',3.67
'0:07.090',4.03
'0:07.094',4.59
'0:07.098',5.12
'0:07.102',5.62
'0:07.105',6.02
'0:07.109',6.26
'0:07.113',6.3
'0:07.117',6.2
'0:07.121',5.85
'0:07.125',5.15
'0:07.129',4.32
'0:07.133',3.47
'0:07.137',2.64
'0:07.141',1.81
'0:07.145',1.08
'0:07.148',0.41
'0:07.152',-0.08
'0:07.156',-0.4
'0:07.160',-0.67
'0:07.164',-0.85
'0:07.168',-1.02
'0:07.172',-1.07
'0:07.176',-1.09
'0:07.180',-1.09
'0:07.184',-1.05
'0:07.188',-0.91
'0:07.191',-0.76
'0:07.195',-0.61
'0:07.199',-0.43
'0:07.203',-0.18
'0:07.207',0.17
'0:07.211',0.27
'0:07.215',0.2
'0:07.219',0.16
'0:07.223',0.08
'0:07.227',0.15
'0:07.230',0.06
'0:07.234',-0.28
'0:07.238',-0.59
'0:07.242',-0.91
'0:07.246',-1.35
'0:07.250',-1.81
'0:07.254',-2.34
'0:07.258',-2.81
'0:07.262',-3.2
'0:07.266',-3.41
'0:07.270',-3.48
'0:07.273',-3.58
'0:07.277',-3.6
'0:07.281',-3.59
'0:07.285',-3.44
'0:07.289',-3.28
'0:07.293',-3.38
'0:07.297',-3.67
'0:07.301',-3.87
'0:07.305',-3.47
'0:07.309',-2.36
'0:07.313',-0.31
'0:07.316',2.16
'0:07.320',4.58
'0:07.324',6.74
'0:07.328',8.16
'0:07.332',6.32
'0:07.336',0.28
'0:07.340',-5.94
'0:07.344',-10.29
'0:07.348',-12.62
'0:07.352',-12.92
'0:07.355',-11.55
'0:07.359',-9.13
'0:07.363',-6.52
'0:07.367',-4.13
'0:07.371',-2.2
'0:07.375',-0.83
'0:07.379',-0.18
'0:07.383',0.4
'0:07.387',0.96
'0:07.391',1.38
'0:07.395',1.46
'0:07.398',1.44
'0:07.402',1.64
'0:07.406',2.06
'0:07.410',2.25
'0:07.414',2.15
'0:07.418',2.02
'0:07.422',2.19
'0:07.426',2.61
'0:07.430',2.7
'0:07.434',2.75
'0:07.438',2.99
'0:07.441',3.32
'0:07.445',3.41
'0:07.449',3.67
'0:07.453',4.31
'0:07.457',5
'0:07.461',5.56
'0:07.465',6.01
'0:07.469',6.38
'0:07.473',6.6
'0:07.477',6.68
'0:07.480',6.75
'0:07.484',6.66
'0:07.488',6.29
'0:07.492',5.61
'0:07.496',4.48
'0:07.500',3.42
'0:07.504',2.65
'0:07.508',1.81
'0:07.512',0.82
'0:07.516',0.08
'0:07.520',-0.32
'0:07.523',-0.65
'0:07.527',-0.99
'0:07.531',-1.25
'0:07.535',-1.63
'0:07.539',-2.13
'0:07.543',-2.24
'0:07.547',-1.93
'0:07.551',-1.52
'0:07.555',-1.18
'0:07.559',-1.14
'0:07.563',-1.01
'0:07.566',-0.83
'0:07.570',-0.75
'0:07.574',-0.51
'0:07.578',-0.34
'0:07.582',-0.17
'0:07.586',0.1
'0:07.590',0.13
'0:07.594',-0.15
'0:07.598',-0.45
'0:07.602',-0.63
'0:07.605',-1
'0:07.609',-1.44
'0:07.613',-1.8
'0:07.617',-2.14
'0:07.621',-2.56
'0:07.625',-3.12
'0:07.629',-3.56
'0:07.633',-3.68
'0:07.637',-3.51
'0:07.641',-3.33
'0:07.645',-3.19
'0:07.648',-3.21
'0:07.652',-3.29
'0:07.656',-3.28
'0:07.660',-3.26
'0:07.664',-3.4
'0:07.668',-3.53
'0:07.672',-3.14
'0:07.676',-2.11
'0:07.680',-0.21
'0:07.684',2.19
'0:07.688',4.38
'0:07.691',6.3
'0:07.695',7.53
'0:07.699',5.6
'0:07.703',-0.34
'0:07.707',-6.34
'0:07.711',-10.51
'0:07.715',-12.54
'0:07.719',-12.44
'0:07.723',-10.89
'0:07.727',-8.6
'0:07.730',-6.21
'0:07.734',-4.08
'0:07.738',-2.4
'0:07.742',-1.2
'0:07.746',-0.33
'0:07.750',0.24
'0:07.754',0.7
'0:07.758',1.16
'0:07.762',1.43
'0:07.766',1.54
'0:07.770',1.58
'0:07.773',1.66
'0:07.777',1.85
'0:07.781',2
'0:07.785',2.14
'0:07.789',2.25
'0:07.793',2.29
'0:07.797',2.43
'0:07.801',2.65
'0:07.805',2.94
'0:07.809',3.25
'0:07.813',3.62
'0:07.816',4.04
'0:07.820',4.47
'0:07.824',4.89
'0:07.828',5.42
'0:07.832',6.07
'0:07.836',6.59
'0:07.840',6.91
'0:07.844',7.04
'0:07.848',7.02
'0:07.852',6.88
'0:07.855',6.48
'0:07.859',5.94
'0:07.863',5.29
'0:07.867',4.41
'0:07.871',3.54
'0:07.875',2.78
'0:07.879',2.02
'0:07.883',1.2
'0:07.887',0.56
'0:07.891',0.09
'0:07.895',-0.25
'0:07.898',-0.52
'0:07.902',-0.74
'0:07.906',-0.89
'0:07.910',-0.94
'0:07.914',-0.84
'0:07.918',-0.59
'0:07.922',-0.38
'0:07.926',-0.36
'0:07.930',-0.33
'0:07.934',-0.1
'0:07.938',0.03
'0:07.941',0.12
'0:07.945',0.24
'0:07.949',0.43
'0:07.953',0.58
'0:07.957',0.64
'0:07.961',0.54
'0:07.965',0.3
'0:07.969',0.07
'0:07.973',-0.25
'0:07.977',-0.72
'0:07.980',-1.23
'0:07.984',-1.81
'0:07.988',-2.33
'0:07.992',-2.69
'0:07.996',-2.94
'0:08.000',-3.08
'0:08.004',-3.12
'0:08.008',-3.07
'0:08.012',-2.9
'0:08.016',-2.82
'0:08.020',-2.91
'0:08.023',-2.96
'0:08.027',-3.02
'0:08.031',-3.22
'0:08.035',-3.45
'0:08.039',-3.16
'0:08.043',-2
'0:08.047',0.11
'0:08.051',2.79
'0:08.055',5.55
'0:08.059',8.16
'0:08.063',9.77
'0:08.066',7.96
'0:08.070',2.31
'0:08.074',-3.87
'0:08.078',-8.91
'0:08.082',-11.75
'0:08.086',-12.21
'0:08.090',-10.98
'0:08.094',-8.86
'0:08.098',-6.54
'0:08.102',-4.75
'0:08.105',-3.3
'0:08.109',-2.17
'0:08.113',-1.42
'0:08.117',-0.98
'0:08.121',-0.71
'0:08.125',-0.49
'0:08.129',-0.17
'0:08.133',-0.02
'0:08.137',0.1
'0:08.141',0.31
'0:08.145',0.55
'0:08.148',0.79
'0:08.152',1.03
'0:08.156',1.19
'0:08.160',1.34
'0:08.164',1.44
'0:08.168',1.54
'0:08.172',1.6
'0:08.176',1.8
'0:08.180',2.11
'0:08.184',2.55
'0:08.188',3.13
'0:08.191',3.67
'0:08.195',4.2
'0:08.199',4.67
'0:08.203',5.06
'0:08.207',5.33
'0:08.211',5.46
'0:08.215',5.41
'0:08.219',5.27
'0:08.223',4.92
'0:08.227',4.45
'0:08.230',3.85
'0:08.234',3.05
'0:08.238',2.26
'0:08.242',1.54
'0:08.246',0.85
'0:08.250',0.14
'0:08.254',-0.56
'0:08.258',-1.06
'0:08.262',-1.35
'0:08.266',-1.57
'0:08.270',-1.75
'0:08.273',-1.85
'0:08.277',-1.99
'0:08.281',-1.95
'0:08.285',-1.68
'0:08.289',-1.32
'0:08.293',-0.98
'0:08.297',-0.95
'0:08.301',-0.9
'0:08.305',-0.83
'0:08.309',-0.65
'0:08.313',-0.51
'0:08.316',-0.45
'0:08.320',-0.46
'0:08.324',-0.35
'0:08.328',-0.31
'0:08.332',-0.45
'0:08.336',-0.62
'0:08.340',-0.79
'0:08.344',-1.06
'0:08.348',-1.5
'0:08.352',-2
'0:08.355',-2.52
'0:08.359',-2.98
'0:08.363',-3.38
'0:08.367',-3.53
'0:08.371',-3.5
'0:08.375',-3.49
'0:08.379',-3.5
'0:08.383',-3.52
'0:08.387',-3.53
'0:08.391',-3.43
'0:08.395',-3.43
'0:08.398',-3.53
'0:08.402',-3.72
'0:08.406',-3.7
'0:08.410',-3.05
'0:08.414',-1.68
'0:08.418',0.34
'0:08.422',2.67
'0:08.426',4.99
'0:08.430',6.95
'0:08.434',7.24
'0:08.438',3.85
'0:08.441',-1.81
'0:08.445',-7.03
'0:08.449',-10.73
'0:08.453',-12.38
'0:08.457',-11.87
'0:08.461',-9.99
'0:08.465',-7.52
'0:08.469',-5.12
'0:08.473',-3.24
'0:08.477',-1.92
'0:08.480',-1.08
'0:08.484',-0.59
'0:08.488',-0.29
'0:08.492',-0.07
'0:08.496',0.18
'0:08.500',0.5
'0:08.504',0.87
'0:08.508',1.12
'0:08.512',1.24
'0:08.516',1.35
'0:08.520',1.47
'0:08.523',1.53
'0:08.527',1.64
'0:08.531',1.72
'0:08.535',1.9
'0:08.539',2.16
'0:08.543',2.41
'0:08.547',2.72
'0:08.551',3.25
'0:08.555',3.77
'0:08.559',4.22
'0:08.563',4.67
'0:08.566',5.18
'0:08.570',5.69
'0:08.574',6.1
'0:08.578',6.41
'0:08.582',6.53
'0:08.586',6.49
'0:08.590',6.32
'0:08.594',5.99
'0:08.598',5.32
'0:08.602',4.61
'0:08.605',3.85
'0:08.609',3.05
'0:08.613',2.27
'0:08.617',1.49
'0:08.621',0.69
'0:08.625',-0.04
'0:08.629',-0.52
'0:08.633',-0.84
'0:08.637',-1.13
'0:08.641',-1.47
'0:08.645',-1.52
'0:08.648',-1.46
'0:08.652',-1.4
'0:08.656',-1.22
'0:08.660',-1
'0:08.664',-0.73
'0:08.668',-0.55
'0:08.672',-0.39
'0:08.676',-0.17
'0:08.680',0
'0:08.684',0.1
'0:08.688',0.19
'0:08.691',0.22
'0:08.695',0.08
'0:08.699',-0.16
'0:08.703',-0.35
'0:08.707',-0.5
'0:08.711',-0.65
'0:08.715',-1.06
'0:08.719',-1.5
'0:08.723',-1.93
'0:08.727',-2.46
'0:08.730',-2.91
'0:08.734',-3.05
'0:08.738',-3.16
'0:08.742',-3.37
'0:08.746',-3.51
'0:08.750',-3.32
'0:08.754',-3.05
'0:08.758',-2.8
'0:08.762',-2.84
'0:08.766',-3
'0:08.770',-3.04
'0:08.773',-2.59
'0:08.777',-2.06
'0:08.781',-1.26
'0:08.785',0.17
'0:08.789',2.16
'0:08.793',3.62
'0:08.797',4.42
'0:08.801',4.6
'0:08.805',2.15
'0:08.809',-3.48
'0:08.813',-8.73
'0:08.816',-11.79
'0:08.820',-12.75
'0:08.824',-12.09
'0:08.828',-10.03
'0:08.832',-7.2
'0:08.836',-4.48
'0:08.840',-2.31
'0:08.844',-0.62
'0:08.848',0.58
'0:08.852',1.61
'0:08.855',2.24
'0:08.859',2.49
'0:08.863',2.51
'0:08.867',2.7
'0:08.871',2.91
'0:08.875',2.97
'0:08.879',3.18
'0:08.883',3.53
'0:08.887',3.75
'0:08.891',3.76
'0:08.895',3.83
'0:08.898',4.07
'0:08.902',4.4
'0:08.906',4.55
'0:08.910',4.77
'0:08.914',5.25
'0:08.918',5.81
'0:08.922',6.42
'0:08.926',7.09
'0:08.930',7.66
'0:08.934',8.06
'0:08.938',8.49
'0:08.941',8.8
'0:08.945',8.61
'0:08.949',8.27
'0:08.953',7.75
'0:08.957',7.09
'0:08.961',6.27
'0:08.965',5.25
'0:08.969',4.14
'0:08.973',3.06
'0:08.977',2.08
'0:08.980',1.15
'0:08.984',0.22
'0:08.988',-0.63
'0:08.992',-1.34
'0:08.996',-1.76
'0:09.000',-1.99
'0:09.004',-2.22
'0:09.008',-2.11
'0:09.012',-1.99
'0:09.016',-2.14
'0:09.020',-2.36
'0:09.023',-2.31
'0:09.027',-2.15
'0:09.031',-2.07
'0:09.035',-1.93
'0:09.039',-1.68
'0:09.043',-1.41
'0:09.047',-1.26
'0:09.051',-1.17
'0:09.055',-1.12
'0:09.059',-1.06
'0:09.063',-0.98
'0:09.066',-0.94
'0:09.070',-1.04
'0:09.074',-1.3
'0:09.078',-1.77
'0:09.082',-2.23
'0:09.086',-2.57
'0:09.090',-2.91
'0:09.094',-3.32
'0:09.098',-3.81
'0:09.102',-4.11
'0:09.105',-4.26
'0:09.109',-4.26
'0:09.113',-4.21
'0:09.117',-4.23
'0:09.121',-4.17
'0:09.125',-3.99
'0:09.129',-3.92
'0:09.133',-3.97
'0:09.137',-4.3
'0:09.141',-4.5
'0:09.145',-4.06
'0:09.148',-2.89
'0:09.152',-0.93
'0:09.156',1.59
'0:09.160',4.01
'0:09.164',6.14
'0:09.168',7.44
'0:09.172',5.63
'0:09.176',-0.06
'0:09.180',-6.04
'0:09.184',-10.28
'0:09.188',-12.42
'0:09.191',-12.56
'0:09.195',-11.15
'0:09.199',-8.92
'0:09.203',-6.45
'0:09.207',-4.24
'0:09.211',-2.49
'0:09.215',-1.24
'0:09.219',-0.43
'0:09.223',0.07
'0:09.227',0.41
'0:09.230',0.65
'0:09.234',0.85
'0:09.238',1.03
'0:09.242',1.24
'0:09.246',1.43
'0:09.250',1.61
'0:09.254',1.71
'0:09.258',1.85
'0:09.262',2.04
'0:09.266',2.19
'0:09.270',2.34
'0:09.273',2.46
'0:09.277',2.55
'0:09.281',2.73
'0:09.285',2.99
'0:09.289',3.29
'0:09.293',3.55
'0:09.297',3.94
'0:09.301',4.5
'0:09.305',4.96
'0:09.309',5.32
'0:09.313',5.63
'0:09.316',5.63
'0:09.320',6.01
'0:09.324',6.1
'0:09.328',5.69
'0:09.332',5.09
'0:09.336',4.38
'0:09.340',3.59
'0:09.344',2.66
'0:09.348',1.75
'0:09.352',0.98
'0:09.355',0.48
'0:09.359',0.06
'0:09.363',-0.41
'0:09.367',-0.75
'0:09.371',-0.99
'0:09.375',-1.09
'0:09.379',-1.07
'0:09.383',-0.92
'0:09.387',-0.67
'0:09.391',-0.41
'0:09.395',-0.26
'0:09.398',-0.21
'0:09.402',-0.13
'0:09.406',-0.12
'0:09.410',-0.02
'0:09.414',0.22
'0:09.418',0.37
'0:09.422',0.37
'0:09.426',0.21
'0:09.430',0.05
'0:09.434',0.18
'0:09.438',0.13
'0:09.441',-0.13
'0:09.445',-0.27
'0:09.449',-0.38
'0:09.453',-0.79
'0:09.457',-1.46
'0:09.461',-2.01
'0:09.465',-2.51
'0:09.469',-3.15
'0:09.473',-3.28
'0:09.477',-3.17
'0:09.480',-3.18
'0:09.484',-3.49
'0:09.488',-3.65
'0:09.492',-3.55
'0:09.496',-3.46
'0:09.500',-3.48
'0:09.504',-3.86
'0:09.508',-4.23
'0:09.512',-3.84
'0:09.516',-2.5
'0:09.520',-0.44
'0:09.523',2.15
'0:09.527',4.97
'0:09.531',7.73
'0:09.535',9.57
'0:09.539',8.16
'0:09.543',2.91
'0:09.547',-3.04
'0:09.551',-7.71
'0:09.555',-10.44
'0:09.559',-10.96
'0:09.563',-9.85
'0:09.566',-7.94
'0:09.570',-5.9
'0:09.574',-4.15
'0:09.578',-2.71
'0:09.582',-1.76
'0:09.586',-1.3
'0:09.590',-0.91
'0:09.594',-0.45
'0:09.598',0.02
'0:09.602',0.37
'0:09.605',0.54
'0:09.609',0.75
'0:09.613',0.95
'0:09.617',1.05
'0:09.621',1.28
'0:09.625',1.58
'0:09.629',1.71
'0:09.633',1.73
'0:09.637',1.81
'0:09.641',2.05
'0:09.645',2.34
'0:09.648',2.61
'0:09.652',2.87
'0:09.656',3.14
'0:09.660',3.41
'0:09.664',3.84
'0:09.668',4.35
'0:09.672',4.77
'0:09.676',5.23
'0:09.680',5.55
'0:09.684',5.7
'0:09.688',5.81
'0:09.691',5.8
'0:09.695',5.55
'0:09.699',5.01
'0:09.703',4.29
'0:09.707',3.62
'0:09.711',3.02
'0:09.715',2.31
'0:09.719',1.54
'0:09.723',0.81
'0:09.727',0.29
'0:09.730',-0.1
'0:09.734',-0.31
'0:09.738',-0.43
'0:09.742',-0.65
'0:09.746',-0.82
'0:09.750',-0.85
'0:09.754',-0.9
'0:09.758',-0.92
'0:09.762',-0.95
'0:09.766',-1.02
'0:09.770',-0.98
'0:09.773',-0.89
'0:09.777',-0.82
'0:09.781',-0.75
'0:09.785',-0.51
'0:09.789',-0.32
'0:09.793',-0.38
'0:09.797',-0.45
'0:09.801',-0.48
'0:09.805',-0.52
'0:09.809',-0.6
'0:09.813',-0.77
'0:09.816',-0.96
'0:09.820',-1.28
'0:09.824',-1.79
'0:09.828',-2.32
'0:09.832',-2.9
'0:09.836',-3.28
'0:09.840',-3.45
'0:09.844',-3.55
'0:09.848',-3.54
'0:09.852',-3.43
'0:09.855',-3.36
'0:09.859',-3.43
'0:09.863',-3.39
'0:09.867',-3.31
'0:09.871',-3.33
'0:09.875',-3.59
'0:09.879',-3.87
'0:09.883',-3.52
'0:09.887',-2.42
'0:09.891',-0.61
'0:09.895',1.65
'0:09.898',3.99
'0:09.902',6.26
'0:09.906',7.69
'0:09.910',6.01
'0:09.914',0.69
'0:09.918',-5.21
'0:09.922',-9.78
'0:09.926',-12.35
'0:09.930',-12.76
'0:09.934',-11.52
'0:09.938',-9.29
'0:09.941',-6.83
'0:09.945',-4.65
'0:09.949',-2.96
'0:09.953',-1.78
'0:09.957',-0.89
'0:09.961',-0.47
'0:09.965',-0.17
'0:09.969',0.12
'0:09.973',0.45
'0:09.977',0.68
'0:09.980',0.97
'0:09.984',1.34
'0:09.988',1.57
'0:09.992',1.61
'0:09.996',1.65
'0:10.000',1.87
'0:10.004',2.11
'0:10.008',2.33
'0:10.012',2.53
'0:10.016',2.68
'0:10.020',3.02
'0:10.023',3.42
'0:10.027',3.8
'0:10.031',4.21
'0:10.035',4.7
'0:10.039',5.2
'0:10.043',5.67
'0:10.047',6.25
'0:10.051',6.68
'0:10.055',6.9
'0:10.059',6.97
'0:10.063',6.73
'0:10.066',6.34
'0:10.070',5.89
'0:10.074',5.16
'0:10.078',4.19
'0:10.082',3.23
'0:10.086',2.32
'0:10.090',1.41
'0:10.094',0.7
'0:10.098',0.21
'0:10.102',-0.11
'0:10.105',-0.4
'0:10.109',-0.82
'0:10.113',-1.23
'0:10.117',-1.53
'0:10.121',-1.5
'0:10.125',-1.2
'0:10.129',-0.95
'0:10.133',-0.94
'0:10.137',-1.02
'0:10.141',-0.87
'0:10.145',-0.57
'0:10.148',-0.24
'0:10.152',0.04
'0:10.156',0.23
'0:10.160',0.18
'0:10.164',0.2
'0:10.168',0.27
'0:10.172',0.36
'0:10.176',0.34
'0:10.180',0.13
'0:10.184',-0.19
'0:10.188',-0.62
'0:10.191',-1.01
'0:10.195',-1.28
'0:10.199',-1.76
'0:10.203',-2.37
'0:10.207',-2.77
'0:10.211',-3.03
'0:10.215',-3.09
'0:10.219',-3.02
'0:10.223',-3
'0:10.227',-3.16
'0:10.230',-3.4
'0:10.234',-3.44
'0:10.238',-3.2
'0:10.242',-2.92
'0:10.246',-3.09
'0:10.250',-3.45
'0:10.254',-3.28
'0:10.258',-2.13
'0:10.262',0.12
'0:10.266',2.88
'0:10.270',5.29
'0:10.273',7.24
'0:10.277',8.02
'0:10.281',4.97
'0:10.285',-1.4
'0:10.289',-7.32
'0:10.293',-11.16
'0:10.297',-12.69
'0:10.301',-12.18
'0:10.305',-10.43
'0:10.309',-8.11
'0:10.313',-5.85
'0:10.316',-3.64
'0:10.320',-1.84
'0:10.324',-0.56
'0:10.328',0.28
'0:10.332',0.7
'0:10.336',1.16
'0:10.340',1.46
'0:10.344',1.61
'0:10.348',1.63
'0:10.352',1.73
'0:10.355',1.88
'0:10.359',2.24
'0:10.363',2.44
'0:10.367',2.39
'0:10.371',2.39
'0:10.375',2.67
'0:10.379',2.87
'0:10.383',2.85
'0:10.387',2.97
'0:10.391',3.14
'0:10.395',3.43
'0:10.398',4.02
'0:10.402',4.83
'0:10.406',5.28
'0:10.410',5.62
'0:10.414',6.06
'0:10.418',6.38
'0:10.422',6.63
'0:10.426',6.94
'0:10.430',7
'0:10.434',6.83
'0:10.438',6.47
'0:10.441',5.75
'0:10.445',4.7
'0:10.449',3.74
'0:10.453',2.88
'0:10.457',2.01
'0:10.461',1.21
'0:10.465',0.43
'0:10.469',-0.15
'0:10.473',-0.54
'0:10.477',-0.94
'0:10.480',-1.16
'0:10.484',-1.28
'0:10.488',-1.39
'0:10.492',-1.45
'0:10.496',-1.32
'0:10.500',-1.05
'0:10.504',-0.79
'0:10.508',-0.74
'0:10.512',-0.72
'0:10.516',-0.63
'0:10.520',-0.34
'0:10.523',-0.17
'0:10.527',0.03
'0:10.531',0.18
'0:10.535',0.23
'0:10.539',0.22
'0:10.543',0.05
'0:10.547',-0.11
'0:10.551',-0.26
'0:10.555',-0.45
'0:10.559',-0.74
'0:10.563',-1.27
'0:10.566',-1.93
'0:10.570',-2.45
'0:10.574',-2.84
'0:10.578',-3.3
'0:10.582',-3.69
'0:10.586',-3.91
'0:10.590',-3.97
'0:10.594',-3.94
'0:10.598',-3.83
'0:10.602',-3.7
'0:10.605',-3.47
'0:10.609',-3.29
'0:10.613',-3.3
'0:10.617',-3.45
'0:10.621',-3.29
'0:10.625',-2.44
'0:10.629',-0.54
'0:10.633',2.1
'0:10.637',4.52
'0:10.641',6.49
'0:10.645',7.89
'0:10.648',6.91
'0:10.652',1.55
'0:10.656',-4.92
'0:10.660',-9.93
'0:10.664',-12.77
'0:10.668',-13.35
'0:10.672',-12.2
'0:10.676',-10.16
'0:10.680',-7.78
'0:10.684',-5.53
'0:10.688',-3.59
'0:10.691',-2.22
'0:10.695',-1.26
'0:10.699',-0.6
'0:10.703',-0.11
'0:10.707',0.24
'0:10.711',0.51
'0:10.715',0.66
'0:10.719',0.78
'0:10.723',1.04
'0:10.727',1.32
'0:10.730',1.53
'0:10.734',1.66
'0:10.738',1.71
'0:10.742',1.73
'0:10.746',1.85
'0:10.750',2.03
'0:10.754',2.22
'0:10.758',2.48
'0:10.762',2.78
'0:10.766',3.14
'0:10.770',3.65
'0:10.773',4.09
'0:10.777',4.43
'0:10.781',4.84
'0:10.785',5.27
'0:10.789',5.6
'0:10.793',5.82
'0:10.797',5.92
'0:10.801',5.92
'0:10.805',5.8
'0:10.809',5.43
'0:10.813',4.89
'0:10.816',4.06
'0:10.820',3.2
'0:10.824',2.41
'0:10.828',1.73
'0:10.832',1.06
'0:10.836',0.42
'0:10.840',-0.1
'0:10.844',-0.52
'0:10.848',-0.91
'0:10.852',-1.11
'0:10.855',-1.1
'0:10.859',-0.92
'0:10.863',-0.73
'0:10.867',-0.65
'0:10.871',-0.68
'0:10.875',-0.65
'0:10.879',-0.6
'0:10.883',-0.58
'0:10.887',-0.47
'0:10.891',-0.31
'0:10.895',-0.12
'0:10.898',0
'0:10.902',0.12
'0:10.906',0.23
'0:10.910',0.28
'0:10.914',0.16
'0:10.918',-0.09
'0:10.922',-0.34
'0:10.926',-0.6
'0:10.930',-0.98
'0:10.934',-1.48
'0:10.938',-2.05
'0:10.941',-2.57
'0:10.945',-2.92
'0:10.949',-3.18
'0:10.953',-3.37
'0:10.957',-3.45
'0:10.961',-3.48
'0:10.965',-3.45
'0:10.969',-3.41
'0:10.973',-3.32
'0:10.977',-3.16
'0:10.980',-3.31
'0:10.984',-3.71
'0:10.988',-3.94
'0:10.992',-3.47
'0:10.996',-2.15
'0:11.000',0.12
'0:11.004',3.01
'0:11.008',5.98
'0:11.012',8.5
'0:11.016',9.78
'0:11.020',7.6
'0:11.023',1.93
'0:11.027',-4.13
'0:11.031',-8.89
'0:11.035',-11.52
'0:11.039',-11.77
'0:11.043',-10.48
'0:11.047',-8.4
'0:11.051',-6.2
'0:11.055',-4.35
'0:11.059',-2.87
'0:11.063',-1.86
'0:11.066',-1.18
'0:11.070',-0.67
'0:11.074',-0.22
'0:11.078',0.14
'0:11.082',0.35
'0:11.086',0.41
'0:11.090',0.47
'0:11.094',0.63
'0:11.098',0.9
'0:11.102',1.22
'0:11.105',1.41
'0:11.109',1.4
'0:11.113',1.37
'0:11.117',1.58
'0:11.121',1.94
'0:11.125',2.19
'0:11.129',2.38
'0:11.133',2.63
'0:11.137',2.89
'0:11.141',3.19
'0:11.145',3.65
'0:11.148',4.19
'0:11.152',4.67
'0:11.156',5.1
'0:11.160',5.58
'0:11.164',5.87
'0:11.168',5.9
'0:11.172',5.69
'0:11.176',5.45
'0:11.180',5.15
'0:11.184',4.48
'0:11.188',3.64
'0:11.191',2.82
'0:11.195',2.18
'0:11.199',1.58
'0:11.203',0.95
'0:11.207',0.36
'0:11.211',-0.12
'0:11.215',-0.5
'0:11.219',-0.75
'0:11.223',-0.94
'0:11.227',-1.08
'0:11.230',-1.12
'0:11.234',-1.04
'0:11.238',-0.85
'0:11.242',-0.73
'0:11.246',-0.71
'0:11.250',-0.6
'0:11.254',-0.51
'0:11.258',-0.23
'0:11.262',-0.04
'0:11.266',0.06
'0:11.270',0.08
'0:11.273',0.09
'0:11.277',0.08
'0:11.281',-0.04
'0:11.285',-0.16
'0:11.289',-0.27
'0:11.293',-0.55
'0:11.297',-0.99
'0:11.301',-1.4
'0:11.305',-1.82
'0:11.309',-2.25
'0:11.313',-2.67
'0:11.316',-3.08
'0:11.320',-3.43
'0:11.324',-3.73
'0:11.328',-3.78
'0:11.332',-3.54
'0:11.336',-3.39
'0:11.340',-3.36
'0:11.344',-3.38
'0:11.348',-3.29
'0:11.352',-3.31
'0:11.355',-3.6
'0:11.359',-3.79
'0:11.363',-3.43
'0:11.367',-2.22
'0:11.371',-0.14
'0:11.375',2.48
'0:11.379',5.07
'0:11.383',7.38
'0:11.387',8.34
'0:11.391',5.62
'0:11.395',0.14
'0:11.398',-5.31
'0:11.402',-9.39
'0:11.406',-11.35
'0:11.410',-11.14
'0:11.414',-9.52
'0:11.418',-7.45
'0:11.422',-5.35
'0:11.426',-3.5
'0:11.430',-2.16
'0:11.434',-1.22
'0:11.438',-0.64
'0:11.441',-0.27
'0:11.445',-0.05
'0:11.449',0.17
'0:11.453',0.43
'0:11.457',0.63
'0:11.461',0.75
'0:11.465',0.87
'0:11.469',1.05
'0:11.473',1.16
'0:11.477',1.25
'0:11.480',1.31
'0:11.484',1.44
'0:11.488',1.63
'0:11.492',1.83
'0:11.496',2.05
'0:11.500',2.19
'0:11.504',2.41
'0:11.508',2.84
'0:11.512',3.4
'0:11.516',3.99
'0:11.520',4.6
'0:11.523',5.12
'0:11.527',5.51
'0:11.531',5.78
'0:11.535',5.99
'0:11.539',6.09
'0:11.543',5.9
'0:11.547',5.57
'0:11.551',5.01
'0:11.555',4.26
'0:11.559',3.43
'0:11.563',2.63
'0:11.566',1.82
'0:11.570',0.98
'0:11.574',0.26
'0:11.578',-0.37
'0:11.582',-0.7
'0:11.586',-0.94
'0:11.590',-1.23
'0:11.594',-1.5
'0:11.598',-1.68
'0:11.602',-1.61
'0:11.605',-1.44
'0:11.609',-1.29
'0:11.613',-1.22
'0:11.617',-1.16
'0:11.621',-1.12
'0:11.625',-1.02
'0:11.629',-0.86
'0:11.633',-0.69
'0:11.637',-0.41
'0:11.641',-0.17
'0:11.645',0
'0:11.648',0.12
'0:11.652',0.11
'0:11.656',-0.07
'0:11.660',-0.36
'0:11.664',-0.58
'0:11.668',-0.84
'0:11.672',-1.28
'0:11.676',-1.73
'0:11.680',-2.14
'0:11.684',-2.55
'0:11.688',-2.98
'0:11.691',-3.38
'0:11.695',-3.5
'0:11.699',-3.48
'0:11.703',-3.46
'0:11.707',-3.41
'0:11.711',-3.36
'0:11.715',-3.31
'0:11.719',-3.21
'0:11.723',-3.36
'0:11.727',-3.77
'0:11.730',-3.92
'0:11.734',-3.42
'0:11.738',-2.11
'0:11.742',0.08
'0:11.746',2.82
'0:11.750',5.39
'0:11.754',7.65
'0:11.758',8.6
'0:11.762',5.45
'0:11.766',-0.88
'0:11.770',-6.75
'0:11.773',-10.74
'0:11.777',-12.33
'0:11.781',-11.67
'0:11.785',-9.79
'0:11.789',-7.53
'0:11.793',-5.23
'0:11.797',-3.17
'0:11.801',-1.58
'0:11.805',-0.6
'0:11.809',0.01
'0:11.813',0.43
'0:11.816',0.88
'0:11.820',1.26
'0:11.824',1.56
'0:11.828',1.77
'0:11.832',1.9
'0:11.836',1.93
'0:11.840',1.96
'0:11.844',2.16
'0:11.848',2.36
'0:11.852',2.53
'0:11.855',2.61
'0:11.859',2.63
'0:11.863',2.71
'0:11.867',2.83
'0:11.871',3.21
'0:11.875',3.65
'0:11.879',4.11
'0:11.883',4.57
'0:11.887',5.06
'0:11.891',5.67
'0:11.895',6.32
'0:11.898',7.01
'0:11.902',7.34
'0:11.906',7.21
'0:11.910',6.86
'0:11.914',6.56
'0:11.918',6.23
'0:11.922',5.74
'0:11.926',4.91
'0:11.930',3.86
'0:11.934',2.73
'0:11.938',1.73
'0:11.941',0.96
'0:11.945',0.47
'0:11.949',0.09
'0:11.953',-0.28
'0:11.957',-0.72
'0:11.961',-1.08
'0:11.965',-1.24
'0:11.969',-1.26
'0:11.973',-1.22
'0:11.977',-0.97
'0:11.980',-0.65
'0:11.984',-0.59
'0:11.988',-0.63
'0:11.992',-0.72
'0:11.996',-0.77
'0:12.000',-0.46
'0:12.004',-0.16
'0:12.008',0.15
'0:12.012',0.47
'0:12.016',0.73
'0:12.020',0.81
'0:12.023',0.78
'0:12.027',0.6
'0:12.031',0.18
'0:12.035',0.05
'0:12.039',-0.13
'0:12.043',-0.62
'0:12.047',-1.2
'0:12.051',-1.76
'0:12.055',-2.32
'0:12.059',-2.94
'0:12.063',-3.26
'0:12.066',-3.24
'0:12.070',-3.17
'0:12.074',-3.02
'0:12.078',-2.78
'0:12.082',-2.74
'0:12.086',-2.89
'0:12.090',-3.09
'0:12.094',-3.28
'0:12.098',-3.5
'0:12.102',-3.44
'0:12.105',-2.77
'0:12.109',-1.42
'0:12.113',0.85
'0:12.117',3.74
'0:12.121',6.12
'0:12.125',7.6
'0:12.129',7.5
'0:12.133',3.43
'0:12.137',-3.05
'0:12.141',-8.52
'0:12.145',-11.74
'0:12.148',-12.75
'0:12.152',-12.12
'0:12.156',-10.39
'0:12.160',-7.92
'0:12.164',-5.52
'0:12.168',-3.63
'0:12.172',-2.1
'0:12.176',-0.75
'0:12.180',0.29
'0:12.184',0.95
'0:12.188',1.05
'0:12.191',1.05
'0:12.195',1.59
'0:12.199',1.95
'0:12.203',1.64
'0:12.207',1.56
'0:12.211',1.97
'0:12.215',2.3
'0:12.219',2.34
'0:12.223',2.41
'0:12.227',2.82
'0:12.230',3.18
'0:12.234',3.36
'0:12.238',3.51
'0:12.242',3.68
'0:12.246',3.79
'0:12.250',4
'0:12.254',4.35
'0:12.258',5.18
'0:12.262',5.87
'0:12.266',6.09
'0:12.270',6.52
'0:12.273',7.25
'0:12.277',7.73
'0:12.281',7.21
'0:12.285',6.57
'0:12.289',6.05
'0:12.293',5.46
'0:12.297',4.65
'0:12.301',3.87
'0:12.305',3.03
'0:12.309',1.72
'0:12.313',0.53
'0:12.316',-0.06
'0:12.320',-0.33
'0:12.324',-0.6
'0:12.328',-0.89
'0:12.332',-1.18
'0:12.336',-1.6
'0:12.340',-1.89
'0:12.344',-1.72
'0:12.348',-1.3
'0:12.352',-1
'0:12.355',-0.79
'0:12.359',-0.63
'0:12.363',-0.77
'0:12.367',-0.85
'0:12.371',-0.66
'0:12.375',-0.86
'0:12.379',-0.55
'0:12.383',0.11
'0:12.387',-0.09
'0:12.391',0.16
'0:12.395',0.56
'0:12.398',-0.21
'0:12.402',-0.84
'0:12.406',-0.95
'0:12.410',-1.17
'0:12.414',-1.48
'0:12.418',-1.37
'0:12.422',-2.28
'0:12.426',-3.79
'0:12.430',-3.95
'0:12.434',-3.96
'0:12.438',-4.25
'0:12.441',-4.08
'0:12.445',-3.68
'0:12.449',-3.35
'0:12.453',-3.28
'0:12.457',-3.55
'0:12.461',-3.87
'0:12.465',-3.94
'0:12.469',-3.63
'0:12.473',-3.15
'0:12.477',-2.36
'0:12.480',-0.43
'0:12.484',2.5
'0:12.488',4.84
'0:12.492',6.68
'0:12.496',7.97
'0:12.500',6.92
'0:12.504',2.83
'0:12.508',-3.28
'0:12.512',-9.47
'0:12.516',-12.91
'0:12.520',-13.78
'0:12.523',-13
'0:12.527',-11.05
'0:12.531',-8.43
'0:12.535',-5.9
'0:12.539',-3.69
'0:12.543',-2.7
'0:12.547',-2.54
'0:12.551',-1.46
'0:12.555',-0.36
'0:12.559',0.4
'0:12.563',0.78
'0:12.566',1.08
'0:12.570',1.45
'0:12.574',1.42
'0:12.578',0.51
'0:12.582',0.2
'0:12.586',0.89
'0:12.590',1.25
'0:12.594',1.13
'0:12.598',1.45
'0:12.602',2.49
'0:12.605',2.5
'0:12.609',1.86
'0:12.613',2.2
'0:12.617',3.2
'0:12.621',3.47
'0:12.625',3.27
'0:12.629',3.7
'0:12.633',4.34
'0:12.637',5.01
'0:12.641',5.6
'0:12.645',5.63
'0:12.648',5.49
'0:12.652',5.49
'0:12.656',5.49
'0:12.660',5.15
'0:12.664',4.75
'0:12.668',4.06
'0:12.672',3.14
'0:12.676',2.17
'0:12.680',1.22
'0:12.684',0.45
'0:12.688',-0.1
'0:12.691',-0.6
'0:12.695',-0.99
'0:12.699',-1.33
'0:12.703',-1.43
'0:12.707',-1.45
'0:12.711',-1.49
'0:12.715',-1.34
'0:12.719',-1.14
'0:12.723',-1.07
'0:12.727',-0.99
'0:12.730',-0.82
'0:12.734',-0.58
'0:12.738',-0.32
'0:12.742',-0.1
'0:12.746',-0.09
'0:12.750',0.02
'0:12.754',0.25
'0:12.758',0.35
'0:12.762',0.34
'0:12.766',0.18
'0:12.770',-0.04
'0:12.773',-0.33
'0:12.777',-0.6
'0:12.781',-0.92
'0:12.785',-1.33
'0:12.789',-1.79
'0:12.793',-2.33
'0:12.797',-2.86
'0:12.801',-3.16
'0:12.805',-3.27
'0:12.809',-3.4
'0:12.813',-3.44
'0:12.816',-3.25
'0:12.820',-3
'0:12.824',-2.95
'0:12.828',-2.95
'0:12.832',-2.99
'0:12.836',-3.16
'0:12.840',-3.28
'0:12.844',-2.95
'0:12.848',-1.82
'0:12.852',0.13
'0:12.855',2.7
'0:12.859',5.22
'0:12.863',7.13
'0:12.867',8.09
'0:12.871',6.28
'0:12.875',0.66
'0:12.879',-5.32
'0:12.883',-9.62
'0:12.887',-11.9
'0:12.891',-12.08
'0:12.895',-10.73
'0:12.898',-8.48
'0:12.902',-6.1
'0:12.906',-3.98
'0:12.910',-2.22
'0:12.914',-0.89
'0:12.918',-0.1
'0:12.922',0.4
'0:12.926',0.47
'0:12.930',1.17
'0:12.934',1.22
'0:12.938',1.22
'0:12.941',1.22
'0:12.945',1.22
'0:12.949',1.23
'0:12.953',1.22
'0:12.957',1.22
'0:12.961',1.22
'0:12.965',2.05
'0:12.969',2.1
'0:12.973',2.19
'0:12.977',2.2
'0:12.980',2.19
'0:12.984',2.2
'0:12.988',3.09
'0:12.992',3.5
'0:12.996',4.02
'0:13.000',4.52
'0:13.004',5.01
'0:13.008',5.46
'0:13.012',5.83
'0:13.016',6.06
'0:13.020',6.1
'0:13.023',5.93
'0:13.027',5.61
'0:13.031',5.18
'0:13.035',4.57
'0:13.039',3.67
'0:13.043',2.7
'0:13.047',1.87
'0:13.051',1.16
'0:13.055',0.57
'0:13.059',0.02
'0:13.063',-0.47
'0:13.066',-0.79
'0:13.070',-1.09
'0:13.074',-1.31
'0:13.078',-1.46
'0:13.082',-1.43
'0:13.086',-1.29
'0:13.090',-1.05
'0:13.094',-0.83
'0:13.098',-0.71
'0:13.102',-0.68
'0:13.105',-0.68
'0:13.109',-0.56
'0:13.113',-0.34
'0:13.117',-0.21
'0:13.121',-0.16
'0:13.125',-0.16
'0:13.129',-0.14
'0:13.133',-0.14
'0:13.137',-0.26
'0:13.141',-0.53
'0:13.145',-0.86
'0:13.148',-1.13
'0:13.152',-1.43
'0:13.156',-1.89
'0:13.160',-2.49
'0:13.164',-3.15
'0:13.168',-3.68
'0:13.172',-4.01
'0:13.176',-4.16
'0:13.180',-4.14
'0:13.184',-4.04
'0:13.188',-3.9
'0:13.191',-3.74
'0:13.195',-3.66
'0:13.199',-3.58
'0:13.203',-3.67
'0:13.207',-3.97
'0:13.211',-4.06
'0:13.215',-3.52
'0:13.219',-2.03
'0:13.223',0.3
'0:13.227',3.12
'0:13.230',5.92
'0:13.234',8.42
'0:13.238',9.69
'0:13.242',7.07
'0:13.246',0.82
'0:13.250',-5.42
'0:13.254',-10.04
'0:13.258',-12.25
'0:13.262',-12.11
'0:13.266',-10.42
'0:13.270',-8.1
'0:13.273',-5.95
'0:13.277',-4.24
'0:13.281',-3
'0:13.285',-2.06
'0:13.289',-1.35
'0:13.293',-0.83
'0:13.297',-0.34
'0:13.301',-0.04
'0:13.305',0.15
'0:13.309',0.32
'0:13.313',0.48
'0:13.316',0.66
'0:13.320',0.8
'0:13.324',0.99
'0:13.328',1.21
'0:13.332',1.39
'0:13.336',1.39
'0:13.340',1.41
'0:13.344',1.56
'0:13.348',1.87
'0:13.352',2.24
'0:13.355',2.61
'0:13.359',2.96
'0:13.363',3.46
'0:13.367',4.08
'0:13.371',4.64
'0:13.375',5.14
'0:13.379',5.58
'0:13.383',5.9
'0:13.387',6.14
'0:13.391',6.17
'0:13.395',5.95
'0:13.398',5.57
'0:13.402',5.17
'0:13.406',4.64
'0:13.410',3.99
'0:13.414',3.23
'0:13.418',2.43
'0:13.422',1.6
'0:13.426',0.94
'0:13.430',0.38
'0:13.434',-0.24
'0:13.438',-0.67
'0:13.441',-0.87
'0:13.445',-0.97
'0:13.449',-1.02
'0:13.453',-1.11
'0:13.457',-1.16
'0:13.461',-1.02
'0:13.465',-0.75
'0:13.469',-0.61
'0:13.473',-0.69
'0:13.477',-0.7
'0:13.480',-0.63
'0:13.484',-0.46
'0:13.488',-0.21
'0:13.492',0.08
'0:13.496',0.27
'0:13.500',0.35
'0:13.504',0.37
'0:13.508',0.37
'0:13.512',0.15
'0:13.516',-0.14
'0:13.520',-0.31
'0:13.523',-0.46
'0:13.527',-0.8
'0:13.531',-1.25
'0:13.535',-1.69
'0:13.539',-2.11
'0:13.543',-2.59
'0:13.547',-3.02
'0:13.551',-3.18
'0:13.555',-3.24
'0:13.559',-3.24
'0:13.563',-3.05
'0:13.566',-2.97
'0:13.570',-2.92
'0:13.574',-2.92
'0:13.578',-2.92
'0:13.582',-3.11
'0:13.586',-3.45
'0:13.590',-3.26
'0:13.594',-2.33
'0:13.598',-0.66
'0:13.602',1.83
'0:13.605',4.55
'0:13.609',7.08
'0:13.613',8.94
'0:13.617',8.08
'0:13.621',3.44
'0:13.625',-2.34
'0:13.629',-7.27
'0:13.633',-10.28
'0:13.637',-10.94
'0:13.641',-9.75
'0:13.645',-7.78
'0:13.648',-5.62
'0:13.652',-3.75
'0:13.656',-2.22
'0:13.660',-1.1
'0:13.664',-0.37
'0:13.668',0.02
'0:13.672',0.31
'0:13.676',0.58
'0:13.680',0.92
'0:13.684',1.27
'0:13.688',1.53
'0:13.691',1.65
'0:13.695',1.76
'0:13.699',1.93
'0:13.703',2.06
'0:13.707',2.17
'0:13.711',2.31
'0:13.715',2.47
'0:13.719',2.62
'0:13.723',2.74
'0:13.727',2.9
'0:13.730',3.12
'0:13.734',3.48
'0:13.738',3.92
'0:13.742',4.37
'0:13.746',4.87
'0:13.750',5.41
'0:13.754',5.85
'0:13.758',6.16
'0:13.762',6.32
'0:13.766',6.41
'0:13.770',6.33
'0:13.773',6.12
'0:13.777',5.74
'0:13.781',5.16
'0:13.785',4.41
'0:13.789',3.65
'0:13.793',2.89
'0:13.797',2.16
'0:13.801',1.44
'0:13.805',0.77
'0:13.809',0.14
'0:13.813',-0.28
'0:13.816',-0.62
'0:13.820',-0.82
'0:13.824',-1.06
'0:13.828',-1.36
'0:13.832',-1.46
'0:13.836',-1.44
'0:13.840',-1.31
'0:13.844',-1.12
'0:13.848',-1.05
'0:13.852',-0.97
'0:13.855',-0.9
'0:13.859',-0.76
'0:13.863',-0.58
'0:13.867',-0.49
'0:13.871',-0.34
'0:13.875',-0.2
'0:13.879',-0.14
'0:13.883',-0.07
'0:13.887',-0.14
'0:13.891',-0.38
'0:13.895',-0.62
'0:13.898',-0.99
'0:13.902',-1.47
'0:13.906',-1.98
'0:13.910',-2.47
'0:13.914',-2.99
'0:13.918',-3.59
'0:13.922',-4.03
'0:13.926',-4.33
'0:13.930',-4.43
'0:13.934',-4.36
'0:13.938',-4.26
'0:13.941',-4.21
'0:13.945',-4.29
'0:13.949',-4.32
'0:13.953',-4.21
'0:13.957',-4.33
'0:13.961',-4.57
'0:13.965',-4.51
'0:13.969',-3.74
'0:13.973',-2
'0:13.977',0.38
'0:13.980',2.72
'0:13.984',4.95
'0:13.988',6.71
'0:13.992',5.89
'0:13.996',1
'0:14.000',-5.06
'0:14.004',-7.77
'0:14.008',-12.9
'0:14.012',-12.87
'0:14.016',-11.38
'0:14.020',-9.1
'0:14.023',-6.71
'0:14.027',-4.59
'0:14.031',-2.9
'0:14.035',-1.55
'0:14.039',-0.52
'0:14.043',0.1
'0:14.047',0.39
'0:14.051',0.51
'0:14.055',0.85
'0:14.059',1.17
'0:14.063',1.36
'0:14.066',1.49
'0:14.070',1.59
'0:14.074',1.71
'0:14.078',1.83
'0:14.082',1.97
'0:14.086',2.22
'0:14.090',2.63
'0:14.094',2.92
'0:14.098',2.98
'0:14.102',3
'0:14.105',3.26
'0:14.109',3.79
'0:14.113',4.34
'0:14.117',4.77
'0:14.121',5.26
'0:14.125',5.91
'0:14.129',6.55
'0:14.133',6.9
'0:14.137',6.97
'0:14.141',6.92
'0:14.145',6.88
'0:14.148',6.59
'0:14.152',6.06
'0:14.156',5.2
'0:14.160',4.37
'0:14.164',3.48
'0:14.168',2.6
'0:14.172',1.7
'0:14.176',0.99
'0:14.180',0.43
'0:14.184',0.03
'0:14.188',-0.44
'0:14.191',-0.84
'0:14.195',-1.14
'0:14.199',-1.24
'0:14.203',-1.17
'0:14.207',-0.98
'0:14.211',-1
'0:14.215',-1.16
'0:14.219',-1.12
'0:14.223',-0.83
'0:14.227',-0.63
'0:14.230',-0.43
'0:14.234',-0.19
'0:14.238',-0.06
'0:14.242',0.24
'0:14.246',0.58
'0:14.250',0.75
'0:14.254',0.83
'0:14.258',0.77
'0:14.262',0.62
'0:14.266',0.4
'0:14.270',0.32
'0:14.273',0.08
'0:14.277',-0.35
'0:14.281',-0.79
'0:14.285',-1.31
'0:14.289',-1.81
'0:14.293',-2.42
'0:14.297',-2.76
'0:14.301',-2.87
'0:14.305',-2.99
'0:14.309',-3.01
'0:14.313',-3.06
'0:14.316',-3.06
'0:14.320',-2.88
'0:14.324',-2.77
'0:14.328',-2.72
'0:14.332',-2.92
'0:14.336',-3.18
'0:14.340',-3.15
'0:14.344',-2.51
'0:14.348',-1.07
'0:14.352',1.23
'0:14.355',3.64
'0:14.359',5.8
'0:14.363',7.61
'0:14.367',7.39
'0:14.371',2.66
'0:14.375',-3.94
'0:14.379',-9.09
'0:14.383',-11.96
'0:14.387',-12.54
'0:14.391',-11.63
'0:14.395',-9.77
'0:14.398',-7.3
'0:14.402',-4.79
'0:14.406',-2.75
'0:14.410',-1.21
'0:14.414',-0.18
'0:14.418',0.43
'0:14.422',0.82
'0:14.426',1.17
'0:14.430',1.36
'0:14.434',1.58
'0:14.438',1.91
'0:14.441',2.12
'0:14.445',2.2
'0:14.449',2.21
'0:14.453',2.29
'0:14.457',2.46
'0:14.461',2.6
'0:14.465',2.68
'0:14.469',2.79
'0:14.473',3.02
'0:14.477',3.32
'0:14.480',3.7
'0:14.484',4.18
'0:14.488',4.55
'0:14.492',4.89
'0:14.496',5.43
'0:14.500',6.13
'0:14.504',6.72
'0:14.508',7.09
'0:14.512',7.17
'0:14.516',7.14
'0:14.520',7.07
'0:14.523',6.81
'0:14.527',6.26
'0:14.531',5.52
'0:14.535',4.74
'0:14.539',3.85
'0:14.543',2.9
'0:14.547',1.87
'0:14.551',0.84
'0:14.555',0.07
'0:14.559',-0.45
'0:14.563',-0.92
'0:14.566',-1.28
'0:14.570',-1.59
'0:14.574',-1.78
'0:14.578',-1.83
'0:14.582',-1.78
'0:14.586',-1.72
'0:14.590',-1.63
'0:14.594',-1.46
'0:14.598',-1.32
'0:14.602',-1.14
'0:14.605',-1.06
'0:14.609',-1
'0:14.613',-0.83
'0:14.617',-0.49
'0:14.621',-0.22
'0:14.625',-0.12
'0:14.629',-0.11
'0:14.633',-0.13
'0:14.637',-0.19
'0:14.641',-0.29
'0:14.645',-0.45
'0:14.648',-0.75
'0:14.652',-1.05
'0:14.656',-1.32
'0:14.660',-1.74
'0:14.664',-2.25
'0:14.668',-2.86
'0:14.672',-3.32
'0:14.676',-3.51
'0:14.680',-3.65
'0:14.684',-3.75
'0:14.688',-3.73
'0:14.691',-3.63
'0:14.695',-3.5
'0:14.699',-3.38
'0:14.703',-3.38
'0:14.707',-3.58
'0:14.711',-3.91
'0:14.715',-4.04
'0:14.719',-3.51
'0:14.723',-2.1
'0:14.727',0.02
'0:14.730',2.67
'0:14.734',5.23
'0:14.738',7.36
'0:14.742',8.47
'0:14.746',6.1
'0:14.750',-0.01
'0:14.754',-6.31
'0:14.758',-10.93
'0:14.762',-13.13
'0:14.766',-13.09
'0:14.770',-12.24
'0:14.773',-10.14
'0:14.777',-7.66
'0:14.781',-5.42
'0:14.785',-3.58
'0:14.789',-2.27
'0:14.793',-1.41
'0:14.797',-0.83
'0:14.801',-0.39
'0:14.805',-0.19
'0:14.809',0
'0:14.813',0.2
'0:14.816',0.34
'0:14.820',0.63
'0:14.824',0.94
'0:14.828',1.2
'0:14.832',1.2
'0:14.836',1.2
'0:14.840',1.19
'0:14.844',1.19
'0:14.848',2.22
'0:14.852',2.39
'0:14.855',2.58
'0:14.859',2.86
'0:14.863',3.13
'0:14.867',3.53
'0:14.871',4.05
'0:14.875',4.5
'0:14.879',4.97
'0:14.883',5.34
'0:14.887',5.65
'0:14.891',5.85
'0:14.895',5.85
'0:14.898',5.85
'0:14.902',5.66
'0:14.906',5.3
'0:14.910',4.76
'0:14.914',4.06
'0:14.918',3.21
'0:14.922',2.28
'0:14.926',1.38
'0:14.930',0.58
'0:14.934',-0.04
'0:14.938',-0.45
'0:14.941',-0.75
'0:14.945',-1.08
'0:14.949',-1.31
'0:14.953',-1.45
'0:14.957',-1.63
'0:14.961',-1.79
'0:14.965',-1.65
'0:14.969',-1.34
'0:14.973',-1.07
'0:14.977',-0.92
'0:14.980',-0.75
'0:14.984',-0.68
'0:14.988',-0.56
'0:14.992',-0.34
'0:14.996',-0.21
'0:15.000',-0.12
'0:15.004',-0.08
'0:15.008',-0.09
'0:15.012',-0.16
'0:15.016',-0.23
'0:15.020',-0.24
'0:15.023',-0.24
'0:15.027',-0.36
'0:15.031',-0.7
'0:15.035',-1.2
'0:15.039',-1.6
'0:15.043',-1.99
'0:15.047',-2.43
'0:15.051',-2.94
'0:15.055',-3.33
'0:15.059',-3.56
'0:15.063',-3.6
'0:15.066',-3.43
'0:15.070',-3.2
'0:15.074',-3.05
'0:15.078',-2.89
'0:15.082',-2.78
'0:15.086',-2.84
'0:15.090',-3.11
'0:15.094',-3.07
'0:15.098',-2.34
'0:15.102',-0.63
'0:15.105',1.8
'0:15.109',4.38
'0:15.113',6.74
'0:15.117',8.84
'0:15.121',9.26
'0:15.125',5.63
'0:15.129',-0.28
'0:15.133',-5.77
'0:15.137',-9.65
'0:15.141',-11.28
'0:15.145',-10.78
'0:15.148',-8.95
'0:15.152',-6.66
'0:15.156',-4.67
'0:15.160',-3.13
'0:15.164',-1.84
'0:15.168',-0.95
'0:15.172',-0.47
'0:15.176',-0.22
'0:15.180',0.08
'0:15.184',0.4
'0:15.188',0.73
'0:15.191',0.98
'0:15.195',1.1
'0:15.199',1.18
'0:15.203',1.29
'0:15.207',1.53
'0:15.211',1.69
'0:15.215',1.8
'0:15.219',2.02
'0:15.223',2.24
'0:15.227',2.44
'0:15.230',2.61
'0:15.234',2.8
'0:15.238',3.03
'0:15.242',3.39
'0:15.246',3.87
'0:15.250',4.43
'0:15.254',4.92
'0:15.258',5.36
'0:15.262',5.72
'0:15.266',6
'0:15.270',6.1
'0:15.273',6.08
'0:15.277',6
'0:15.281',5.86
'0:15.285',5.54
'0:15.289',4.94
'0:15.293',4.11
'0:15.297',3.28
'0:15.301',2.43
'0:15.305',1.63
'0:15.309',1.01
'0:15.313',0.36
'0:15.316',-0.18
'0:15.320',-0.55
'0:15.324',-0.8
'0:15.328',-1.06
'0:15.332',-1.35
'0:15.336',-1.52
'0:15.340',-1.53
'0:15.344',-1.46
'0:15.348',-1.35
'0:15.352',-1.28
'0:15.355',-1.19
'0:15.359',-1.07
'0:15.363',-0.99
'0:15.367',-1.01
'0:15.371',-0.93
'0:15.375',-0.78
'0:15.379',-0.58
'0:15.383',-0.44
'0:15.387',-0.38
'0:15.391',-0.43
'0:15.395',-0.43
'0:15.398',-0.46
'0:15.402',-0.63
'0:15.406',-0.93
'0:15.410',-1.4
'0:15.414',-1.96
'0:15.418',-2.39
'0:15.422',-2.81
'0:15.426',-3.25
'0:15.430',-3.65
'0:15.434',-3.89
'0:15.438',-4.02
'0:15.441',-3.99
'0:15.445',-3.87
'0:15.449',-3.79
'0:15.453',-3.72
'0:15.457',-3.56
'0:15.461',-3.51
'0:15.465',-3.63
'0:15.469',-3.87
'0:15.473',-4.08
'0:15.477',-3.73
'0:15.480',-2.43
'0:15.484',-0.27
'0:15.488',2.3
'0:15.492',4.85
'0:15.496',7.21
'0:15.500',8.54
'0:15.504',6.3
'0:15.508',0.5
'0:15.512',-5.52
'0:15.516',-10.06
'0:15.520',-12.45
'0:15.523',-12.66
'0:15.527',-11.35
'0:15.531',-9.12
'0:15.535',-6.7
'0:15.539',-4.63
'0:15.543',-3.09
'0:15.547',-2.05
'0:15.551',-1.25
'0:15.555',-0.64
'0:15.559',-0.22
'0:15.563',0.06
'0:15.566',0.27
'0:15.570',0.56
'0:15.574',0.76
'0:15.578',0.97
'0:15.582',1.1
'0:15.586',1.2
'0:15.590',1.28
'0:15.594',1.39
'0:15.598',1.61
'0:15.602',1.88
'0:15.605',2.05
'0:15.609',2.13
'0:15.613',2.39
'0:15.617',2.76
'0:15.621',3.12
'0:15.625',3.58
'0:15.629',4.26
'0:15.633',5.04
'0:15.637',5.75
'0:15.641',6.16
'0:15.645',6.48
'0:15.648',6.66
'0:15.652',6.68
'0:15.656',6.63
'0:15.660',6.42
'0:15.664',5.93
'0:15.668',5.11
'0:15.672',4.18
'0:15.676',3.32
'0:15.680',2.5
'0:15.684',1.72
'0:15.688',0.91
'0:15.691',0.3
'0:15.695',-0.13
'0:15.699',-0.67
'0:15.703',-1.13
'0:15.707',-1.39
'0:15.711',-1.62
'0:15.715',-1.82
'0:15.719',-1.82
'0:15.723',-1.63
'0:15.727',-1.39
'0:15.730',-1.26
'0:15.734',-1.16
'0:15.738',-1.05
'0:15.742',-0.94
'0:15.746',-0.87
'0:15.750',-0.72
'0:15.754',-0.4
'0:15.758',-0.13
'0:15.762',-0.02
'0:15.766',-0.07
'0:15.770',-0.06
'0:15.773',0.02
'0:15.777',0.01
'0:15.781',0.05
'0:15.785',0.08
'0:15.789',-0.23
'0:15.793',-0.74
'0:15.797',-1.45
'0:15.801',-2.16
'0:15.805',-2.6
'0:15.809',-2.87
'0:15.813',-2.87
'0:15.816',-2.82
'0:15.820',-2.82
'0:15.824',-2.75
'0:15.828',-2.73
'0:15.832',-2.77
'0:15.836',-2.71
'0:15.840',-2.58
'0:15.844',-2.58
'0:15.848',-2.89
'0:15.852',-3.04
'0:15.855',-2.61
'0:15.859',-1.34
'0:15.863',0.9
'0:15.867',3.43
'0:15.871',5.58
'0:15.875',7.27
'0:15.879',8.2
'0:15.883',5.63
'0:15.887',-0.69
'0:15.891',-6.67
'0:15.895',-10.48
'0:15.898',-12.17
'0:15.902',-11.89
'0:15.906',-10.15
'0:15.910',-7.68
'0:15.914',-5.27
'0:15.918',-3.12
'0:15.922',-1.41
'0:15.926',-0.25
'0:15.930',0.6
'0:15.934',1.23
'0:15.938',1.51
'0:15.941',1.66
'0:15.945',1.85
'0:15.949',1.9
'0:15.953',1.93
'0:15.957',2.19
'0:15.961',2.48
'0:15.965',2.44
'0:15.969',2.3
'0:15.973',2.22
'0:15.977',2.29
'0:15.980',2.52
'0:15.984',2.8
'0:15.988',3.09
'0:15.992',3.46
'0:15.996',3.69
'0:16.000',3.85
'0:16.004',4.31
'0:16.008',4.99
'0:16.012',5.65
'0:16.016',6.18
'0:16.020',6.65
'0:16.023',7.09
'0:16.027',7.35
'0:16.031',7.32
'0:16.035',7.09
'0:16.039',6.61
'0:16.043',5.91
'0:16.047',5.18
'0:16.051',4.32
'0:16.055',3.47
'0:16.059',2.76
'0:16.063',1.97
'0:16.066',1.16
'0:16.070',0.4
'0:16.074',-0.25
'0:16.078',-0.75
'0:16.082',-1.02
'0:16.086',-1.16
'0:16.090',-1.28
'0:16.094',-1.39
'0:16.098',-1.41
'0:16.102',-1.33
'0:16.105',-1.21
'0:16.109',-1.14
'0:16.113',-1.04
'0:16.117',-0.9
'0:16.121',-0.83
'0:16.125',-0.66
'0:16.129',-0.36
'0:16.133',-0.06
'0:16.137',0.15
'0:16.141',0.18
'0:16.145',0.13
'0:16.148',0.13
'0:16.152',0.03
'0:16.156',-0.14
'0:16.160',-0.31
'0:16.164',-0.55
'0:16.168',-0.94
'0:16.172',-1.45
'0:16.176',-1.93
'0:16.180',-2.4
'0:16.184',-2.8
'0:16.188',-3.05
'0:16.191',-3.19
'0:16.195',-3.42
'0:16.199',-3.66
'0:16.203',-3.69
'0:16.207',-3.63
'0:16.211',-3.61
'0:16.215',-3.56
'0:16.219',-3.41
'0:16.223',-3.43
'0:16.227',-3.72
'0:16.230',-3.87
'0:16.234',-3.37
'0:16.238',-1.91
'0:16.242',0.41
'0:16.246',3.05
'0:16.250',5.55
'0:16.254',7.61
'0:16.258',8.55
'0:16.262',5.8
'0:16.266',-0.6
'0:16.270',-6.75
'0:16.273',-10.94
'0:16.277',-12.73
'0:16.281',-12.5
'0:16.285',-10.93
'0:16.289',-8.69
'0:16.293',-6.32
'0:16.297',-4.24
'0:16.301',-2.63
'0:16.305',-1.55
'0:16.309',-0.86
'0:16.313',-0.39
'0:16.316',-0.02
'0:16.320',0.35
'0:16.324',0.56
'0:16.328',0.71
'0:16.332',0.83
'0:16.336',1.05
'0:16.340',1.27
'0:16.344',1.44
'0:16.348',1.56
'0:16.352',1.56
'0:16.355',1.61
'0:16.359',1.8
'0:16.363',2
'0:16.367',2.2
'0:16.371',2.44
'0:16.375',2.75
'0:16.379',3.16
'0:16.383',3.61
'0:16.387',3.95
'0:16.391',4.38
'0:16.395',4.84
'0:16.398',5.31
'0:16.402',5.7
'0:16.406',5.99
'0:16.410',6.07
'0:16.414',6
'0:16.418',5.78
'0:16.422',5.26
'0:16.426',4.5
'0:16.430',3.69
'0:16.434',2.87
'0:16.438',2
'0:16.441',1.18
'0:16.445',0.48
'0:16.449',-0.01
'0:16.453',-0.4
'0:16.457',-0.7
'0:16.461',-1.03
'0:16.465',-1.34
'0:16.469',-1.57
'0:16.473',-1.65
'0:16.477',-1.65
'0:16.480',-1.56
'0:16.484',-1.34
'0:16.488',-1.12
'0:16.492',-0.93
'0:16.496',-0.76
'0:16.500',-0.66
'0:16.504',-0.64
'0:16.508',-0.58
'0:16.512',-0.53
'0:16.516',-0.49
'0:16.520',-0.35
'0:16.523',-0.29
'0:16.527',-0.29
'0:16.531',-0.22
'0:16.535',-0.16
'0:16.539',-0.23
'0:16.543',-0.43
'0:16.547',-0.8
'0:16.551',-1.31
'0:16.555',-1.78
'0:16.559',-2.24
'0:16.563',-2.77
'0:16.566',-3.27
'0:16.570',-3.55
'0:16.574',-3.67
'0:16.578',-3.72
'0:16.582',-3.65
'0:16.586',-3.65
'0:16.590',-3.69
'0:16.594',-3.67
'0:16.598',-3.53
'0:16.602',-3.46
'0:16.605',-3.46
'0:16.609',-3.49
'0:16.613',-3.03
'0:16.617',-1.91
'0:16.621',-0.05
'0:16.625',2.49
'0:16.629',5.26
'0:16.633',7.92
'0:16.637',9.61
'0:16.641',7.77
'0:16.645',2.24
'0:16.648',-3.74
'0:16.652',-8.5
'0:16.656',-11.27
'0:16.660',-11.73
'0:16.664',-10.48
'0:16.668',-8.37
'0:16.672',-6.13
'0:16.676',-4.21
'0:16.680',-2.67
'0:16.684',-1.57
'0:16.688',-0.73
'0:16.691',-0.06
'0:16.695',0.43
'0:16.699',0.69
'0:16.703',0.88
'0:16.707',1.05
'0:16.711',1.28
'0:16.715',1.56
'0:16.719',1.7
'0:16.723',1.71
'0:16.727',1.69
'0:16.730',1.83
'0:16.734',1.93
'0:16.738',1.95
'0:16.742',2.05
'0:16.746',2.31
'0:16.750',2.65
'0:16.754',3
'0:16.758',3.31
'0:16.762',3.63
'0:16.766',4.07
'0:16.770',4.65
'0:16.773',5.17
'0:16.777',5.54
'0:16.781',5.83
'0:16.785',6.02
'0:16.789',6.15
'0:16.793',6.12
'0:16.797',5.85
'0:16.801',5.4
'0:16.805',4.9
'0:16.809',4.33
'0:16.813',3.62
'0:16.816',2.82
'0:16.820',2.03
'0:16.824',1.35
'0:16.828',0.76
'0:16.832',0.26
'0:16.836',-0.09
'0:16.840',-0.38
'0:16.844',-0.57
'0:16.848',-0.67
'0:16.852',-0.82
'0:16.855',-0.99
'0:16.859',-1.09
'0:16.863',-1.02
'0:16.867',-0.83
'0:16.871',-0.68
'0:16.875',-0.68
'0:16.879',-0.72
'0:16.883',-0.65
'0:16.887',-0.51
'0:16.891',-0.38
'0:16.895',-0.27
'0:16.898',-0.14
'0:16.902',-0.06
'0:16.906',0
'0:16.910',-0.02
'0:16.914',-0.07
'0:16.918',-0.19
'0:16.922',-0.45
'0:16.926',-0.82
'0:16.930',-1.29
'0:16.934',-1.84
'0:16.938',-2.33
'0:16.941',-2.75
'0:16.945',-3.23
'0:16.949',-3.62
'0:16.953',-3.89
'0:16.957',-4.06
'0:16.961',-4.14
'0:16.965',-4.08
'0:16.969',-4.01
'0:16.973',-3.92
'0:16.977',-3.83
'0:16.980',-3.8
'0:16.984',-3.92
'0:16.988',-4.25
'0:16.992',-4.35
'0:16.996',-3.73
'0:17.000',-2.16
'0:17.004',0.33
'0:17.008',3.11
'0:17.012',5.65
'0:17.016',7.73
'0:17.020',8.43
'0:17.023',5.02
'0:17.027',-1.23
'0:17.031',-7
'0:17.035',-11.04
'0:17.039',-12.71
'0:17.043',-12.26
'0:17.047',-10.62
'0:17.051',-8.44
'0:17.055',-6.03
'0:17.059',-3.84
'0:17.063',-2.4
'0:17.066',-1.3
'0:17.070',-0.42
'0:17.074',0.05
'0:17.078',0.33
'0:17.082',0.32
'0:17.086',0.32
'0:17.090',1.31
'0:17.094',1.49
'0:17.098',1.52
'0:17.102',1.56
'0:17.105',1.64
'0:17.109',1.64
'0:17.113',1.76
'0:17.117',2.08
'0:17.121',2.38
'0:17.125',2.51
'0:17.129',2.57
'0:17.133',2.8
'0:17.137',3.18
'0:17.141',3.65
'0:17.145',4.2
'0:17.148',4.68
'0:17.152',5.26
'0:17.156',5.87
'0:17.160',6.37
'0:17.164',6.63
'0:17.168',6.73
'0:17.172',6.82
'0:17.176',6.77
'0:17.180',6.34
'0:17.184',5.55
'0:17.188',4.74
'0:17.191',3.95
'0:17.195',3.04
'0:17.199',2.06
'0:17.203',1.16
'0:17.207',0.36
'0:17.211',-0.36
'0:17.215',-0.78
'0:17.219',-1.1
'0:17.223',-1.33
'0:17.227',-1.49
'0:17.230',-1.52
'0:17.234',-1.47
'0:17.238',-1.32
'0:17.242',-1.24
'0:17.246',-1.24
'0:17.250',-1.26
'0:17.254',-1.21
'0:17.258',-1.09
'0:17.262',-0.79
'0:17.266',-0.57
'0:17.270',-0.53
'0:17.273',-0.46
'0:17.277',-0.23
'0:17.281',-0.02
'0:17.285',0.17
'0:17.289',0.25
'0:17.293',0.27
'0:17.297',0.23
'0:17.301',0.18
'0:17.305',-0.04
'0:17.309',-0.52
'0:17.313',-1.14
'0:17.316',-1.74
'0:17.320',-2.2
'0:17.324',-2.62
'0:17.328',-2.99
'0:17.332',-3.23
'0:17.336',-3.24
'0:17.340',-3.22
'0:17.344',-3.09
'0:17.348',-3.16
'0:17.352',-3.28
'0:17.355',-3.24
'0:17.359',-3.14
'0:17.363',-3.12
'0:17.367',-3.16
'0:17.371',-3.5
'0:17.375',-3.26
'0:17.379',-3.26
'0:17.383',-3.26
'0:17.387',-3.26
'0:17.391',4.87
'0:17.395',7.05
'0:17.398',7.96
'0:17.402',5.26
'0:17.406',-1.2
'0:17.410',-7.06
'0:17.414',-10.8
'0:17.418',-12.36
'0:17.422',-12.06
'0:17.426',-10.38
'0:17.430',-8.01
'0:17.434',-5.55
'0:17.438',-3.45
'0:17.441',-1.74
'0:17.445',-0.61
'0:17.449',0
'0:17.453',0.34
'0:17.457',0.63
'0:17.461',0.96
'0:17.465',1.27
'0:17.469',1.63
'0:17.473',1.91
'0:17.477',2.12
'0:17.480',2.22
'0:17.484',2.24
'0:17.488',2.39
'0:17.492',2.53
'0:17.496',2.45
'0:17.500',2.41
'0:17.504',2.69
'0:17.508',3.02
'0:17.512',3.48
'0:17.516',3.83
'0:17.520',4.07
'0:17.523',4.28
'0:17.527',4.75
'0:17.531',5.36
'0:17.535',5.95
'0:17.539',6.43
'0:17.543',6.75
'0:17.547',6.95
'0:17.551',7.06
'0:17.555',6.86
'0:17.559',6.46
'0:17.563',5.81
'0:17.566',4.98
'0:17.570',4.22
'0:17.574',3.36
'0:17.578',2.54
'0:17.582',1.73
'0:17.586',0.91
'0:17.590',0.33
'0:17.594',-0.09
'0:17.598',-0.6
'0:17.602',-1.04
'0:17.605',-1.45
'0:17.609',-1.72
'0:17.613',-1.73
'0:17.617',-1.59
'0:17.621',-1.47
'0:17.625',-1.33
'0:17.629',-1.22
'0:17.633',-1.1
'0:17.637',-0.83
'0:17.641',-0.7
'0:17.645',-0.6
'0:17.648',-0.42
'0:17.652',-0.19
'0:17.656',-0.01
'0:17.660',0.05
'0:17.664',0.14
'0:17.668',0.18
'0:17.672',0.25
'0:17.676',0.25
'0:17.680',0.03
'0:17.684',-0.21
'0:17.688',-0.5
'0:17.691',-0.87
'0:17.695',-1.38
'0:17.699',-1.92
'0:17.703',-2.45
'0:17.707',-2.86
'0:17.711',-3.19
'0:17.715',-3.45
'0:17.719',-3.59
'0:17.723',-3.61
'0:17.727',-3.48
'0:17.730',-3.32
'0:17.734',-3.22
'0:17.738',-3.23
'0:17.742',-3.36
'0:17.746',-3.6
'0:17.750',-3.77
'0:17.754',-3.51
'0:17.758',-2.42
'0:17.762',-0.44
'0:17.766',2.22
'0:17.770',4.9
'0:17.773',7.3
'0:17.777',8.95
'0:17.781',7.69
'0:17.785',2.1
'0:17.789',-4.31
'0:17.793',-9.36
'0:17.797',-11.13
'0:17.801',-11.13
'0:17.805',-10.27
'0:17.809',-8.57
'0:17.813',-8.57
'0:17.816',-8.57
'0:17.820',-8.57
'0:17.824',-8.57
'0:17.828',-8.57
'0:17.832',-8.57
'0:17.836',-8.58
'0:17.840',-8.57
'0:17.844',-8.57
'0:17.848',-8.57
'0:17.852',-8.57
'0:17.855',-8.57
'0:17.859',-8.57
'0:17.863',-8.57
'0:17.867',-8.57
'0:17.871',-8.57
'0:17.875',-8.57
'0:17.879',-8.57
'0:17.883',-8.57
'0:17.887',-8.57
'0:17.891',-8.57
'0:17.895',-8.57
'0:17.898',-8.57
'0:17.902',-8.57
'0:17.906',-8.57
'0:17.910',-8.57
'0:17.914',-8.57
'0:17.918',-8.57
'0:17.922',-8.57
'0:17.926',-8.57
'0:17.930',-8.57
'0:17.934',-8.57
'0:17.938',-8.57
'0:17.941',-6.09
'0:17.945',2.39
'0:17.949',1.51
'0:17.953',0.69
'0:17.957',-0.13
'0:17.961',-0.87
'0:17.965',-1.59
'0:17.969',-2.18
'0:17.973',-2.55
'0:17.977',-2.92
'0:17.980',-3.23
'0:17.984',-3.46
'0:17.988',-3.55
'0:17.992',-3.46
'0:17.996',-3.21
'0:18.000',-2.85
'0:18.004',-2.58
'0:18.008',-2.45
'0:18.012',-2.24
'0:18.016',-1.92
'0:18.020',-1.76
'0:18.023',-1.75
'0:18.027',-1.75
'0:18.031',-1.75
'0:18.035',-1.75
'0:18.039',-1.22
'0:18.043',-1.18
'0:18.047',-1.07
'0:18.051',-0.87
'0:18.055',-0.67
'0:18.059',-0.6
'0:18.063',-0.79
'0:18.066',-1.26
'0:18.070',-1.74
'0:18.074',-2.17
'0:18.078',-2.6
'0:18.082',-3.05
'0:18.086',-3.41
'0:18.090',-3.57
'0:18.094',-3.63
'0:18.098',-3.65
'0:18.102',-3.72
'0:18.105',-3.92
'0:18.109',-3.94
'0:18.113',-3.72
'0:18.117',-3.41
'0:18.121',-3.38
'0:18.125',-3.6
'0:18.129',-3.94
'0:18.133',-3.87
'0:18.137',-2.89
'0:18.141',-1.09
'0:18.145',1.35
'0:18.148',4.08
'0:18.152',6.63
'0:18.156',8.83
'0:18.160',8.96
'0:18.164',4.95
'0:18.168',-1.11
'0:18.172',-6.57
'0:18.176',-10.3
'0:18.180',-11.65
'0:18.184',-10.93
'0:18.188',-9.19
'0:18.191',-7.18
'0:18.195',-5.34
'0:18.199',-3.73
'0:18.203',-2.33
'0:18.207',-1.15
'0:18.211',-0.27
'0:18.215',0.28
'0:18.219',0.51
'0:18.223',0.65
'0:18.227',0.81
'0:18.230',1.03
'0:18.234',1.24
'0:18.238',1.32
'0:18.242',1.37
'0:18.246',1.54
'0:18.250',1.71
'0:18.254',1.81
'0:18.258',1.88
'0:18.262',2.17
'0:18.266',2.56
'0:18.270',2.95
'0:18.273',3.29
'0:18.277',3.59
'0:18.281',3.9
'0:18.285',4.2
'0:18.289',4.68
'0:18.293',5.32
'0:18.297',5.92
'0:18.301',6.39
'0:18.305',6.63
'0:18.309',6.79
'0:18.313',6.81
'0:18.316',6.68
'0:18.320',6.27
'0:18.324',5.58
'0:18.328',4.85
'0:18.332',4.37
'0:18.336',3.21
'0:18.340',2.48
'0:18.344',1.83
'0:18.348',1.3
'0:18.352',0.86
'0:18.355',0.37
'0:18.359',-0.15
'0:18.363',-0.58
'0:18.367',-0.94
'0:18.371',-1.14
'0:18.375',-1.29
'0:18.379',-1.36
'0:18.383',-1.27
'0:18.387',-1.02
'0:18.391',-0.9
'0:18.395',-0.87
'0:18.398',-0.81
'0:18.402',-0.77
'0:18.406',-0.7
'0:18.410',-0.43
'0:18.414',-0.19
'0:18.418',-0.12
'0:18.422',-0.14
'0:18.426',-0.14
'0:18.430',-0.06
'0:18.434',0.03
'0:18.438',0.01
'0:18.441',-0.06
'0:18.445',-0.14
'0:18.449',-0.41
'0:18.453',-0.9
'0:18.457',-1.38
'0:18.461',-1.84
'0:18.465',-2.41
'0:18.469',-2.85
'0:18.473',-3.12
'0:18.477',-3.33
'0:18.480',-3.46
'0:18.484',-3.48
'0:18.488',-3.41
'0:18.492',-3.33
'0:18.496',-3.3
'0:18.500',-3.3
'0:18.504',-3.35
'0:18.508',-3.46
'0:18.512',-3.57
'0:18.516',-3.4
'0:18.520',-2.53
'0:18.523',-0.75
'0:18.527',1.73
'0:18.531',4.34
'0:18.535',6.77
'0:18.539',8.59
'0:18.543',7.71
'0:18.547',2.44
'0:18.551',-3.97
'0:18.555',-8.9
'0:18.559',-11.74
'0:18.563',-12.34
'0:18.566',-11.18
'0:18.570',-8.96
'0:18.574',-6.7
'0:18.578',-4.68
'0:18.582',-3
'0:18.586',-1.83
'0:18.590',-0.75
'0:18.594',0.12
'0:18.598',0.59
'0:18.602',0.75
'0:18.605',0.91
'0:18.609',1.1
'0:18.613',1.17
'0:18.617',1.17
'0:18.621',1.17
'0:18.625',1.17
'0:18.629',1.17
'0:18.633',1.17
'0:18.637',1.17
'0:18.641',2.2
'0:18.645',2.61
'0:18.648',3.02
'0:18.652',3.38
'0:18.656',3.55
'0:18.660',3.68
'0:18.664',4.06
'0:18.668',4.56
'0:18.672',4.91
'0:18.676',5.14
'0:18.680',5.51
'0:18.684',6.06
'0:18.688',6.6
'0:18.691',6.8
'0:18.695',6.63
'0:18.699',6.22
'0:18.703',5.85
'0:18.707',5.54
'0:18.711',4.98
'0:18.715',4.04
'0:18.719',3.05
'0:18.723',2.41
'0:18.727',1.93
'0:18.730',1.07
'0:18.734',-0.14
'0:18.738',-1.29
'0:18.742',-2.18
'0:18.746',-2.5
'0:18.750',-2.58
'0:18.754',-2.59
'0:18.758',-2.64
'0:18.762',-2.47
'0:18.766',-2.19
'0:18.770',-1.95
'0:18.773',-1.75
'0:18.777',-1.72
'0:18.781',-1.13
'0:18.785',-0.92
'0:18.789',-1
'0:18.793',-0.97
'0:18.797',-0.72
'0:18.801',-0.37
'0:18.805',-0.14
'0:18.809',-0.04
'0:18.813',0.03
'0:18.816',0.2
'0:18.820',0.44
'0:18.824',0.26
'0:18.828',-0.39
'0:18.832',-1.24
'0:18.836',-1.87
'0:18.840',-2.21
'0:18.844',-2.53
'0:18.848',-2.82
'0:18.852',-3.21
'0:18.855',-3.24
'0:18.859',-3.05
'0:18.863',-3.08
'0:18.867',-3.38
'0:18.871',-3.45
'0:18.875',-3.19
'0:18.879',-3.09
'0:18.883',-2.87
'0:18.887',-3.06
'0:18.891',-3.43
'0:18.895',-3.39
'0:18.898',-2.89
'0:18.902',-1.75
'0:18.906',0.16
'0:18.910',2.62
'0:18.914',5.19
'0:18.918',7.41
'0:18.922',8.52
'0:18.926',6.21
'0:18.930',-0.23
'0:18.934',-6.55
'0:18.938',-10.6
'0:18.941',-12.34
'0:18.945',-12.1
'0:18.949',-10.44
'0:18.953',-6.31
'0:18.957',-4.01
'0:18.961',-2.21
'0:18.965',-0.94
'0:18.969',-0.16
'0:18.973',0.13
'0:18.977',0.51
'0:18.980',0.67
'0:18.984',1.04
'0:18.988',1.31
'0:18.992',1.59
'0:18.996',1.78
'0:19.000',2.04
'0:19.004',1.99
'0:19.008',1.95
'0:19.012',2
'0:19.016',2.15
'0:19.020',2.29
'0:19.023',2.25
'0:19.027',2.39
'0:19.031',2.76
'0:19.035',3.13
'0:19.039',3.61
'0:19.043',4.2
'0:19.047',4.61
'0:19.051',4.89
'0:19.055',5.33
'0:19.059',5.86
'0:19.063',6.32
'0:19.066',6.77
'0:19.070',7.11
'0:19.074',7.21
'0:19.078',6.85
'0:19.082',6.26
'0:19.086',5.66
'0:19.090',4.97
'0:19.094',4.22
'0:19.098',3.42
'0:19.102',2.56
'0:19.105',1.61
'0:19.109',0.84
'0:19.113',0.31
'0:19.117',-0.15
'0:19.121',-0.61
'0:19.125',-0.96
'0:19.129',-1.14
'0:19.133',-1.25
'0:19.137',-1.4
'0:19.141',-1.41
'0:19.145',-1.23
'0:19.148',-0.99
'0:19.152',-0.73
'0:19.156',-0.61
'0:19.160',-0.58
'0:19.164',-0.6
'0:19.168',-0.65
'0:19.172',-0.45
'0:19.176',-0.13
'0:19.180',0.08
'0:19.184',0.2
'0:19.188',0.25
'0:19.191',0.29
'0:19.195',0.35
'0:19.199',0.3
'0:19.203',0.11
'0:19.207',-0.04
'0:19.211',-0.31
'0:19.215',-0.66
'0:19.219',-1.2
'0:19.223',-1.83
'0:19.227',-2.34
'0:19.230',-2.72
'0:19.234',-2.93
'0:19.238',-3.06
'0:19.242',-3.12
'0:19.246',-3.21
'0:19.250',-3.19
'0:19.254',-3.12
'0:19.258',-3.04
'0:19.262',-3.04
'0:19.266',-3.17
'0:19.270',-3.33
'0:19.273',-3.36
'0:19.277',-3.01
'0:19.281',-2.17
'0:19.285',-0.52
'0:19.289',1.94
'0:19.293',4.62
'0:19.297',6.88
'0:19.301',8.48
'0:19.305',8.08
'0:19.309',3.17
'0:19.313',-3.39
'0:19.316',-8.51
'0:19.320',-11.47
'0:19.324',-12.24
'0:19.328',-11.3
'0:19.332',-9.33
'0:19.336',-7
'0:19.340',-4.79
'0:19.344',-2.96
'0:19.348',-1.63
'0:19.352',-0.74
'0:19.355',-0.23
'0:19.359',0.11
'0:19.363',0.42
'0:19.367',0.59
'0:19.371',0.79
'0:19.375',1.03
'0:19.379',1.16
'0:19.383',1.24
'0:19.387',1.37
'0:19.391',1.64
'0:19.395',1.85
'0:19.398',2.01
'0:19.402',2.2
'0:19.406',2.34
'0:19.410',2.39
'0:19.414',2.42
'0:19.418',2.54
'0:19.422',2.81
'0:19.426',3.23
'0:19.430',3.71
'0:19.434',4.07
'0:19.438',4.5
'0:19.441',4.91
'0:19.445',5.37
'0:19.449',5.83
'0:19.453',6.03
'0:19.457',5.98
'0:19.461',5.73
'0:19.465',5.49
'0:19.469',5.09
'0:19.473',4.38
'0:19.477',3.43
'0:19.480',2.41
'0:19.484',1.59
'0:19.488',0.88
'0:19.492',0.22
'0:19.496',-0.24
'0:19.500',-0.61
'0:19.504',-1
'0:19.508',-1.42
'0:19.512',-1.7
'0:19.516',-1.82
'0:19.520',-1.73
'0:19.523',-1.75
'0:19.527',-1.82
