'0:00.000',2.28
'0:00.004',2.6
'0:00.008',2.87
'0:00.012',3.14
'0:00.016',3.49
'0:00.020',3.83
'0:00.023',4.11
'0:00.027',4.31
'0:00.031',4.59
'0:00.035',4.84
'0:00.039',5.11
'0:00.043',5.28
'0:00.047',5.24
'0:00.051',5.03
'0:00.055',4.89
'0:00.059',4.62
'0:00.063',4.24
'0:00.066',3.71
'0:00.070',2.92
'0:00.074',2.2
'0:00.078',1.52
'0:00.082',0.82
'0:00.086',0.16
'0:00.090',-0.29
'0:00.094',-0.48
'0:00.098',-0.46
'0:00.102',-0.58
'0:00.105',-0.63
'0:00.109',-0.49
'0:00.113',-0.31
'0:00.117',-0.19
'0:00.121',-0.14
'0:00.125',-0.12
'0:00.129',0.02
'0:00.133',0.35
'0:00.137',0.65
'0:00.141',0.73
'0:00.145',0.68
'0:00.148',0.65
'0:00.152',0.82
'0:00.156',1.04
'0:00.160',1.1
'0:00.164',0.92
'0:00.168',0.74
'0:00.172',0.44
'0:00.176',-0.02
'0:00.180',-0.49
'0:00.184',-0.87
'0:00.188',-1.27
'0:00.191',-1.84
'0:00.195',-2.3
'0:00.199',-2.57
'0:00.203',-2.76
'0:00.207',-2.89
'0:00.211',-2.92
'0:00.215',-2.92
'0:00.219',-2.87
'0:00.223',-2.8
'0:00.227',-2.86
'0:00.230',-3.07
'0:00.234',-3.32
'0:00.238',-3.13
'0:00.242',-2.12
'0:00.246',-0.29
'0:00.250',2.4
'0:00.254',5.38
'0:00.258',7.96
'0:00.262',9.5
'0:00.266',7.92
'0:00.270',2.33
'0:00.273',-3.87
'0:00.277',-8.48
'0:00.281',-10.8
'0:00.285',-11
'0:00.289',-9.95
'0:00.293',-8.21
'0:00.297',-6.25
'0:00.301',-4.52
'0:00.305',-3.26
'0:00.309',-2.46
'0:00.313',-2.03
'0:00.316',-1.71
'0:00.320',-1.44
'0:00.324',-1.16
'0:00.328',-0.89
'0:00.332',-0.66
'0:00.336',-0.53
'0:00.340',-0.46
'0:00.344',-0.46
'0:00.348',-0.17
'0:00.352',-0.16
'0:00.355',-0.16
'0:00.359',-0.09
'0:00.363',0.09
'0:00.367',0.32
'0:00.371',0.43
'0:00.375',0.49
'0:00.379',0.54
'0:00.383',0.68
'0:00.387',0.89
'0:00.391',1.04
'0:00.395',1.21
'0:00.398',1.4
'0:00.402',1.74
'0:00.406',2.2
'0:00.410',2.59
'0:00.414',2.82
'0:00.418',3.06
'0:00.422',3.41
'0:00.426',3.63
'0:00.430',3.7
'0:00.434',3.6
'0:00.438',3.31
'0:00.441',2.94
'0:00.445',2.45
'0:00.449',1.86
'0:00.453',1.43
'0:00.457',0.89
'0:00.461',0.18
'0:00.465',-0.34
'0:00.469',-0.69
'0:00.473',-1.03
'0:00.477',-1.39
'0:00.480',-1.74
'0:00.484',-1.8
'0:00.488',-1.71
'0:00.492',-1.54
'0:00.496',-1.3
'0:00.500',-1.03
'0:00.504',-0.79
'0:00.508',-0.72
'0:00.512',-0.72
'0:00.516',-0.66
'0:00.520',-0.45
'0:00.523',-0.2
'0:00.527',-0.21
'0:00.531',-0.21
'0:00.535',-0.16
'0:00.539',-0.19
'0:00.543',-0.26
'0:00.547',-0.4
'0:00.551',-0.6
'0:00.555',-1
'0:00.559',-1.41
'0:00.563',-1.7
'0:00.566',-2.08
'0:00.570',-2.44
'0:00.574',-2.89
'0:00.578',-3.16
'0:00.582',-3.17
'0:00.586',-3.3
'0:00.590',-3.38
'0:00.594',-3.36
'0:00.598',-3.25
'0:00.602',-2.96
'0:00.605',-2.76
'0:00.609',-2.81
'0:00.613',-3.11
'0:00.617',-3.08
'0:00.621',-2.4
'0:00.625',-1
'0:00.629',0.91
'0:00.633',3.3
'0:00.637',5.7
'0:00.641',7.71
'0:00.645',7.8
'0:00.648',4.01
'0:00.652',-1.62
'0:00.656',-6.45
'0:00.660',-9.43
'0:00.664',-10.44
'0:00.668',-9.84
'0:00.672',-8.47
'0:00.676',-6.66
'0:00.680',-4.98
'0:00.684',-3.91
'0:00.688',-3.1
'0:00.691',-2.43
'0:00.695',-1.87
'0:00.699',-1.45
'0:00.703',-1.11
'0:00.707',-0.85
'0:00.711',-0.68
'0:00.715',-0.4
'0:00.719',-0.22
'0:00.723',-0.16
'0:00.727',-0.07
'0:00.730',0.06
'0:00.734',0.1
'0:00.738',0.03
'0:00.742',0.05
'0:00.746',0.35
'0:00.750',0.59
'0:00.754',0.61
'0:00.758',0.65
'0:00.762',0.78
'0:00.766',1.09
'0:00.770',1.46
'0:00.773',1.67
'0:00.777',1.75
'0:00.781',1.9
'0:00.785',2.3
'0:00.789',2.71
'0:00.793',3.11
'0:00.797',3.54
'0:00.801',3.91
'0:00.805',4.11
'0:00.809',4.17
'0:00.813',4.22
'0:00.816',4.29
'0:00.820',4.13
'0:00.824',3.77
'0:00.828',3.36
'0:00.832',2.85
'0:00.836',2.27
'0:00.840',1.69
'0:00.844',1.05
'0:00.848',0.42
'0:00.852',-0.07
'0:00.855',-0.43
'0:00.859',-0.8
'0:00.863',-1.1
'0:00.867',-1.29
'0:00.871',-1.25
'0:00.875',-1.03
'0:00.879',-0.79
'0:00.883',-0.58
'0:00.887',-0.44
'0:00.891',-0.29
'0:00.895',-0.23
'0:00.898',-0.1
'0:00.902',0.08
'0:00.906',0.29
'0:00.910',0.35
'0:00.914',0.3
'0:00.918',0.16
'0:00.922',0.1
'0:00.926',0.08
'0:00.930',-0.08
'0:00.934',-0.27
'0:00.938',-0.6
'0:00.941',-0.9
'0:00.945',-1.25
'0:00.949',-1.73
'0:00.953',-2.13
'0:00.957',-2.44
'0:00.961',-2.71
'0:00.965',-2.93
'0:00.969',-3.06
'0:00.973',-3.05
'0:00.977',-2.97
'0:00.980',-2.98
'0:00.984',-3.13
'0:00.988',-3.23
'0:00.992',-3.32
'0:00.996',-3.48
'0:01.000',-3.44
'0:01.004',-3
'0:01.008',-1.81
'0:01.012',0.16
'0:01.016',2.48
'0:01.020',4.53
'0:01.023',6.16
'0:01.027',6.57
'0:01.031',3.62
'0:01.035',-1.76
'0:01.039',-6.61
'0:01.043',-9.88
'0:01.047',-11.13
'0:01.051',-10.57
'0:01.055',-9.02
'0:01.059',-7.12
'0:01.063',-5.15
'0:01.066',-3.63
'0:01.070',-2.64
'0:01.074',-2.02
'0:01.078',-1.49
'0:01.082',-0.97
'0:01.086',-0.48
'0:01.090',-0.26
'0:01.094',-0.22
'0:01.098',-0.12
'0:01.102',0
'0:01.105',0.24
'0:01.109',0.51
'0:01.113',0.64
'0:01.117',0.68
'0:01.121',0.76
'0:01.125',0.95
'0:01.129',1.05
'0:01.133',0.98
'0:01.137',0.98
'0:01.141',0.98
'0:01.145',0.98
'0:01.148',1.55
'0:01.152',1.72
'0:01.156',1.97
'0:01.160',2.23
'0:01.164',2.46
'0:01.168',2.76
'0:01.172',3.16
'0:01.176',3.47
'0:01.180',3.79
'0:01.184',4.11
'0:01.188',4.27
'0:01.191',4.27
'0:01.195',4.27
'0:01.199',4.27
'0:01.203',4.27
'0:01.207',4.27
'0:01.211',3.12
'0:01.215',2.4
'0:01.219',1.61
'0:01.223',0.87
'0:01.227',0.13
'0:01.230',-0.59
'0:01.234',-1.37
'0:01.238',-1.81
'0:01.242',-1.9
'0:01.246',-1.83
'0:01.250',-1.64
'0:01.254',-1.56
'0:01.258',-1.49
'0:01.262',-1.37
'0:01.266',-1.11
'0:01.270',-1.04
'0:01.273',-0.98
'0:01.277',-0.6
'0:01.281',-0.21
'0:01.285',0.13
'0:01.289',0.24
'0:01.293',0.32
'0:01.297',0.45
'0:01.301',0.51
'0:01.305',0.4
'0:01.309',0.21
'0:01.313',0.04
'0:01.316',-0.08
'0:01.320',-0.34
'0:01.324',-0.73
'0:01.328',-1.09
'0:01.332',-1.55
'0:01.336',-2.03
'0:01.340',-2.39
'0:01.344',-2.64
'0:01.348',-2.82
'0:01.352',-2.77
'0:01.355',-2.89
'0:01.359',-2.88
'0:01.363',-2.57
'0:01.367',-2.08
'0:01.371',-1.92
'0:01.375',-2.25
'0:01.379',-2.62
'0:01.383',-2.44
'0:01.387',-1.34
'0:01.391',0.61
'0:01.395',3.25
'0:01.398',5.77
'0:01.402',7.71
'0:01.406',8.42
'0:01.410',5.62
'0:01.414',-0.45
'0:01.418',-6.03
'0:01.422',-9.56
'0:01.426',-11.01
'0:01.430',-10.57
'0:01.434',-8.96
'0:01.438',-6.93
'0:01.441',-4.99
'0:01.445',-3.3
'0:01.449',-1.95
'0:01.453',-0.91
'0:01.457',-0.13
'0:01.461',0.36
'0:01.465',0.59
'0:01.469',0.58
'0:01.473',0.59
'0:01.477',0.69
'0:01.480',0.77
'0:01.484',1.08
'0:01.488',1.45
'0:01.492',1.56
'0:01.496',1.5
'0:01.500',1.63
'0:01.504',1.81
'0:01.508',1.9
'0:01.512',1.97
'0:01.516',2.19
'0:01.520',2.37
'0:01.523',2.39
'0:01.527',2.4
'0:01.531',2.7
'0:01.535',2.96
'0:01.539',3.28
'0:01.543',3.62
'0:01.547',3.92
'0:01.551',4.16
'0:01.555',4.4
'0:01.559',4.8
'0:01.563',5.32
'0:01.566',5.6
'0:01.570',5.68
'0:01.574',5.82
'0:01.578',5.81
'0:01.582',5.42
'0:01.586',4.97
'0:01.590',4.56
'0:01.594',4.14
'0:01.598',3.65
'0:01.602',3.06
'0:01.605',2.14
'0:01.609',1.19
'0:01.613',0.3
'0:01.617',-0.08
'0:01.621',-0.35
'0:01.625',-0.59
'0:01.629',-0.93
'0:01.633',-1.02
'0:01.637',-0.87
'0:01.641',-0.96
'0:01.645',-1.01
'0:01.648',-0.51
'0:01.652',-0.08
'0:01.656',0.19
'0:01.660',0.47
'0:01.664',0.47
'0:01.668',0.46
'0:01.672',0.92
'0:01.676',1.08
'0:01.680',1.05
'0:01.684',1.1
'0:01.688',1.05
'0:01.691',1.03
'0:01.695',0.8
'0:01.699',0.27
'0:01.703',-0.21
'0:01.707',-0.75
'0:01.711',-1.45
'0:01.715',-2.11
'0:01.719',-2.31
'0:01.723',-2.31
'0:01.727',-2.24
'0:01.730',-2.38
'0:01.734',-2.45
'0:01.738',-2.6
'0:01.742',-2.76
'0:01.746',-2.73
'0:01.750',-2.65
'0:01.754',-2.65
'0:01.758',-2.74
'0:01.762',-2.69
'0:01.766',-2.35
'0:01.770',-0.96
'0:01.773',1.31
'0:01.777',3.61
'0:01.781',5.65
'0:01.785',7
'0:01.789',7.04
'0:01.793',3.42
'0:01.797',-2.81
'0:01.801',-8.01
'0:01.805',-10.97
'0:01.809',-11.81
'0:01.813',-11.22
'0:01.816',-9.79
'0:01.820',-7.82
'0:01.824',-5.87
'0:01.828',-4.1
'0:01.832',-2.35
'0:01.836',-1.15
'0:01.840',-0.69
'0:01.844',-0.51
'0:01.848',-0.41
'0:01.852',-0.3
'0:01.855',-0.08
'0:01.859',0.19
'0:01.863',0.26
'0:01.867',0.25
'0:01.871',0.37
'0:01.875',0.35
'0:01.879',0.23
'0:01.883',0.36
'0:01.887',0.89
'0:01.891',1.24
'0:01.895',1.11
'0:01.898',0.98
'0:01.902',1.12
'0:01.906',1.36
'0:01.910',1.56
'0:01.914',1.82
'0:01.918',2.06
'0:01.922',2.24
'0:01.926',2.48
'0:01.930',2.49
'0:01.934',2.56
'0:01.938',2.86
'0:01.941',3.32
'0:01.945',3.84
'0:01.949',4.21
'0:01.953',4.3
'0:01.957',4.2
'0:01.961',3.96
'0:01.965',3.6
'0:01.969',3.3
'0:01.973',2.87
'0:01.977',2.32
'0:01.980',1.66
'0:01.984',0.98
'0:01.988',0.41
'0:01.992',-0.07
'0:01.996',-0.74
'0:02.000',-1.47
'0:02.004',-2.05
'0:02.008',-2.28
'0:02.012',-2.31
'0:02.016',-2.31
'0:02.020',-2.11
'0:02.023',-1.63
'0:02.027',-1.07
'0:02.031',-0.57
'0:02.035',-0.29
'0:02.039',0.04
'0:02.043',0.31
'0:02.047',0.51
'0:02.051',0.7
'0:02.055',0.73
'0:02.059',0.71
'0:02.063',0.78
'0:02.066',0.77
'0:02.070',0.46
'0:02.074',0.09
'0:02.078',-0.25
'0:02.082',-0.45
'0:02.086',-0.65
'0:02.090',-0.93
'0:02.094',-1.43
'0:02.098',-1.92
'0:02.102',-2.21
'0:02.105',-2.59
'0:02.109',-2.91
'0:02.113',-3.07
'0:02.117',-3.02
'0:02.121',-2.94
'0:02.125',-2.9
'0:02.129',-2.76
'0:02.133',-2.56
'0:02.137',-2.52
'0:02.141',-2.53
'0:02.145',-2.45
'0:02.148',-1.74
'0:02.152',-0.19
'0:02.156',1.93
'0:02.160',4.22
'0:02.164',6.36
'0:02.168',8.06
'0:02.172',8.12
'0:02.176',4.14
'0:02.180',-2.08
'0:02.184',-7.14
'0:02.188',-10.3
'0:02.191',-11.43
'0:02.195',-10.81
'0:02.199',-9.03
'0:02.203',-6.74
'0:02.207',-4.62
'0:02.211',-3.16
'0:02.215',-2.34
'0:02.219',-1.65
'0:02.223',-0.93
'0:02.227',-0.3
'0:02.230',-0.02
'0:02.234',-0.09
'0:02.238',-0.1
'0:02.242',0.16
'0:02.246',0.52
'0:02.250',0.86
'0:02.254',1.03
'0:02.258',1.17
'0:02.262',1.36
'0:02.266',1.42
'0:02.270',1.39
'0:02.273',1.25
'0:02.277',1.17
'0:02.281',1.24
'0:02.285',1.39
'0:02.289',1.61
'0:02.293',1.85
'0:02.297',2.07
'0:02.301',2.29
'0:02.305',2.56
'0:02.309',2.91
'0:02.313',3.25
'0:02.316',3.55
'0:02.320',3.88
'0:02.324',4.16
'0:02.328',4.41
'0:02.332',4.68
'0:02.336',4.8
'0:02.340',4.85
'0:02.344',4.69
'0:02.348',4.5
'0:02.352',4.19
'0:02.355',3.77
'0:02.359',3.24
'0:02.363',2.64
'0:02.367',2.03
'0:02.371',1.44
'0:02.375',0.89
'0:02.379',0.48
'0:02.383',0.09
'0:02.387',-0.21
'0:02.391',-0.52
'0:02.395',-0.7
'0:02.398',-0.75
'0:02.402',-0.59
'0:02.406',-0.32
'0:02.410',-0.15
'0:02.414',-0.12
'0:02.418',0.07
'0:02.422',0.29
'0:02.426',0.42
'0:02.430',0.55
'0:02.434',0.81
'0:02.438',1.08
'0:02.441',1.26
'0:02.445',1.38
'0:02.449',1.37
'0:02.453',1.28
'0:02.457',1.22
'0:02.461',1.08
'0:02.465',0.77
'0:02.469',0.5
'0:02.473',0.16
'0:02.477',-0.36
'0:02.480',-0.89
'0:02.484',-1.25
'0:02.488',-1.61
'0:02.492',-1.89
'0:02.496',-2.01
'0:02.500',-2.11
'0:02.504',-2.08
'0:02.508',-1.99
'0:02.512',-1.97
'0:02.516',-2
'0:02.520',-2.13
'0:02.523',-2.53
'0:02.527',-2.75
'0:02.531',-2.25
'0:02.535',-1.02
'0:02.539',0.8
'0:02.543',3.36
'0:02.547',6.06
'0:02.551',8.66
'0:02.555',9.73
'0:02.559',6.73
'0:02.563',0.69
'0:02.566',-4.91
'0:02.570',-8.7
'0:02.574',-10.28
'0:02.578',-10
'0:02.582',-8.73
'0:02.586',-7.07
'0:02.590',-5.3
'0:02.594',-3.78
'0:02.598',-2.82
'0:02.602',-2.31
'0:02.605',-1.95
'0:02.609',-1.57
'0:02.613',-1.18
'0:02.617',-0.83
'0:02.621',-0.7
'0:02.625',-0.61
'0:02.629',-0.37
'0:02.633',-0.14
'0:02.637',-0.09
'0:02.641',0.02
'0:02.645',0.14
'0:02.648',0.27
'0:02.652',0.32
'0:02.656',0.23
'0:02.660',0.2
'0:02.664',0.23
'0:02.668',0.19
'0:02.672',0.37
'0:02.676',0.57
'0:02.680',0.89
'0:02.684',1.3
'0:02.688',1.51
'0:02.691',1.67
'0:02.695',2.06
'0:02.699',2.41
'0:02.703',2.7
'0:02.707',2.87
'0:02.711',3.06
'0:02.715',3.29
'0:02.719',3.34
'0:02.723',3.27
'0:02.727',3.22
'0:02.730',3.24
'0:02.734',3.03
'0:02.738',2.72
'0:02.742',2.32
'0:02.746',1.69
'0:02.750',0.96
'0:02.754',0.11
'0:02.758',-0.65
'0:02.762',-1.29
'0:02.766',-1.59
'0:02.770',-1.65
'0:02.773',-1.68
'0:02.777',-1.74
'0:02.781',-1.98
'0:02.785',-2
'0:02.789',-1.68
'0:02.793',-1.34
'0:02.797',-1.15
'0:02.801',-1.07
'0:02.805',-1.12
'0:02.809',-1.12
'0:02.813',-1.07
'0:02.816',-0.9
'0:02.820',-0.71
'0:02.824',-0.52
'0:02.828',-0.25
'0:02.832',0
'0:02.836',0.08
'0:02.840',-0.01
'0:02.844',-0.21
'0:02.848',-0.49
'0:02.852',-0.92
'0:02.855',-1.44
'0:02.859',-1.93
'0:02.863',-2.47
'0:02.867',-2.8
'0:02.871',-2.92
'0:02.875',-2.87
'0:02.879',-2.75
'0:02.883',-2.7
'0:02.887',-2.7
'0:02.891',-2.69
'0:02.895',-2.75
'0:02.898',-2.7
'0:02.902',-2.63
'0:02.906',-2.72
'0:02.910',-2.73
'0:02.914',-2.36
'0:02.918',-1.36
'0:02.922',0.32
'0:02.926',2.52
'0:02.930',4.7
'0:02.934',6.5
'0:02.938',7.04
'0:02.941',4.31
'0:02.945',-0.76
'0:02.949',-5.56
'0:02.953',-8.87
'0:02.957',-10.21
'0:02.961',-9.67
'0:02.965',-8.04
'0:02.969',-6.03
'0:02.973',-4.17
'0:02.977',-2.73
'0:02.980',-1.62
'0:02.984',-0.76
'0:02.988',-0.21
'0:02.992',-0.04
'0:02.996',-0.07
'0:03.000',0.07
'0:03.004',0.38
'0:03.008',0.75
'0:03.012',0.99
'0:03.016',1.04
'0:03.020',1.1
'0:03.023',1.25
'0:03.027',1.43
'0:03.031',1.56
'0:03.035',1.49
'0:03.039',1.55
'0:03.043',1.82
'0:03.047',2
'0:03.051',2.05
'0:03.055',2.11
'0:03.059',2.26
'0:03.063',2.39
'0:03.066',2.39
'0:03.070',2.53
'0:03.074',2.79
'0:03.078',3.15
'0:03.082',3.43
'0:03.086',3.68
'0:03.090',4.08
'0:03.094',4.53
'0:03.098',4.89
'0:03.102',5.07
'0:03.105',5.1
'0:03.109',5.03
'0:03.113',4.93
'0:03.117',4.65
'0:03.121',4.14
'0:03.125',3.51
'0:03.129',2.8
'0:03.133',2.19
'0:03.137',1.68
'0:03.141',1.16
'0:03.145',0.64
'0:03.148',0.21
'0:03.152',0.01
'0:03.156',-0.11
'0:03.160',-0.3
'0:03.164',-0.39
'0:03.168',-0.27
'0:03.172',-0.03
'0:03.176',0.13
'0:03.180',0.27
'0:03.184',0.51
'0:03.188',0.7
'0:03.191',0.87
'0:03.195',1.02
'0:03.199',1.19
'0:03.203',1.45
'0:03.207',1.59
'0:03.211',1.54
'0:03.215',1.47
'0:03.219',1.44
'0:03.223',1.53
'0:03.227',1.54
'0:03.230',1.06
'0:03.234',0.31
'0:03.238',-0.3
'0:03.242',-0.6
'0:03.246',-0.93
'0:03.250',-1.21
'0:03.254',-1.54
'0:03.258',-1.84
'0:03.262',-1.96
'0:03.266',-1.97
'0:03.270',-1.92
'0:03.273',-1.9
'0:03.277',-1.87
'0:03.281',-1.88
'0:03.285',-2.04
'0:03.289',-2.33
'0:03.293',-2.39
'0:03.297',-1.92
'0:03.301',-0.62
'0:03.305',1.29
'0:03.309',3.59
'0:03.313',5.75
'0:03.316',7.59
'0:03.320',8.46
'0:03.324',5.69
'0:03.328',-0.06
'0:03.332',-5.35
'0:03.336',-8.9
'0:03.340',-10.43
'0:03.344',-10
'0:03.348',-8.49
'0:03.352',-6.46
'0:03.355',-4.42
'0:03.359',-2.71
'0:03.363',-1.52
'0:03.367',-0.72
'0:03.371',-0.14
'0:03.375',0.28
'0:03.379',0.45
'0:03.383',0.6
'0:03.387',0.74
'0:03.391',1.01
'0:03.395',1.45
'0:03.398',1.68
'0:03.402',1.83
'0:03.406',1.83
'0:03.410',1.67
'0:03.414',1.5
'0:03.418',1.39
'0:03.422',1.42
'0:03.426',1.62
'0:03.430',1.95
'0:03.434',2.02
'0:03.438',1.89
'0:03.441',1.86
'0:03.445',1.93
'0:03.449',2.23
'0:03.453',2.71
'0:03.457',3.13
'0:03.461',3.45
'0:03.465',3.75
'0:03.469',4.2
'0:03.473',4.69
'0:03.477',4.9
'0:03.480',4.79
'0:03.484',4.66
'0:03.488',4.75
'0:03.492',5.04
'0:03.496',5.06
'0:03.500',4.77
'0:03.504',4.19
'0:03.508',3.31
'0:03.512',2.38
'0:03.516',1.48
'0:03.520',0.64
'0:03.523',-0.07
'0:03.527',-0.49
'0:03.531',-0.81
'0:03.535',-1.23
'0:03.539',-1.53
'0:03.543',-1.33
'0:03.547',-1.19
'0:03.551',-1.24
'0:03.555',-1.1
'0:03.559',-0.8
'0:03.563',-0.53
'0:03.566',-0.42
'0:03.570',-0.24
'0:03.574',-0.12
'0:03.578',-0.05
'0:03.582',-0.02
'0:03.586',0
'0:03.590',0.12
'0:03.594',-0.03
'0:03.598',-0.25
'0:03.602',-0.27
'0:03.605',-0.15
'0:03.609',-0.09
'0:03.613',-0.4
'0:03.617',-0.89
'0:03.621',-1.46
'0:03.625',-2.01
'0:03.629',-2.33
'0:03.633',-2.59
'0:03.637',-2.84
'0:03.641',-2.9
'0:03.645',-2.84
'0:03.648',-2.75
'0:03.652',-2.92
'0:03.656',-3.02
'0:03.660',-3.04
'0:03.664',-3.06
'0:03.668',-3.18
'0:03.672',-3.19
'0:03.676',-2.99
'0:03.680',-2.25
'0:03.684',-0.73
'0:03.688',1.4
'0:03.691',3.84
'0:03.695',5.95
'0:03.699',7.54
'0:03.703',7.16
'0:03.707',2.66
'0:03.711',-3.48
'0:03.715',-8.07
'0:03.719',-10.78
'0:03.723',-11.54
'0:03.727',-10.65
'0:03.730',-8.59
'0:03.734',-6.2
'0:03.738',-4.21
'0:03.742',-2.72
'0:03.746',-1.71
'0:03.750',-0.97
'0:03.754',-0.42
'0:03.758',0.09
'0:03.762',0.51
'0:03.766',0.64
'0:03.770',0.6
'0:03.773',0.58
'0:03.777',0.72
'0:03.781',0.99
'0:03.785',1.3
'0:03.789',1.52
'0:03.793',1.76
'0:03.797',1.64
'0:03.801',1.67
'0:03.805',1.92
'0:03.809',2.1
'0:03.813',2.06
'0:03.816',1.86
'0:03.820',1.9
'0:03.824',1.99
'0:03.828',2.28
'0:03.832',2.65
'0:03.836',2.91
'0:03.840',3.03
'0:03.844',3.39
'0:03.848',4.03
'0:03.852',4.62
'0:03.855',4.92
'0:03.859',5.06
'0:03.863',5.26
'0:03.867',5.41
'0:03.871',5.23
'0:03.875',4.68
'0:03.879',4.11
'0:03.883',3.84
'0:03.887',3.53
'0:03.891',2.93
'0:03.895',2.01
'0:03.898',1.22
'0:03.902',0.56
'0:03.906',0.1
'0:03.910',-0.37
'0:03.914',-0.92
'0:03.918',-1.3
'0:03.922',-1.28
'0:03.926',-1.02
'0:03.930',-0.83
'0:03.934',-1.06
'0:03.938',-1.07
'0:03.941',-1
'0:03.945',-0.99
'0:03.949',-0.99
'0:03.953',0.11
'0:03.957',0.2
'0:03.961',0.2
'0:03.965',0.2
'0:03.969',0.2
'0:03.973',0.2
'0:03.977',0.2
'0:03.980',0.2
'0:03.984',0.2
'0:03.988',0.2
'0:03.992',0.2
'0:03.996',0.2
'0:04.000',-0.56
'0:04.004',-0.9
'0:04.008',-1.41
'0:04.012',-2.12
'0:04.016',-2.63
'0:04.020',-2.66
'0:04.023',-2.39
'0:04.027',-2.31
'0:04.031',-2.27
'0:04.035',-2.12
'0:04.039',-2.17
'0:04.043',-2.15
'0:04.047',-2.13
'0:04.051',-2.42
'0:04.055',-2.72
'0:04.059',-2.53
'0:04.063',-1.78
'0:04.066',-0.47
'0:04.070',1.81
'0:04.074',4.4
'0:04.078',6.42
'0:04.082',7.62
'0:04.086',7.15
'0:04.090',2.85
'0:04.094',-3.46
'0:04.098',-8.4
'0:04.102',-11.21
'0:04.105',-11.96
'0:04.109',-11.01
'0:04.113',-9.32
'0:04.117',-7.28
'0:04.121',-5.28
'0:04.125',-3.54
'0:04.129',-2.22
'0:04.133',-1.32
'0:04.137',-0.86
'0:04.141',-0.49
'0:04.145',-0.22
'0:04.148',-0.1
'0:04.152',0.17
'0:04.156',0.39
'0:04.160',0.47
'0:04.164',0.44
'0:04.168',0.51
'0:04.172',0.7
'0:04.176',0.78
'0:04.180',0.92
'0:04.184',1.17
'0:04.188',1.25
'0:04.191',1.22
'0:04.195',0.99
'0:04.199',0.97
'0:04.203',1.07
'0:04.207',1.26
'0:04.211',1.46
'0:04.215',1.73
'0:04.219',2.04
'0:04.223',2.36
'0:04.227',2.73
'0:04.230',2.99
'0:04.234',3.33
'0:04.238',3.74
'0:04.242',4.07
'0:04.246',4.06
'0:04.250',3.93
'0:04.254',3.92
'0:04.258',3.93
'0:04.262',3.68
'0:04.266',3.31
'0:04.270',2.66
'0:04.273',1.99
'0:04.277',1.36
'0:04.281',0.75
'0:04.285',0.05
'0:04.289',-0.59
'0:04.293',-1.12
'0:04.297',-1.52
'0:04.301',-1.93
'0:04.305',-2.18
'0:04.309',-2.25
'0:04.313',-2.1
'0:04.316',-1.86
'0:04.320',-1.66
'0:04.324',-1.6
'0:04.328',-1.51
'0:04.332',-1.24
'0:04.336',-0.91
'0:04.340',-0.66
'0:04.344',-0.54
'0:04.348',-0.39
'0:04.352',-0.2
'0:04.355',-0.07
'0:04.359',-0.1
'0:04.363',-0.19
'0:04.367',-0.31
'0:04.371',-0.41
'0:04.375',-0.52
'0:04.379',-0.9
'0:04.383',-1.45
'0:04.387',-1.95
'0:04.391',-2.48
'0:04.395',-2.88
'0:04.398',-3.18
'0:04.402',-3.24
'0:04.406',-3.22
'0:04.410',-3.19
'0:04.414',-3.16
'0:04.418',-3.04
'0:04.422',-2.95
'0:04.426',-2.99
'0:04.430',-3.09
'0:04.434',-3.31
'0:04.438',-3.47
'0:04.441',-3.27
'0:04.445',-2.31
'0:04.449',-0.41
'0:04.453',2.11
'0:04.457',4.84
'0:04.461',7.31
'0:04.465',9.16
'0:04.469',8.58
'0:04.473',3.48
'0:04.477',-2.97
'0:04.480',-7.85
'0:04.484',-10.37
'0:04.488',-10.8
'0:04.492',-9.69
'0:04.496',-7.86
'0:04.500',-5.93
'0:04.504',-4.07
'0:04.508',-2.52
'0:04.512',-1.51
'0:04.516',-0.98
'0:04.520',-0.72
'0:04.523',-0.45
'0:04.527',-0.18
'0:04.531',0.07
'0:04.535',0.34
'0:04.539',0.61
'0:04.543',0.78
'0:04.547',0.95
'0:04.551',1.07
'0:04.555',1.06
'0:04.559',1.05
'0:04.563',1.16
'0:04.566',1.31
'0:04.570',1.48
'0:04.574',1.58
'0:04.578',1.66
'0:04.582',1.82
'0:04.586',1.92
'0:04.590',2.01
'0:04.594',2.03
'0:04.598',2.07
'0:04.602',2.33
'0:04.605',2.55
'0:04.609',2.75
'0:04.613',3.04
'0:04.617',3.4
'0:04.621',3.79
'0:04.625',4.18
'0:04.629',4.45
'0:04.633',4.49
'0:04.637',4.41
'0:04.641',4.44
'0:04.645',4.32
'0:04.648',4.06
'0:04.652',3.6
'0:04.656',2.98
'0:04.660',2.4
'0:04.664',1.86
'0:04.668',1.36
'0:04.672',0.76
'0:04.676',0.17
'0:04.680',-0.26
'0:04.684',-0.52
'0:04.688',-0.62
'0:04.691',-0.68
'0:04.695',-0.87
'0:04.699',-0.88
'0:04.703',-0.62
'0:04.707',-0.25
'0:04.711',-0.07
'0:04.715',-0.06
'0:04.719',-0.11
'0:04.723',0.12
'0:04.727',0.53
'0:04.730',0.77
'0:04.734',0.65
'0:04.738',0.47
'0:04.742',0.38
'0:04.746',0.25
'0:04.750',0.06
'0:04.754',-0.04
'0:04.758',-0.16
'0:04.762',-0.33
'0:04.766',-0.59
'0:04.770',-0.94
'0:04.773',-1.52
'0:04.777',-2.07
'0:04.781',-2.44
'0:04.785',-2.6
'0:04.789',-2.67
'0:04.793',-2.72
'0:04.797',-2.66
'0:04.801',-2.54
'0:04.805',-2.41
'0:04.809',-2.34
'0:04.813',-2.36
'0:04.816',-2.55
'0:04.820',-2.88
'0:04.824',-2.91
'0:04.828',-2.22
'0:04.832',-0.71
'0:04.836',1.48
'0:04.840',4.02
'0:04.844',6.46
'0:04.848',8.41
'0:04.852',8.49
'0:04.855',4.82
'0:04.859',-0.79
'0:04.863',-5.73
'0:04.867',-8.98
'0:04.871',-10.21
'0:04.875',-9.73
'0:04.879',-8.35
'0:04.883',-6.53
'0:04.887',-4.89
'0:04.891',-3.62
'0:04.895',-2.87
'0:04.898',-2.39
'0:04.902',-1.93
'0:04.906',-1.4
'0:04.910',-0.91
'0:04.914',-0.57
'0:04.918',-0.29
'0:04.922',-0.21
'0:04.926',-0.19
'0:04.930',-0.14
'0:04.934',-0.09
'0:04.938',0.02
'0:04.941',0.2
'0:04.945',0.27
'0:04.949',0.25
'0:04.953',0.13
'0:04.957',0.15
'0:04.961',0.36
'0:04.965',0.51
'0:04.969',0.51
'0:04.973',0.51
'0:04.977',0.66
'0:04.980',0.87
'0:04.984',1.25
'0:04.988',1.56
'0:04.992',1.85
'0:04.996',2.21
'0:05.000',2.58
'0:05.004',2.9
'0:05.008',3.12
'0:05.012',3.17
'0:05.016',3.22
'0:05.020',3.32
'0:05.023',3.25
'0:05.027',2.99
'0:05.031',2.67
'0:05.035',2.56
'0:05.039',2.36
'0:05.043',1.92
'0:05.047',1.29
'0:05.051',0.63
'0:05.055',0.14
'0:05.059',-0.11
'0:05.063',-0.29
'0:05.066',-0.89
'0:05.070',-1.9
'0:05.074',-2.33
'0:05.078',-1.82
'0:05.082',-1.11
'0:05.086',-0.9
'0:05.090',-1.18
'0:05.094',-1.29
'0:05.098',-1.37
'0:05.102',-1.32
'0:05.105',-0.96
'0:05.109',-0.58
'0:05.113',-0.58
'0:05.117',-0.73
'0:05.121',-0.75
'0:05.125',-0.73
'0:05.129',-0.72
'0:05.133',-0.73
'0:05.137',-0.73
'0:05.141',-0.82
'0:05.145',-1.1
'0:05.148',-1.42
'0:05.152',-1.69
'0:05.156',-1.8
'0:05.160',-1.8
'0:05.164',-2.31
'0:05.168',-2.72
'0:05.172',-2.87
'0:05.176',-2.96
'0:05.180',-3.12
'0:05.184',-3.07
'0:05.188',-2.8
'0:05.191',-2.97
'0:05.195',-3.19
'0:05.199',-3.3
'0:05.203',-3.36
'0:05.207',-3.24
'0:05.211',-2.68
'0:05.215',-1.64
'0:05.219',0.14
'0:05.223',2.47
'0:05.227',4.65
'0:05.230',6.3
'0:05.234',6.26
'0:05.238',4.38
'0:05.242',-0.7
'0:05.246',-5.35
'0:05.250',-8.78
'0:05.254',-10.8
'0:05.258',-10.83
'0:05.262',-9.62
'0:05.266',-7.71
'0:05.270',-5.73
'0:05.273',-3.92
'0:05.277',-2.64
'0:05.281',-1.91
'0:05.285',-1.38
'0:05.289',-0.89
'0:05.293',-0.56
'0:05.297',-0.24
'0:05.301',0.05
'0:05.305',0.28
'0:05.309',0.6
'0:05.313',0.84
'0:05.316',0.98
'0:05.320',1.05
'0:05.324',1.09
'0:05.328',1.18
'0:05.332',1.42
'0:05.336',1.7
'0:05.340',1.72
'0:05.344',1.64
'0:05.348',1.68
'0:05.352',1.76
'0:05.355',1.8
'0:05.359',1.9
'0:05.363',2.12
'0:05.367',2.44
'0:05.371',2.79
'0:05.375',3.13
'0:05.379',3.45
'0:05.383',3.84
'0:05.387',4.26
'0:05.391',4.67
'0:05.395',5.02
'0:05.398',5.14
'0:05.402',5.12
'0:05.406',5.05
'0:05.410',4.93
'0:05.414',4.76
'0:05.418',4.34
'0:05.422',3.84
'0:05.426',3.24
'0:05.430',2.53
'0:05.434',1.82
'0:05.438',1.19
'0:05.441',0.58
'0:05.445',-0.08
'0:05.449',-0.57
'0:05.453',-0.79
'0:05.457',-0.82
'0:05.461',-0.59
'0:05.465',-0.23
'0:05.469',-0.05
'0:05.473',-0.04
'0:05.477',-0.07
'0:05.480',0.04
'0:05.484',0.45
'0:05.488',0.78
'0:05.492',0.86
'0:05.496',0.99
'0:05.500',1.24
'0:05.504',1.32
'0:05.508',1.39
'0:05.512',1.3
'0:05.516',1.1
'0:05.520',0.89
'0:05.523',0.79
'0:05.527',0.69
'0:05.531',0.57
'0:05.535',0.28
'0:05.539',-0.36
'0:05.543',-1.14
'0:05.547',-1.79
'0:05.551',-1.99
'0:05.555',-2.01
'0:05.559',-2.1
'0:05.563',-2.1
'0:05.566',-2.02
'0:05.570',-2.04
'0:05.574',-2
'0:05.578',-1.99
'0:05.582',-1.99
'0:05.586',-2.23
'0:05.590',-2.4
'0:05.594',-2.37
'0:05.598',-1.47
'0:05.602',0.34
'0:05.605',2.55
'0:05.609',4.83
'0:05.613',6.9
'0:05.617',8.59
'0:05.621',7.95
'0:05.625',2.96
'0:05.629',-3.33
'0:05.633',-8.07
'0:05.637',-10.61
'0:05.641',-11.01
'0:05.645',-9.88
'0:05.648',-8.16
'0:05.652',-6.11
'0:05.656',-4.21
'0:05.660',-2.66
'0:05.664',-1.56
'0:05.668',-0.78
'0:05.672',-0.17
'0:05.676',0.21
'0:05.680',0.56
'0:05.684',0.94
'0:05.688',1.11
'0:05.691',1.15
'0:05.695',1.17
'0:05.699',1.22
'0:05.703',1.27
'0:05.707',1.32
'0:05.711',1.42
'0:05.715',1.42
'0:05.719',1.47
'0:05.723',1.57
'0:05.727',1.64
'0:05.730',1.81
'0:05.734',1.88
'0:05.738',2.17
'0:05.742',2.57
'0:05.746',2.69
'0:05.750',2.9
'0:05.754',3.09
'0:05.758',3.36
'0:05.762',3.6
'0:05.766',3.7
'0:05.770',3.98
'0:05.773',4.22
'0:05.777',4.45
'0:05.781',4.61
'0:05.785',4.46
'0:05.789',4.18
'0:05.793',3.91
'0:05.797',3.69
'0:05.801',3.52
'0:05.805',3.02
'0:05.809',2.28
'0:05.813',1.63
'0:05.816',0.96
'0:05.820',0.26
'0:05.824',-0.64
'0:05.828',-1.4
'0:05.832',-1.88
'0:05.836',-2.01
'0:05.840',-1.78
'0:05.844',-1.48
'0:05.848',-1.55
'0:05.852',-1.41
'0:05.855',-1.34
'0:05.859',-1.43
'0:05.863',-1.39
'0:05.867',-1.15
'0:05.871',-0.87
'0:05.875',-0.79
'0:05.879',-0.56
'0:05.883',-0.27
'0:05.887',-0.07
'0:05.891',0.06
'0:05.895',0.01
'0:05.898',-0.19
'0:05.902',-0.6
'0:05.906',-0.89
'0:05.910',-1.02
'0:05.914',-1.19
'0:05.918',-1.5
'0:05.922',-1.88
'0:05.926',-2.25
'0:05.930',-2.46
'0:05.934',-2.82
'0:05.938',-3.18
'0:05.941',-3.45
'0:05.945',-3.34
'0:05.949',-3.19
'0:05.953',-3.24
'0:05.957',-3.22
'0:05.961',-3.34
'0:05.965',-3.41
'0:05.969',-3.45
'0:05.973',-3.46
'0:05.977',-3.29
'0:05.980',-2.29
'0:05.984',-0.45
'0:05.988',1.76
'0:05.992',3.75
'0:05.996',5.71
'0:06.000',7.26
'0:06.004',6.71
'0:06.008',1.75
'0:06.012',-4.52
'0:06.016',-9.06
'0:06.020',-11.27
'0:06.023',-11.46
'0:06.027',-10.44
'0:06.031',-8.84
'0:06.035',-6.94
'0:06.039',-4.92
'0:06.043',-3.14
'0:06.047',-1.82
'0:06.051',-1.03
'0:06.055',-0.55
'0:06.059',-0.1
'0:06.063',0.29
'0:06.066',0.63
'0:06.070',0.78
'0:06.074',0.83
'0:06.078',0.9
'0:06.082',1
'0:06.086',1.14
'0:06.090',1.2
'0:06.094',1.34
'0:06.098',1.39
'0:06.102',1.47
'0:06.105',1.61
'0:06.109',1.63
'0:06.113',1.68
'0:06.117',1.8
'0:06.121',1.95
'0:06.125',2.12
'0:06.129',2.29
'0:06.133',2.54
'0:06.137',2.85
'0:06.141',3.28
'0:06.145',3.7
'0:06.148',4.09
'0:06.152',4.46
'0:06.156',4.82
'0:06.160',4.92
'0:06.164',4.94
'0:06.168',4.87
'0:06.172',4.92
'0:06.176',5
'0:06.180',4.75
'0:06.184',4.1
'0:06.188',3.45
'0:06.191',2.82
'0:06.195',2.14
'0:06.199',1.4
'0:06.203',0.72
'0:06.207',0.13
'0:06.211',-0.35
'0:06.215',-0.74
'0:06.219',-1.14
'0:06.223',-1.34
'0:06.227',-1.31
'0:06.230',-1.16
'0:06.234',-1
'0:06.238',-0.97
'0:06.242',-0.97
'0:06.246',-0.85
'0:06.250',-0.61
'0:06.254',-0.31
'0:06.258',-0.16
'0:06.262',-0.14
'0:06.266',0.14
'0:06.270',0.39
'0:06.273',0.52
'0:06.277',0.54
'0:06.281',0.42
'0:06.285',0.3
'0:06.289',0.25
'0:06.293',0.03
'0:06.297',-0.26
'0:06.301',-0.65
'0:06.305',-1.11
'0:06.309',-1.46
'0:06.313',-1.85
'0:06.316',-2.33
'0:06.320',-2.62
'0:06.324',-2.77
'0:06.328',-2.78
'0:06.332',-2.85
'0:06.336',-2.85
'0:06.340',-2.82
'0:06.344',-2.75
'0:06.348',-2.75
'0:06.352',-2.94
'0:06.355',-3.16
'0:06.359',-3.14
'0:06.363',-2.58
'0:06.367',-1.29
'0:06.371',0.83
'0:06.375',3.43
'0:06.379',5.89
'0:06.383',7.9
'0:06.387',8.93
'0:06.391',6.69
'0:06.395',0.45
'0:06.398',-5.51
'0:06.402',-9.43
'0:06.406',-11.16
'0:06.410',-10.94
'0:06.414',-9.5
'0:06.418',-7.4
'0:06.422',-5.42
'0:06.426',-3.75
'0:06.430',-2.5
'0:06.434',-1.69
'0:06.438',-1.24
'0:06.441',-0.97
'0:06.445',-0.68
'0:06.449',-0.36
'0:06.453',-0.09
'0:06.457',0.1
'0:06.461',0.25
'0:06.465',0.38
'0:06.469',0.51
'0:06.473',0.73
'0:06.477',0.85
'0:06.480',1.01
'0:06.484',1.12
'0:06.488',1.1
'0:06.492',1.13
'0:06.496',1.25
'0:06.500',1.49
'0:06.504',1.77
'0:06.508',1.85
'0:06.512',1.92
'0:06.516',2.1
'0:06.520',2.39
'0:06.523',2.78
'0:06.527',3.14
'0:06.531',3.51
'0:06.535',3.85
'0:06.539',4.17
'0:06.543',4.5
'0:06.547',4.78
'0:06.551',4.98
'0:06.555',5.1
'0:06.559',5.02
'0:06.563',4.78
'0:06.566',4.27
'0:06.570',3.69
'0:06.574',3.18
'0:06.578',2.59
'0:06.582',2.01
'0:06.586',1.38
'0:06.590',0.77
'0:06.594',0.19
'0:06.598',-0.24
'0:06.602',-0.53
'0:06.605',-0.73
'0:06.609',-0.85
'0:06.613',-0.92
'0:06.617',-0.87
'0:06.621',-0.7
'0:06.625',-0.48
'0:06.629',-0.32
'0:06.633',-0.19
'0:06.637',-0.04
'0:06.641',0.2
'0:06.645',0.36
'0:06.648',0.45
'0:06.652',0.57
'0:06.656',0.65
'0:06.660',0.83
'0:06.664',0.88
'0:06.668',0.79
'0:06.672',0.71
'0:06.676',0.5
'0:06.680',0.19
'0:06.684',-0.18
'0:06.688',-0.63
'0:06.691',-1.19
'0:06.695',-1.69
'0:06.699',-2.01
'0:06.703',-2.23
'0:06.707',-2.32
'0:06.711',-2.37
'0:06.715',-2.39
'0:06.719',-2.31
'0:06.723',-2.18
'0:06.727',-2.12
'0:06.730',-2.16
'0:06.734',-2.24
'0:06.738',-2.41
'0:06.742',-2.58
'0:06.746',-2.6
'0:06.750',-1.98
'0:06.754',-0.49
'0:06.758',1.63
'0:06.762',4.16
'0:06.766',6.5
'0:06.770',8.47
'0:06.773',8.99
'0:06.777',5.67
'0:06.781',0.02
'0:06.785',-5.19
'0:06.789',-8.79
'0:06.793',-10.22
'0:06.797',-9.71
'0:06.801',-8.14
'0:06.805',-6.31
'0:06.809',-4.68
'0:06.813',-3.32
'0:06.816',-2.17
'0:06.820',-1.41
'0:06.824',-0.96
'0:06.828',-0.65
'0:06.832',-0.5
'0:06.836',-0.29
'0:06.840',-0.14
'0:06.844',0.02
'0:06.848',0.16
'0:06.852',0.35
'0:06.855',0.54
'0:06.859',0.63
'0:06.863',0.71
'0:06.867',0.94
'0:06.871',1.16
'0:06.875',1.34
'0:06.879',1.45
'0:06.883',1.49
'0:06.887',1.54
'0:06.891',1.54
'0:06.895',1.58
'0:06.898',1.68
'0:06.902',1.91
'0:06.906',2.31
'0:06.910',2.88
'0:06.914',3.31
'0:06.918',3.56
'0:06.922',3.81
'0:06.926',4.1
'0:06.930',4.44
'0:06.934',4.7
'0:06.938',4.68
'0:06.941',4.68
'0:06.945',4.59
'0:06.949',4.24
'0:06.953',3.96
'0:06.957',3.66
'0:06.961',3.11
'0:06.965',2.5
'0:06.969',2.03
'0:06.973',1.47
'0:06.977',0.87
'0:06.980',0.42
'0:06.984',0.15
'0:06.988',-0.02
'0:06.992',-0.15
'0:06.996',-0.38
'0:07.000',-0.51
'0:07.004',-0.46
'0:07.008',-0.34
'0:07.012',-0.19
'0:07.016',-0.09
'0:07.020',-0.14
'0:07.023',-0.14
'0:07.027',0.05
'0:07.031',0.3
'0:07.035',0.47
'0:07.039',0.52
'0:07.043',0.4
'0:07.047',0.34
'0:07.051',0.28
'0:07.055',0.17
'0:07.059',0.13
'0:07.063',0.03
'0:07.066',-0.23
'0:07.070',-0.58
'0:07.074',-0.97
'0:07.078',-1.41
'0:07.082',-1.93
'0:07.086',-2.31
'0:07.090',-2.46
'0:07.094',-2.46
'0:07.098',-2.45
'0:07.102',-2.53
'0:07.105',-2.53
'0:07.109',-2.44
'0:07.113',-2.46
'0:07.117',-2.6
'0:07.121',-2.68
'0:07.125',-2.79
'0:07.129',-2.94
'0:07.133',-2.85
'0:07.137',-2.09
'0:07.141',-0.69
'0:07.145',1.32
'0:07.148',3.61
'0:07.152',5.54
'0:07.156',6.8
'0:07.160',5.85
'0:07.164',1.34
'0:07.168',-3.87
'0:07.172',-7.89
'0:07.176',-10.19
'0:07.180',-10.56
'0:07.184',-9.44
'0:07.188',-7.71
'0:07.191',-5.83
'0:07.195',-4.06
'0:07.199',-2.83
'0:07.203',-1.95
'0:07.207',-1.34
'0:07.211',-0.79
'0:07.215',-0.41
'0:07.219',-0.27
'0:07.223',-0.31
'0:07.227',-0.24
'0:07.230',-0.02
'0:07.234',0.15
'0:07.238',0.28
'0:07.242',0.37
'0:07.246',0.42
'0:07.250',0.42
'0:07.254',0.52
'0:07.258',0.71
'0:07.262',0.88
'0:07.266',1.11
'0:07.270',1.32
'0:07.273',1.34
'0:07.277',1.34
'0:07.281',1.39
'0:07.285',1.62
'0:07.289',1.83
'0:07.293',1.83
'0:07.297',1.83
'0:07.301',3.39
'0:07.305',3.76
'0:07.309',4.09
'0:07.313',4.32
'0:07.316',4.44
'0:07.320',4.48
'0:07.324',4.53
'0:07.328',4.34
'0:07.332',4.04
'0:07.336',3.54
'0:07.340',2.97
'0:07.344',2.26
'0:07.348',1.45
'0:07.352',0.61
'0:07.355',0.05
'0:07.359',-0.41
'0:07.363',-1
'0:07.367',-1.54
'0:07.371',-1.84
'0:07.375',-1.92
'0:07.379',-1.7
'0:07.383',-1.43
'0:07.387',-1.18
'0:07.391',-0.84
'0:07.395',-0.46
'0:07.398',-0.39
'0:07.402',-0.21
'0:07.406',0.3
'0:07.410',0.39
'0:07.414',0.11
'0:07.418',0.03
'0:07.422',-0.07
'0:07.426',-0.13
'0:07.430',-0.01
'0:07.434',0.14
'0:07.438',-0.09
'0:07.441',-0.43
'0:07.445',-0.85
'0:07.449',-1.2
'0:07.453',-1.48
'0:07.457',-1.65
'0:07.461',-1.85
'0:07.465',-1.98
'0:07.469',-2.4
'0:07.473',-3.1
'0:07.477',-3.43
'0:07.480',-3.55
'0:07.484',-3.48
'0:07.488',-3.36
'0:07.492',-3.18
'0:07.496',-2.99
'0:07.500',-2.85
'0:07.504',-3.06
'0:07.508',-3.33
'0:07.512',-3.19
'0:07.516',-2.37
'0:07.520',-0.72
'0:07.523',1.5
'0:07.527',3.88
'0:07.531',6.08
'0:07.535',7.99
'0:07.539',7.62
'0:07.543',2.71
'0:07.547',-3.81
'0:07.551',-8.4
'0:07.555',-10.83
'0:07.559',-11.35
'0:07.563',-11.35
'0:07.566',-11.35
'0:07.570',-11.35
'0:07.574',-11.35
'0:07.578',-3.3
'0:07.582',-1.97
'0:07.586',-1.34
'0:07.590',-0.75
'0:07.594',-0.04
'0:07.598',0.42
'0:07.602',0.66
'0:07.605',0.78
'0:07.609',0.74
'0:07.613',0.88
'0:07.617',1.1
'0:07.621',1.22
'0:07.625',1.25
'0:07.629',1.32
'0:07.633',1.44
'0:07.637',1.72
'0:07.641',1.83
'0:07.645',1.83
'0:07.648',2.02
'0:07.652',2.13
'0:07.656',2.3
'0:07.660',2.46
'0:07.664',2.51
'0:07.668',2.58
'0:07.672',2.71
'0:07.676',3.1
'0:07.680',3.67
'0:07.684',3.96
'0:07.688',4.2
'0:07.691',4.47
'0:07.695',4.71
'0:07.699',4.97
'0:07.703',5.22
'0:07.707',5.34
'0:07.711',5.24
'0:07.715',4.92
'0:07.719',4.38
'0:07.723',3.71
'0:07.727',3.16
'0:07.730',2.48
'0:07.734',1.55
'0:07.738',0.51
'0:07.742',-0.19
'0:07.746',-0.43
'0:07.750',-0.71
'0:07.754',-1.12
'0:07.758',-1.36
'0:07.762',-1.36
'0:07.766',-1.16
'0:07.770',-1.02
'0:07.773',-0.8
'0:07.777',-0.78
'0:07.781',-0.75
'0:07.785',-0.65
'0:07.789',-0.46
'0:07.793',-0.12
'0:07.797',0.03
'0:07.801',0.18
'0:07.805',0.4
'0:07.809',0.71
'0:07.813',0.8
'0:07.816',0.63
'0:07.820',0.19
'0:07.824',-0.09
'0:07.828',-0.22
'0:07.832',-0.46
'0:07.836',-0.85
'0:07.840',-1.27
'0:07.844',-1.64
'0:07.848',-1.87
'0:07.852',-2.04
'0:07.855',-2.39
'0:07.859',-2.73
'0:07.863',-2.85
'0:07.867',-2.75
'0:07.871',-2.49
'0:07.875',-2.34
'0:07.879',-2.29
'0:07.883',-2.24
'0:07.887',-2.27
'0:07.891',-2.45
'0:07.895',-2.55
'0:07.898',-2.09
'0:07.902',-1.41
'0:07.906',-1.41
'0:07.910',-1.41
'0:07.914',0.74
'0:07.918',7.72
'0:07.922',7.31
'0:07.926',2.89
'0:07.930',-3.29
'0:07.934',-8.12
'0:07.938',-10.87
'0:07.941',-11.53
'0:07.945',-11.07
'0:07.949',-9.25
'0:07.953',-6.94
'0:07.957',-4.84
'0:07.961',-3.14
'0:07.965',-1.92
'0:07.969',-0.99
'0:07.973',-0.36
'0:07.977',-0.06
'0:07.980',0.18
'0:07.984',0.37
'0:07.988',0.56
'0:07.992',0.68
'0:07.996',0.78
'0:08.000',0.86
'0:08.004',0.86
'0:08.008',0.89
'0:08.012',0.96
'0:08.016',0.95
'0:08.020',0.98
'0:08.023',1.13
'0:08.027',1.39
'0:08.031',1.52
'0:08.035',1.42
'0:08.039',1.46
'0:08.043',1.59
'0:08.047',1.98
'0:08.051',2.34
'0:08.055',2.69
'0:08.059',2.97
'0:08.063',3.29
'0:08.066',3.54
'0:08.070',3.85
'0:08.074',4.11
'0:08.078',4.34
'0:08.082',4.51
'0:08.086',4.56
'0:08.090',4.52
'0:08.094',4.58
'0:08.098',4.46
'0:08.102',4.16
'0:08.105',3.65
'0:08.109',2.97
'0:08.113',2.14
'0:08.117',1.34
'0:08.121',0.71
'0:08.125',0.1
'0:08.129',-0.43
'0:08.133',-0.93
'0:08.137',-1.24
'0:08.141',-1.32
'0:08.145',-1.36
'0:08.148',-1.31
'0:08.152',-1.24
'0:08.156',-1.31
'0:08.160',-1.23
'0:08.164',-1.07
'0:08.168',-0.94
'0:08.172',-0.77
'0:08.176',-0.65
'0:08.180',-0.47
'0:08.184',-0.22
'0:08.188',0.08
'0:08.191',0.18
'0:08.195',0.06
'0:08.199',-0.14
'0:08.203',-0.34
'0:08.207',-0.54
'0:08.211',-0.66
'0:08.215',-0.78
'0:08.219',-0.99
'0:08.223',-1.37
'0:08.227',-1.92
'0:08.230',-2.49
'0:08.234',-2.92
'0:08.238',-3.07
'0:08.242',-3.1
'0:08.246',-3.18
'0:08.250',-3.3
'0:08.254',-3.38
'0:08.258',-3.31
'0:08.262',-3.14
'0:08.266',-3.09
'0:08.270',-3.11
'0:08.273',-3.37
'0:08.277',-3.73
'0:08.281',-3.72
'0:08.285',-2.98
'0:08.289',-1.49
'0:08.293',0.83
'0:08.297',3.85
'0:08.301',6.71
'0:08.305',8.82
'0:08.309',8.74
'0:08.313',4.39
'0:08.316',-1.68
'0:08.320',-6.71
'0:08.324',-9.91
'0:08.328',-10.9
'0:08.332',-10.12
'0:08.336',-8.47
'0:08.340',-6.64
'0:08.344',-4.96
'0:08.348',-3.55
'0:08.352',-2.48
'0:08.355',-1.8
'0:08.359',-1.43
'0:08.363',-0.97
'0:08.367',-0.6
'0:08.371',-0.28
'0:08.375',-0.02
'0:08.379',0.21
'0:08.383',0.39
'0:08.387',0.42
'0:08.391',0.46
'0:08.395',0.64
'0:08.398',0.87
'0:08.402',1.08
'0:08.406',1.08
'0:08.410',1.11
'0:08.414',1.2
'0:08.418',1.32
'0:08.422',1.49
'0:08.426',1.56
'0:08.430',1.65
'0:08.434',1.82
'0:08.438',2.15
'0:08.441',2.49
'0:08.445',2.71
'0:08.449',2.95
'0:08.453',3.34
'0:08.457',3.66
'0:08.461',3.97
'0:08.465',4.11
'0:08.469',4.34
'0:08.473',4.58
'0:08.477',4.81
'0:08.480',4.75
'0:08.484',4.46
'0:08.488',4.02
'0:08.492',3.56
'0:08.496',3.02
'0:08.500',2.43
'0:08.504',1.63
'0:08.508',0.75
'0:08.512',0
'0:08.516',-0.73
'0:08.520',-1.16
'0:08.523',-1.19
'0:08.527',-1.11
'0:08.531',-0.92
'0:08.535',-0.62
'0:08.539',-0.46
'0:08.543',-0.52
'0:08.547',-0.56
'0:08.551',-0.51
'0:08.555',-0.46
'0:08.559',-0.38
'0:08.563',-0.24
'0:08.566',-0.11
'0:08.570',-0.02
'0:08.574',0.1
'0:08.578',0.13
'0:08.582',0.13
'0:08.586',0.15
'0:08.590',0.13
'0:08.594',0.04
'0:08.598',-0.12
'0:08.602',-0.38
'0:08.605',-0.73
'0:08.609',-1.16
'0:08.613',-1.61
'0:08.617',-2.07
'0:08.621',-2.38
'0:08.625',-2.5
'0:08.629',-2.55
'0:08.633',-2.67
'0:08.637',-2.57
'0:08.641',-2.36
'0:08.645',-2.19
'0:08.648',-2.09
'0:08.652',-2.07
'0:08.656',-2.19
'0:08.660',-2.57
'0:08.664',-2.78
'0:08.668',-2.36
'0:08.672',-1.3
'0:08.676',0.34
'0:08.680',2.42
'0:08.684',4.55
'0:08.688',6.33
'0:08.691',7.21
'0:08.695',5.3
'0:08.699',0.43
'0:08.703',-4.72
'0:08.707',-8.51
'0:08.711',-10.27
'0:08.715',-10.05
'0:08.719',-8.67
'0:08.723',-6.83
'0:08.727',-4.98
'0:08.730',-3.33
'0:08.734',-2.17
'0:08.738',-1.51
'0:08.742',-1.09
'0:08.746',-0.8
'0:08.750',-0.66
'0:08.754',-0.6
'0:08.758',-0.45
'0:08.762',-0.31
'0:08.766',-0.16
'0:08.770',0
'0:08.773',0.09
'0:08.777',0.1
'0:08.781',0.23
'0:08.785',0.4
'0:08.789',0.51
'0:08.793',0.57
'0:08.797',0.61
'0:08.801',0.69
'0:08.805',0.77
'0:08.809',0.86
'0:08.813',0.92
'0:08.816',1.05
'0:08.820',1.32
'0:08.824',1.66
'0:08.828',2.1
'0:08.832',2.47
'0:08.836',2.76
'0:08.840',3.02
'0:08.844',3.42
'0:08.848',4.01
'0:08.852',4.39
'0:08.855',4.56
'0:08.859',4.48
'0:08.863',4.25
'0:08.867',3.95
'0:08.871',3.65
'0:08.875',3.19
'0:08.879',2.63
'0:08.883',2
'0:08.887',1.31
'0:08.891',0.63
'0:08.895',0.07
'0:08.898',-0.6
'0:08.902',-1.12
'0:08.906',-1.32
'0:08.910',-1.29
'0:08.914',-1.15
'0:08.918',-1.22
'0:08.922',-1.31
'0:08.926',-1.26
'0:08.930',-1.12
'0:08.934',-1.07
'0:08.938',-1.02
'0:08.941',-0.75
'0:08.945',-0.32
'0:08.949',-0.02
'0:08.953',0.15
'0:08.957',0.09
'0:08.961',0.09
'0:08.965',0.08
'0:08.969',0.13
'0:08.973',0.1
'0:08.977',0.15
'0:08.980',0.31
'0:08.984',0.17
'0:08.988',-0.36
'0:08.992',-0.95
'0:08.996',-1.53
'0:09.000',-2.12
'0:09.004',-2.68
'0:09.008',-2.99
'0:09.012',-3.04
'0:09.016',-3.05
'0:09.020',-3.07
'0:09.023',-3.01
'0:09.027',-2.91
'0:09.031',-2.82
'0:09.035',-2.67
'0:09.039',-2.65
'0:09.043',-2.9
'0:09.047',-3.04
'0:09.051',-2.76
'0:09.055',-1.54
'0:09.059',0.48
'0:09.063',2.85
'0:09.066',5.06
'0:09.070',7.11
'0:09.074',8.37
'0:09.078',6.43
'0:09.082',0.61
'0:09.086',-5.25
'0:09.090',-9.44
'0:09.094',-11.55
'0:09.098',-11.51
'0:09.102',-9.95
'0:09.105',-7.59
'0:09.109',-5.4
'0:09.113',-3.66
'0:09.117',-2.4
'0:09.121',-1.48
'0:09.125',-0.72
'0:09.129',-0.14
'0:09.133',0.1
'0:09.137',0.32
'0:09.141',0.64
'0:09.145',0.84
'0:09.148',0.95
'0:09.152',0.97
'0:09.156',1.08
'0:09.160',1.25
'0:09.164',1.42
'0:09.168',1.64
'0:09.172',1.69
'0:09.176',1.69
'0:09.180',1.98
'0:09.184',2.25
'0:09.188',2.4
'0:09.191',2.67
'0:09.195',2.81
'0:09.199',2.92
'0:09.203',3.01
'0:09.207',3.2
'0:09.211',3.64
'0:09.215',4.22
'0:09.219',4.63
'0:09.223',4.85
'0:09.227',5.12
'0:09.230',5.71
'0:09.234',6.01
'0:09.238',5.65
'0:09.242',5.32
'0:09.246',5.41
'0:09.250',5.36
'0:09.254',5.04
'0:09.258',4.63
'0:09.262',4
'0:09.266',3.28
'0:09.270',2.66
'0:09.273',2.08
'0:09.277',1.38
'0:09.281',0.83
'0:09.285',0.18
'0:09.289',-0.49
'0:09.293',-0.89
'0:09.297',-0.75
'0:09.301',-0.39
'0:09.305',-0.14
'0:09.309',-0.12
'0:09.313',-0.24
'0:09.316',-0.24
'0:09.320',0.02
'0:09.324',0.32
'0:09.328',0.54
'0:09.332',0.72
'0:09.336',1.1
'0:09.340',1.21
'0:09.344',0.95
'0:09.348',0.78
'0:09.352',0.93
'0:09.355',1.02
'0:09.359',0.85
'0:09.363',0.34
'0:09.367',-0.02
'0:09.371',-0.24
'0:09.375',-0.58
'0:09.379',-1.12
'0:09.383',-1.65
'0:09.387',-2.15
'0:09.391',-2.17
'0:09.395',-2.17
'0:09.398',-2.46
'0:09.402',-2.65
'0:09.406',-2.44
'0:09.410',-2.39
'0:09.414',-2.56
'0:09.418',-2.7
'0:09.422',-2.85
'0:09.426',-2.95
'0:09.430',-2.55
'0:09.434',-1.5
'0:09.438',-0.04
'0:09.441',1.78
'0:09.445',4.04
'0:09.449',6.19
'0:09.453',7.65
'0:09.457',7.82
'0:09.461',4.09
'0:09.465',-2.32
'0:09.469',-7.55
'0:09.473',-10.37
'0:09.477',-11.25
'0:09.480',-10.5
'0:09.484',-8.6
'0:09.488',-6.29
'0:09.492',-3.97
'0:09.496',-2.28
'0:09.500',-1.39
'0:09.504',-1.08
'0:09.508',-0.73
'0:09.512',-0.19
'0:09.516',0.34
'0:09.520',0.76
'0:09.523',0.93
'0:09.527',0.98
'0:09.531',1
'0:09.535',1.1
'0:09.539',1.24
'0:09.543',1.32
'0:09.547',1.3
'0:09.551',1.31
'0:09.555',1.44
'0:09.559',1.51
'0:09.563',1.54
'0:09.566',1.68
'0:09.570',1.77
'0:09.574',1.99
'0:09.578',2.2
'0:09.582',2.15
'0:09.586',2.27
'0:09.590',2.66
'0:09.594',3.02
'0:09.598',3.28
'0:09.602',3.47
'0:09.605',3.79
'0:09.609',4.3
'0:09.613',4.73
'0:09.617',4.89
'0:09.621',4.9
'0:09.625',4.8
'0:09.629',4.63
'0:09.633',4.41
'0:09.637',3.97
'0:09.641',3.31
'0:09.645',2.65
'0:09.648',1.93
'0:09.652',1.32
'0:09.656',0.68
'0:09.660',-0.16
'0:09.664',-0.8
'0:09.668',-1.14
'0:09.672',-1.48
'0:09.676',-1.8
'0:09.680',-1.81
'0:09.684',-1.57
'0:09.688',-1.4
'0:09.691',-1.39
'0:09.695',-1.37
'0:09.699',-1.46
'0:09.703',-1.35
'0:09.707',-1.14
'0:09.711',-1.01
'0:09.715',-0.83
'0:09.719',-0.63
'0:09.723',-0.49
'0:09.727',-0.36
'0:09.730',-0.21
'0:09.734',-0.13
'0:09.738',-0.41
'0:09.742',-0.65
'0:09.746',-0.83
'0:09.750',-1.07
'0:09.754',-1.46
'0:09.758',-1.83
'0:09.762',-2.07
'0:09.766',-2.29
'0:09.770',-2.63
'0:09.773',-3.02
'0:09.777',-3.35
'0:09.781',-3.43
'0:09.785',-3.38
'0:09.789',-3.14
'0:09.793',-2.96
'0:09.797',-3.02
'0:09.801',-3.25
'0:09.805',-3.49
'0:09.809',-3.5
'0:09.813',-3.23
'0:09.816',-2.51
'0:09.820',-1.02
'0:09.824',1.1
'0:09.828',3.68
'0:09.832',6.11
'0:09.836',8.05
'0:09.840',8.5
'0:09.844',4.83
'0:09.848',-1.43
'0:09.852',-6.75
'0:09.855',-10.02
'0:09.859',-11.27
'0:09.863',-10.8
'0:09.867',-9.14
'0:09.871',-7.02
'0:09.875',-5.04
'0:09.879',-3.43
'0:09.883',-2.4
'0:09.887',-1.86
'0:09.891',-1.38
'0:09.895',-0.89
'0:09.898',-0.36
'0:09.902',0.1
'0:09.906',0.46
'0:09.910',0.62
'0:09.914',0.69
'0:09.918',0.71
'0:09.922',0.71
'0:09.926',0.68
'0:09.930',0.71
'0:09.934',0.83
'0:09.938',1.01
'0:09.941',1.19
'0:09.945',1.35
'0:09.949',1.49
'0:09.953',1.66
'0:09.957',1.73
'0:09.961',1.86
'0:09.965',2.13
'0:09.969',2.3
'0:09.973',2.47
'0:09.977',2.72
'0:09.980',3.05
'0:09.984',3.42
'0:09.988',3.87
'0:09.992',4.3
'0:09.996',4.62
'0:10.000',4.78
'0:10.004',4.88
'0:10.008',4.82
'0:10.012',4.7
'0:10.016',4.48
'0:10.020',4.17
'0:10.023',3.71
'0:10.027',3.22
'0:10.031',2.64
'0:10.035',2
'0:10.039',1.45
'0:10.043',0.92
'0:10.047',0.39
'0:10.051',-0.2
'0:10.055',-0.65
'0:10.059',-0.92
'0:10.063',-1.05
'0:10.066',-1.02
'0:10.070',-0.71
'0:10.074',-0.33
'0:10.078',-0.02
'0:10.082',0.06
'0:10.086',-0.02
'0:10.090',0
'0:10.094',0.2
'0:10.098',0.42
'0:10.102',0.59
'0:10.105',0.8
'0:10.109',0.81
'0:10.113',0.68
'0:10.117',0.51
'0:10.121',0.32
'0:10.125',0.13
'0:10.129',-0.12
'0:10.133',-0.36
'0:10.137',-0.66
'0:10.141',-1.05
'0:10.145',-1.48
'0:10.148',-1.86
'0:10.152',-2.17
'0:10.156',-2.36
'0:10.160',-2.43
'0:10.164',-2.66
'0:10.168',-2.89
'0:10.172',-2.9
'0:10.176',-2.75
'0:10.180',-2.51
'0:10.184',-2.27
'0:10.188',-2.24
'0:10.191',-2.48
'0:10.195',-2.57
'0:10.199',-2.01
'0:10.203',-0.69
'0:10.207',1.37
'0:10.211',3.95
'0:10.215',6.48
'0:10.219',8.75
'0:10.223',9.49
'0:10.227',6.33
'0:10.230',0.78
'0:10.234',-4.3
'0:10.238',-7.81
'0:10.242',-9.42
'0:10.246',-9.24
'0:10.250',-7.85
'0:10.254',-6.02
'0:10.258',-4.37
'0:10.262',-2.98
'0:10.266',-2.09
'0:10.270',-1.43
'0:10.273',-0.85
'0:10.277',-0.38
'0:10.281',-0.05
'0:10.285',0.2
'0:10.289',0.35
'0:10.293',0.5
'0:10.297',0.51
'0:10.301',0.69
'0:10.305',0.96
'0:10.309',1.25
'0:10.313',1.42
'0:10.316',1.39
'0:10.320',1.31
'0:10.324',1.34
'0:10.328',1.52
'0:10.332',1.68
'0:10.336',1.73
'0:10.340',1.68
'0:10.344',1.69
'0:10.348',1.81
'0:10.352',1.81
'0:10.355',1.81
'0:10.359',1.81
'0:10.363',3.02
'0:10.367',3.32
'0:10.371',3.75
'0:10.375',4.08
'0:10.379',4.24
'0:10.383',4.34
'0:10.387',4.44
'0:10.391',4.5
'0:10.395',4.44
'0:10.398',4.24
'0:10.402',3.9
'0:10.406',3.54
'0:10.410',3.04
'0:10.414',2.33
'0:10.418',1.67
'0:10.422',0.92
'0:10.426',0.27
'0:10.430',-0.28
'0:10.434',-0.74
'0:10.438',-1.12
'0:10.441',-1.37
'0:10.445',-1.31
'0:10.449',-0.99
'0:10.453',-0.7
'0:10.457',-0.54
'0:10.461',-0.45
'0:10.465',-0.43
'0:10.469',-0.41
'0:10.473',-0.34
'0:10.477',-0.24
'0:10.480',-0.17
'0:10.484',-0.11
'0:10.488',-0.27
'0:10.492',-0.39
'0:10.496',-0.43
'0:10.500',-0.43
'0:10.504',-0.43
'0:10.508',-0.43
'0:10.512',-1.25
'0:10.516',-1.61
'0:10.520',-1.97
'0:10.523',-2.43
'0:10.527',-2.94
'0:10.531',-3.41
'0:10.535',-3.65
'0:10.539',-3.67
'0:10.543',-3.67
'0:10.547',-3.67
'0:10.551',-3.65
'0:10.555',-3.69
'0:10.559',-3.82
'0:10.563',-3.92
'0:10.566',-3.92
'0:10.570',-3.92
'0:10.574',-3.92
'0:10.578',-3.92
'0:10.582',-3.16
'0:10.586',-1.31
'0:10.590',1.03
'0:10.594',3.36
'0:10.598',5.27
'0:10.602',6.33
'0:10.605',4.58
'0:10.609',-0.64
'0:10.613',-6.2
'0:10.617',-10.15
'0:10.621',-12.01
'0:10.625',-11.89
'0:10.629',-10.53
'0:10.633',-8.57
'0:10.637',-6.65
'0:10.641',-4.93
'0:10.645',-3.54
'0:10.648',-2.69
'0:10.652',-2.04
'0:10.656',-1.5
'0:10.660',-1.09
'0:10.664',-0.71
'0:10.668',-0.53
'0:10.672',-0.33
'0:10.676',-0.14
'0:10.680',0.08
'0:10.684',0.34
'0:10.688',0.61
'0:10.691',0.79
'0:10.695',0.63
'0:10.699',0.44
'0:10.703',0.47
'0:10.707',0.77
'0:10.711',1.11
'0:10.715',1.47
'0:10.719',1.76
'0:10.723',1.97
'0:10.727',2.17
'0:10.730',2.17
'0:10.734',2.15
'0:10.738',2.42
'0:10.742',3
'0:10.746',3.61
'0:10.750',4.1
'0:10.754',4.39
'0:10.758',4.61
'0:10.762',4.85
'0:10.766',5.03
'0:10.770',5.12
'0:10.773',4.92
'0:10.777',4.61
'0:10.781',4.35
'0:10.785',3.97
'0:10.789',3.49
'0:10.793',2.83
'0:10.797',2.09
'0:10.801',1.31
'0:10.805',0.61
'0:10.809',0.05
'0:10.813',-0.37
'0:10.816',-0.66
'0:10.820',-0.78
'0:10.824',-0.68
'0:10.828',-0.69
'0:10.832',-0.75
'0:10.836',-0.85
'0:10.840',-0.77
'0:10.844',-0.67
'0:10.848',-0.67
'0:10.852',-0.53
'0:10.855',-0.18
'0:10.859',0.34
'0:10.863',0.82
'0:10.867',1.08
'0:10.871',1.15
'0:10.875',1.19
'0:10.879',0.9
'0:10.883',0.52
'0:10.887',0.27
'0:10.891',0.1
'0:10.895',-0.17
'0:10.898',-0.38
'0:10.902',-0.73
'0:10.906',-1.3
'0:10.910',-1.81
'0:10.914',-2.15
'0:10.918',-2.41
'0:10.922',-2.55
'0:10.926',-2.62
'0:10.930',-2.77
'0:10.934',-2.77
'0:10.938',-2.62
'0:10.941',-2.55
'0:10.945',-2.53
'0:10.949',-2.75
'0:10.953',-2.99
'0:10.957',-2.83
'0:10.961',-2.13
'0:10.965',-0.7
'0:10.969',1.55
'0:10.973',4.2
'0:10.977',6.56
'0:10.980',8.28
'0:10.984',8.07
'0:10.988',3.55
'0:10.992',-2.86
'0:10.996',-7.92
'0:11.000',-10.68
'0:11.004',-11.32
'0:11.008',-10.4
'0:11.012',-8.49
'0:11.016',-6.11
'0:11.020',-3.99
'0:11.023',-2.35
'0:11.027',-1.2
'0:11.031',-0.52
'0:11.035',-0.01
'0:11.039',0.4
'0:11.043',0.85
'0:11.047',1.25
'0:11.051',1.37
'0:11.055',1.39
'0:11.059',1.44
'0:11.063',1.39
'0:11.066',1.39
'0:11.070',1.54
'0:11.074',1.95
'0:11.078',2.2
'0:11.082',2.25
'0:11.086',2.21
'0:11.090',2.37
'0:11.094',2.65
'0:11.098',2.44
'0:11.102',2.31
'0:11.105',2.41
'0:11.109',2.78
'0:11.113',2.96
'0:11.117',3.05
'0:11.121',3.27
'0:11.125',3.69
'0:11.129',4.15
'0:11.133',4.61
'0:11.137',5.01
'0:11.141',5.29
'0:11.145',5.34
'0:11.148',5.36
'0:11.152',5.36
'0:11.156',5.21
'0:11.160',5.07
'0:11.164',4.89
'0:11.168',4.36
'0:11.172',3.6
'0:11.176',2.74
'0:11.180',1.9
'0:11.184',1.24
'0:11.188',0.48
'0:11.191',-0.19
'0:11.195',-0.73
'0:11.199',-1.05
'0:11.203',-1.1
'0:11.207',-0.91
'0:11.211',-0.99
'0:11.215',-1.07
'0:11.219',-0.94
'0:11.223',-0.71
'0:11.227',-0.41
'0:11.230',-0.19
'0:11.234',-0.1
'0:11.238',-0.07
'0:11.242',-0.02
'0:11.246',0.2
'0:11.250',0.49
'0:11.254',0.58
'0:11.258',0.49
'0:11.262',0.57
'0:11.266',0.66
'0:11.270',0.38
'0:11.273',-0.15
'0:11.277',-0.71
'0:11.281',-1.23
'0:11.285',-1.71
'0:11.289',-2.29
'0:11.293',-2.93
'0:11.297',-3.21
'0:11.301',-3.09
'0:11.305',-2.87
'0:11.309',-2.62
'0:11.313',-2.6
'0:11.316',-2.78
'0:11.320',-2.92
'0:11.324',-2.82
'0:11.328',-2.85
'0:11.332',-2.8
'0:11.336',-2.55
'0:11.340',-2.08
'0:11.344',-1.3
'0:11.348',0.13
'0:11.352',2.22
'0:11.355',4.27
'0:11.359',5.92
'0:11.363',6.43
'0:11.367',4.86
'0:11.371',-0.91
'0:11.375',-6.87
'0:11.379',-10.78
'0:11.383',-12.47
'0:11.387',-12.15
'0:11.391',-10.6
'0:11.395',-8.73
'0:11.398',-6.65
'0:11.402',-4.76
'0:11.406',-3.36
'0:11.410',-2.22
'0:11.414',-1.48
'0:11.418',-1.14
'0:11.422',-0.84
'0:11.426',-0.26
'0:11.430',0.25
'0:11.434',0.49
'0:11.438',0.44
'0:11.441',0.44
'0:11.445',0.5
'0:11.449',0.74
'0:11.453',1.13
'0:11.457',1.26
'0:11.461',1.02
'0:11.465',0.88
'0:11.469',1.13
'0:11.473',1.4
'0:11.477',1.3
'0:11.480',1.11
'0:11.484',1.3
'0:11.488',1.69
'0:11.492',2.02
'0:11.496',2.25
'0:11.500',2.51
'0:11.504',2.81
'0:11.508',3.2
'0:11.512',3.59
'0:11.516',4.1
'0:11.520',4.72
'0:11.523',5.25
'0:11.527',5.56
'0:11.531',5.63
'0:11.535',5.48
'0:11.539',5.06
'0:11.543',4.63
'0:11.547',4.24
'0:11.551',3.72
'0:11.555',2.9
'0:11.559',2.17
'0:11.563',1.53
'0:11.566',0.85
'0:11.570',0.22
'0:11.574',-0.33
'0:11.578',-0.78
'0:11.582',-1.1
'0:11.586',-1.36
'0:11.590',-1.47
'0:11.594',-1.43
'0:11.598',-1.25
'0:11.602',-0.89
'0:11.605',-0.48
'0:11.609',-0.27
'0:11.613',-0.14
'0:11.617',0
'0:11.621',0.21
'0:11.625',0.42
'0:11.629',0.47
'0:11.633',0.39
'0:11.637',0.41
'0:11.641',0.61
'0:11.645',0.76
'0:11.648',0.61
'0:11.652',0.17
'0:11.656',-0.14
'0:11.660',-0.43
'0:11.664',-0.78
'0:11.668',-1.2
'0:11.672',-1.7
'0:11.676',-2.02
'0:11.680',-2.19
'0:11.684',-2.31
'0:11.688',-2.43
'0:11.691',-2.73
'0:11.695',-2.96
'0:11.699',-2.94
'0:11.703',-2.77
'0:11.707',-2.68
'0:11.711',-2.75
'0:11.715',-3
'0:11.719',-3.09
'0:11.723',-2.59
'0:11.727',-1.14
'0:11.730',1.19
'0:11.734',3.81
'0:11.738',6.06
'0:11.742',7.79
'0:11.746',8.1
'0:11.750',4.33
'0:11.754',-2.12
'0:11.758',-7.53
'0:11.762',-10.56
'0:11.766',-11.41
'0:11.770',-10.67
'0:11.773',-8.99
'0:11.777',-6.86
'0:11.781',-4.82
'0:11.785',-3.12
'0:11.789',-1.95
'0:11.793',-1.08
'0:11.797',-0.4
'0:11.801',0.03
'0:11.805',0.14
'0:11.809',0.22
'0:11.813',0.22
'0:11.816',1.12
'0:11.820',1.29
'0:11.824',1.33
'0:11.828',1.32
'0:11.832',1.47
'0:11.836',1.56
'0:11.840',1.56
'0:11.844',1.76
'0:11.848',1.89
'0:11.852',2.05
'0:11.855',2.13
'0:11.859',2.09
'0:11.863',2.1
'0:11.867',2.25
'0:11.871',2.34
'0:11.875',2.44
'0:11.879',2.68
'0:11.883',2.98
'0:11.887',3.32
'0:11.891',3.64
'0:11.895',4.08
'0:11.898',4.51
'0:11.902',4.85
'0:11.906',5.09
'0:11.910',5.18
'0:11.914',5.22
'0:11.918',5.14
'0:11.922',4.88
'0:11.926',4.43
'0:11.930',3.79
'0:11.934',3.08
'0:11.938',2.5
'0:11.941',1.91
'0:11.945',1.25
'0:11.949',0.58
'0:11.953',-0.1
'0:11.957',-0.61
'0:11.961',-0.99
'0:11.965',-1.17
'0:11.969',-1.18
'0:11.973',-0.96
'0:11.977',-0.81
'0:11.980',-0.84
'0:11.984',-0.85
'0:11.988',-0.75
'0:11.992',-0.56
'0:11.996',-0.33
'0:12.000',-0.19
'0:12.004',-0.06
'0:12.008',0.13
'0:12.012',0.27
'0:12.016',0.29
'0:12.020',0.05
'0:12.023',-0.21
'0:12.027',-0.43
'0:12.031',-0.56
'0:12.035',-0.78
'0:12.039',-1.2
'0:12.043',-1.59
'0:12.047',-2
'0:12.051',-2.41
'0:12.055',-2.76
'0:12.059',-3.1
'0:12.063',-3.34
'0:12.066',-3.34
'0:12.070',-3.21
'0:12.074',-3.06
'0:12.078',-3.07
'0:12.082',-3.04
'0:12.086',-3.06
'0:12.090',-3.12
'0:12.094',-3.14
'0:12.098',-3.16
'0:12.102',-2.95
'0:12.105',-2.09
'0:12.109',-0.45
'0:12.113',1.75
'0:12.117',4.32
'0:12.121',6.67
'0:12.125',8.38
'0:12.129',7.77
'0:12.133',2.97
'0:12.137',-3.09
'0:12.141',-7.92
'0:12.145',-10.78
'0:12.148',-11.36
'0:12.152',-10.22
'0:12.156',-8.33
'0:12.160',-6.22
'0:12.164',-4.39
'0:12.168',-2.97
'0:12.172',-1.95
'0:12.176',-1.36
'0:12.180',-0.98
'0:12.184',-0.79
'0:12.188',-0.69
'0:12.191',-0.68
'0:12.195',-0.58
'0:12.199',-0.34
'0:12.203',-0.02
'0:12.207',0.28
'0:12.211',0.32
'0:12.215',0.36
'0:12.219',0.49
'0:12.223',0.67
'0:12.227',0.84
'0:12.230',1.13
'0:12.234',1.22
'0:12.238',1.1
'0:12.242',1
'0:12.246',1.05
'0:12.250',1.25
'0:12.254',1.5
'0:12.258',1.79
'0:12.262',2.13
'0:12.266',2.6
'0:12.270',3.06
'0:12.273',3.5
'0:12.277',3.84
'0:12.281',4.22
'0:12.285',4.55
'0:12.289',4.7
'0:12.293',4.7
'0:12.297',4.7
'0:12.301',4.6
'0:12.305',4.39
'0:12.309',4.06
'0:12.313',3.59
'0:12.316',3
'0:12.320',2.29
'0:12.324',1.57
'0:12.328',0.99
'0:12.332',0.43
'0:12.336',-0.14
'0:12.340',-0.53
'0:12.344',-0.6
'0:12.348',-0.48
'0:12.352',-0.36
'0:12.355',-0.46
'0:12.359',-0.56
'0:12.363',-0.54
'0:12.367',-0.41
'0:12.371',-0.15
'0:12.375',0.19
'0:12.379',0.45
'0:12.383',0.64
'0:12.387',0.78
'0:12.391',0.78
'0:12.395',0.71
'0:12.398',0.69
'0:12.402',0.71
'0:12.406',0.69
'0:12.410',0.58
'0:12.414',0.32
'0:12.418',-0.1
'0:12.422',-0.54
'0:12.426',-1.03
'0:12.430',-1.56
'0:12.434',-1.95
'0:12.438',-2.16
'0:12.441',-2.24
'0:12.445',-2.36
'0:12.449',-2.47
'0:12.453',-2.48
'0:12.457',-2.54
'0:12.461',-2.58
'0:12.465',-2.54
'0:12.469',-2.55
'0:12.473',-2.66
'0:12.477',-2.82
'0:12.480',-2.66
'0:12.484',-1.9
'0:12.488',-0.56
'0:12.492',1.43
'0:12.496',3.72
'0:12.500',5.9
'0:12.504',7.67
'0:12.508',7.75
'0:12.512',4.11
'0:12.516',-1.34
'0:12.520',-6.1
'0:12.523',-9.18
'0:12.527',-10.1
'0:12.531',-9.3
'0:12.535',-7.57
'0:12.539',-5.68
'0:12.543',-3.98
'0:12.547',-2.73
'0:12.551',-1.81
'0:12.555',-1.1
'0:12.559',-0.64
'0:12.563',-0.4
'0:12.566',-0.22
'0:12.570',-0.02
'0:12.574',0.15
'0:12.578',0.35
'0:12.582',0.59
'0:12.586',0.78
'0:12.590',0.71
'0:12.594',0.69
'0:12.598',0.72
'0:12.602',0.79
'0:12.605',0.85
'0:12.609',0.86
'0:12.613',0.85
'0:12.617',0.98
'0:12.621',1.27
'0:12.625',1.47
'0:12.629',1.44
'0:12.633',1.59
'0:12.637',1.86
'0:12.641',2.08
'0:12.645',2.31
'0:12.648',2.69
'0:12.652',2.98
'0:12.656',3.2
'0:12.660',3.4
'0:12.664',3.69
'0:12.668',4.01
'0:12.672',4.17
'0:12.676',4.12
'0:12.680',4.06
'0:12.684',3.95
'0:12.688',3.75
'0:12.691',3.15
'0:12.695',2.53
'0:12.699',2.01
'0:12.703',1.35
'0:12.707',0.56
'0:12.711',-0.21
'0:12.715',-0.79
'0:12.719',-1.17
'0:12.723',-1.5
'0:12.727',-1.69
'0:12.730',-1.62
'0:12.734',-1.45
'0:12.738',-1.33
'0:12.742',-1.29
'0:12.746',-1.22
'0:12.750',-1.06
'0:12.754',-0.89
'0:12.758',-0.54
'0:12.762',-0.29
'0:12.766',-0.22
'0:12.770',-0.21
'0:12.773',-0.15
'0:12.777',-0.01
'0:12.781',0.11
'0:12.785',0.07
'0:12.789',-0.18
'0:12.793',-0.43
'0:12.797',-0.8
'0:12.801',-1.25
'0:12.805',-1.58
'0:12.809',-1.58
'0:12.813',-2.68
'0:12.816',-2.91
'0:12.820',-3.17
'0:12.824',-3.36
'0:12.828',-3.37
'0:12.832',-3.36
'0:12.836',-3.36
'0:12.840',-3.24
'0:12.844',-3.09
'0:12.848',-2.95
'0:12.852',-3.11
'0:12.855',-3.36
'0:12.859',-3.32
'0:12.863',-3.17
'0:12.867',-3.17
'0:12.871',0.87
'0:12.875',4.12
'0:12.879',6.37
'0:12.883',8.02
'0:12.887',7.12
'0:12.891',1.77
'0:12.895',-4.52
'0:12.898',-9.18
'0:12.902',-11.55
'0:12.906',-11.69
'0:12.910',-10.3
'0:12.914',-8.27
'0:12.918',-6.26
'0:12.922',-4.63
'0:12.926',-3.18
'0:12.930',-2.11
'0:12.934',-1.19
'0:12.938',-0.54
'0:12.941',0.05
'0:12.945',0.36
'0:12.949',0.47
'0:12.953',0.78
'0:12.957',0.93
'0:12.961',0.93
'0:12.965',0.97
'0:12.969',1.11
'0:12.973',1.29
'0:12.977',1.29
'0:12.980',1.4
'0:12.984',1.6
'0:12.988',1.89
'0:12.992',2.2
'0:12.996',2.38
'0:13.000',2.33
'0:13.004',2.23
'0:13.008',2.33
'0:13.012',2.56
'0:13.016',2.93
'0:13.020',3.29
'0:13.023',3.49
'0:13.027',3.83
'0:13.031',4.28
'0:13.035',4.62
'0:13.039',5.16
'0:13.043',5.64
'0:13.047',5.9
'0:13.051',5.67
'0:13.055',5.43
'0:13.059',5.42
'0:13.063',5.18
'0:13.066',4.61
'0:13.070',4.04
'0:13.074',3.61
'0:13.078',3.01
'0:13.082',2.54
'0:13.086',1.95
'0:13.090',1.07
'0:13.094',0.25
'0:13.098',-0.01
'0:13.102',-0.08
'0:13.105',-0.09
'0:13.109',-0.06
'0:13.113',0.04
'0:13.117',0.15
'0:13.121',0.25
'0:13.125',0.4
'0:13.129',0.79
'0:13.133',0.95
'0:13.137',0.98
'0:13.141',1.02
'0:13.145',1.26
'0:13.148',1.54
'0:13.152',1.57
'0:13.156',1.54
'0:13.160',1.46
'0:13.164',1.3
'0:13.168',0.89
'0:13.172',0.4
'0:13.176',-0.03
'0:13.180',-0.39
'0:13.184',-0.71
'0:13.188',-1.27
'0:13.191',-1.91
'0:13.195',-2.26
'0:13.199',-2.3
'0:13.203',-2.16
'0:13.207',-2.1
'0:13.211',-2.48
'0:13.215',-2.82
'0:13.219',-2.7
'0:13.223',-2.48
'0:13.227',-2.54
'0:13.230',-2.78
'0:13.234',-2.84
'0:13.238',-2.4
'0:13.242',-1.19
'0:13.246',0.73
'0:13.250',2.96
'0:13.254',5
'0:13.258',6.58
'0:13.262',7.3
'0:13.266',5.12
'0:13.270',-0.74
'0:13.273',-6.34
'0:13.277',-9.96
'0:13.281',-11.49
'0:13.285',-11.13
'0:13.289',-9.66
'0:13.293',-7.78
'0:13.297',-5.85
'0:13.301',-3.91
'0:13.305',-2.23
'0:13.309',-1.12
'0:13.313',-0.58
'0:13.316',-0.25
'0:13.320',-0.02
'0:13.324',0.1
'0:13.328',0.18
'0:13.332',0.4
'0:13.336',0.75
'0:13.340',0.99
'0:13.344',1.08
'0:13.348',1.15
'0:13.352',1.17
'0:13.355',1.33
'0:13.359',1.55
'0:13.363',1.67
'0:13.367',1.62
'0:13.371',1.61
'0:13.375',1.67
'0:13.379',1.77
'0:13.383',1.93
'0:13.387',2.18
'0:13.391',2.44
'0:13.395',2.74
'0:13.398',2.9
'0:13.402',3.13
'0:13.406',3.48
'0:13.410',3.78
'0:13.414',3.96
'0:13.418',4.16
'0:13.422',4.48
'0:13.426',4.82
'0:13.430',4.99
'0:13.434',4.95
'0:13.438',4.65
'0:13.441',4.22
'0:13.445',3.7
'0:13.449',3.11
'0:13.453',2.42
'0:13.457',1.64
'0:13.461',0.89
'0:13.465',0.21
'0:13.469',-0.34
'0:13.473',-0.74
'0:13.477',-1.06
'0:13.480',-1.25
'0:13.484',-1.34
'0:13.488',-1.4
'0:13.492',-1.33
'0:13.496',-1.21
'0:13.500',-0.98
'0:13.504',-0.86
'0:13.508',-0.72
'0:13.512',-0.61
'0:13.516',-0.5
'0:13.520',-0.25
'0:13.523',0
'0:13.527',-0.03
'0:13.531',-0.03
'0:13.535',-0.03
'0:13.539',-0.19
'0:13.543',-0.44
'0:13.547',-0.63
'0:13.551',-0.93
'0:13.555',-1.36
'0:13.559',-1.75
'0:13.563',-2.14
'0:13.566',-2.69
'0:13.570',-3.27
'0:13.574',-3.58
'0:13.578',-3.53
'0:13.582',-3.52
'0:13.586',-3.6
'0:13.590',-3.6
'0:13.594',-3.47
'0:13.598',-3.33
'0:13.602',-3.35
'0:13.605',-3.43
'0:13.609',-3.7
'0:13.613',-3.89
'0:13.617',-3.57
'0:13.621',-2.54
'0:13.625',-0.83
'0:13.629',1.61
'0:13.633',4.35
'0:13.637',6.77
'0:13.641',8.26
'0:13.645',6.72
'0:13.648',1.07
'0:13.652',-5.07
'0:13.656',-9.42
'0:13.660',-11.59
'0:13.664',-11.59
'0:13.668',-10.19
'0:13.672',-8.25
'0:13.676',-6.56
'0:13.680',-5.16
'0:13.684',-3.81
'0:13.688',-2.79
'0:13.691',-1.92
'0:13.695',-1.25
'0:13.699',-0.8
'0:13.703',-0.53
'0:13.707',-0.37
'0:13.711',-0.27
'0:13.715',-0.24
'0:13.719',-0.23
'0:13.723',-0.06
'0:13.727',0.22
'0:13.730',0.52
'0:13.734',0.68
'0:13.738',0.73
'0:13.742',0.76
'0:13.746',0.8
'0:13.750',1.01
'0:13.754',1.17
'0:13.758',1.35
'0:13.762',1.46
'0:13.766',1.47
'0:13.770',1.71
'0:13.773',2.07
'0:13.777',2.33
'0:13.781',2.67
'0:13.785',2.98
'0:13.789',3.26
'0:13.793',3.64
'0:13.797',3.91
'0:13.801',4.1
'0:13.805',4.37
'0:13.809',4.69
'0:13.813',4.75
'0:13.816',4.61
'0:13.820',4.36
'0:13.824',3.91
'0:13.828',3.53
'0:13.832',3.01
'0:13.836',2.2
'0:13.840',1.42
'0:13.844',0.83
'0:13.848',0.47
'0:13.852',0.22
'0:13.855',0
'0:13.859',-0.17
'0:13.863',-0.31
'0:13.867',-0.4
'0:13.871',-0.44
'0:13.875',-0.44
'0:13.879',-0.3
'0:13.883',-0.19
'0:13.887',-0.11
'0:13.891',0.01
'0:13.895',0.29
'0:13.898',0.58
'0:13.902',0.76
'0:13.906',0.78
'0:13.910',0.7
'0:13.914',0.55
'0:13.918',0.44
'0:13.922',0.24
'0:13.926',-0.11
'0:13.930',-0.39
'0:13.934',-0.49
'0:13.938',-0.61
'0:13.941',-0.96
'0:13.945',-1.52
'0:13.949',-2.08
'0:13.953',-2.39
'0:13.957',-2.5
'0:13.961',-2.51
'0:13.965',-2.58
'0:13.969',-2.65
'0:13.973',-2.4
'0:13.977',-2.05
'0:13.980',-1.8
'0:13.984',-1.81
'0:13.988',-2.08
'0:13.992',-2.41
'0:13.996',-2.44
'0:14.000',-1.61
'0:14.004',0.02
'0:14.008',2.35
'0:14.012',4.85
'0:14.016',6.93
'0:14.020',8.38
'0:14.023',7.6
'0:14.027',3.15
'0:14.031',-2.35
'0:14.035',-6.68
'0:14.039',-9.24
'0:14.043',-9.77
'0:14.047',-8.76
'0:14.051',-7.1
'0:14.055',-5.36
'0:14.059',-3.8
'0:14.063',-2.4
'0:14.066',-1.53
'0:14.070',-1
'0:14.074',-0.55
'0:14.078',-0.3
'0:14.082',-0.13
'0:14.086',0.16
'0:14.090',0.6
'0:14.094',0.89
'0:14.098',1.02
'0:14.102',1.05
'0:14.105',1.03
'0:14.109',1.03
'0:14.113',1.23
'0:14.117',1.42
'0:14.121',1.51
'0:14.125',1.52
'0:14.129',1.51
'0:14.133',1.61
'0:14.137',1.63
'0:14.141',1.66
'0:14.145',1.75
'0:14.148',1.84
'0:14.152',1.95
'0:14.156',2.08
'0:14.160',2.35
'0:14.164',2.64
'0:14.168',2.87
'0:14.172',3.2
'0:14.176',3.46
'0:14.180',3.76
'0:14.184',4.04
'0:14.188',4.07
'0:14.191',3.99
'0:14.195',3.84
'0:14.199',3.73
'0:14.203',3.54
'0:14.207',3.16
'0:14.211',2.56
'0:14.215',1.78
'0:14.219',0.94
'0:14.223',0.2
'0:14.227',-0.27
'0:14.230',-0.69
'0:14.234',-0.97
'0:14.238',-1.2
'0:14.242',-1.39
'0:14.246',-1.52
'0:14.250',-1.48
'0:14.254',-1.28
'0:14.258',-1.03
'0:14.262',-0.87
'0:14.266',-0.69
'0:14.270',-0.63
'0:14.273',-0.62
'0:14.277',-0.52
'0:14.281',-0.43
'0:14.285',-0.33
'0:14.289',-0.13
'0:14.293',-0.2
'0:14.297',-0.32
'0:14.301',-0.45
'0:14.305',-0.64
'0:14.309',-0.76
'0:14.313',-0.95
'0:14.316',-1.26
'0:14.320',-1.71
'0:14.324',-2.51
'0:14.328',-3.28
'0:14.332',-3.76
'0:14.336',-3.87
'0:14.340',-3.84
'0:14.344',-3.96
'0:14.348',-4.01
'0:14.352',-3.97
'0:14.355',-3.86
'0:14.359',-3.78
'0:14.363',-3.82
'0:14.367',-4
'0:14.371',-4.14
'0:14.375',-3.9
'0:14.379',-2.99
'0:14.383',-1.39
'0:14.387',0.8
'0:14.391',3.33
'0:14.395',5.7
'0:14.398',7.32
'0:14.402',6.18
'0:14.406',1.16
'0:14.410',-4.62
'0:14.414',-9.01
'0:14.418',-11.49
'0:14.422',-11.99
'0:14.426',-10.94
'0:14.430',-8.95
'0:14.434',-6.68
'0:14.438',-4.72
'0:14.441',-3.37
'0:14.445',-2.53
'0:14.449',-1.79
'0:14.453',-1.05
'0:14.457',-0.47
'0:14.461',-0.14
'0:14.465',0.03
'0:14.469',0.01
'0:14.473',0.04
'0:14.477',0.13
'0:14.480',0.18
'0:14.484',0.21
'0:14.488',0.3
'0:14.492',0.51
'0:14.496',0.89
'0:14.500',1.07
'0:14.504',0.97
'0:14.508',0.78
'0:14.512',0.92
'0:14.516',1.26
'0:14.520',1.57
'0:14.523',1.81
'0:14.527',2.11
'0:14.531',2.5
'0:14.535',2.9
'0:14.539',3.07
'0:14.543',3.25
'0:14.547',3.57
'0:14.551',3.96
'0:14.555',4.18
'0:14.559',4.39
'0:14.563',4.61
'0:14.566',4.84
'0:14.570',4.93
'0:14.574',4.74
'0:14.578',4.27
'0:14.582',3.64
'0:14.586',3.16
'0:14.590',2.66
'0:14.594',2.12
'0:14.598',1.6
'0:14.602',1.13
'0:14.605',0.61
'0:14.609',0.01
'0:14.613',-0.42
'0:14.617',-0.51
'0:14.621',-0.56
'0:14.625',-0.69
'0:14.629',-0.68
'0:14.633',-0.48
'0:14.637',-0.34
'0:14.641',-0.23
'0:14.645',-0.11
'0:14.648',0.25
'0:14.652',0.7
'0:14.656',0.95
'0:14.660',0.9
'0:14.664',0.78
'0:14.668',0.91
'0:14.672',1.16
'0:14.676',1.16
'0:14.680',0.95
'0:14.684',0.76
'0:14.688',0.5
'0:14.691',0.03
'0:14.695',-0.31
'0:14.699',-0.88
'0:14.703',-1.55
'0:14.707',-1.95
'0:14.711',-2.09
'0:14.715',-2.17
'0:14.719',-2.36
'0:14.723',-2.28
'0:14.727',-2.14
'0:14.730',-2.14
'0:14.734',-2.31
'0:14.738',-2.53
'0:14.742',-2.46
'0:14.746',-2.72
'0:14.750',-2.97
'0:14.754',-2.48
'0:14.758',-0.94
'0:14.762',1.15
'0:14.766',3.61
'0:14.770',5.88
'0:14.773',7.3
'0:14.777',7.37
'0:14.781',3.85
'0:14.785',-2.03
'0:14.789',-7.03
'0:14.793',-10.26
'0:14.797',-11.45
'0:14.801',-10.85
'0:14.805',-9.12
'0:14.809',-6.89
'0:14.813',-4.84
'0:14.816',-3.23
'0:14.820',-2.07
'0:14.824',-1.12
'0:14.828',-0.41
'0:14.832',0
'0:14.836',0.36
'0:14.840',0.67
'0:14.844',0.78
'0:14.848',0.78
'0:14.852',0.84
'0:14.855',0.94
'0:14.859',1.01
'0:14.863',1.26
'0:14.867',1.54
'0:14.871',1.84
'0:14.875',1.94
'0:14.879',1.77
'0:14.883',1.64
'0:14.887',1.73
'0:14.891',1.97
'0:14.895',2.21
'0:14.898',2.36
'0:14.902',2.55
'0:14.906',2.8
'0:14.910',3.08
'0:14.914',3.36
'0:14.918',3.58
'0:14.922',3.83
'0:14.926',4.16
'0:14.930',4.54
'0:14.934',4.84
'0:14.938',4.9
'0:14.941',4.89
'0:14.945',4.83
'0:14.949',4.73
'0:14.953',4.57
'0:14.957',4.17
'0:14.961',3.68
'0:14.965',3.15
'0:14.969',2.46
'0:14.973',1.65
'0:14.977',0.85
'0:14.980',0.2
'0:14.984',-0.33
'0:14.988',-0.74
'0:14.992',-0.89
'0:14.996',-0.93
'0:15.000',-0.97
'0:15.004',-0.91
'0:15.008',-0.84
'0:15.012',-0.87
'0:15.016',-0.82
'0:15.020',-0.73
'0:15.023',-0.61
'0:15.027',-0.46
'0:15.031',-0.4
'0:15.035',-0.33
'0:15.039',-0.11
'0:15.043',0.09
'0:15.047',0.23
'0:15.051',0.36
'0:15.055',0.11
'0:15.059',-0.37
'0:15.063',-0.98
'0:15.066',-1.35
'0:15.070',-1.54
'0:15.074',-1.76
'0:15.078',-2.22
'0:15.082',-2.8
'0:15.086',-3.25
'0:15.090',-3.54
'0:15.094',-3.62
'0:15.098',-3.68
'0:15.102',-3.64
'0:15.105',-3.61
'0:15.109',-3.7
'0:15.113',-3.68
'0:15.117',-3.51
'0:15.121',-3.33
'0:15.125',-3.49
'0:15.129',-3.53
'0:15.133',-2.78
'0:15.137',-1.04
'0:15.141',1.39
'0:15.145',4.04
'0:15.148',6.3
'0:15.152',7.94
'0:15.156',7.2
'0:15.160',2.05
'0:15.164',-4.25
'0:15.168',-8.92
'0:15.172',-11.56
'0:15.176',-12.12
'0:15.180',-10.95
'0:15.184',-8.98
'0:15.188',-6.89
'0:15.191',-4.94
'0:15.195',-3.31
'0:15.199',-2.11
'0:15.203',-1.47
'0:15.207',-1.15
'0:15.211',-0.85
'0:15.215',-0.53
'0:15.219',-0.21
'0:15.223',0.01
'0:15.227',0.15
'0:15.230',0.13
'0:15.234',0.16
'0:15.238',0.33
'0:15.242',0.53
'0:15.246',0.72
'0:15.250',1.08
'0:15.254',1.38
'0:15.258',1.57
'0:15.262',1.76
'0:15.266',1.87
'0:15.270',2
'0:15.273',2.12
'0:15.277',2.22
'0:15.281',2.38
'0:15.285',2.58
'0:15.289',2.83
'0:15.293',3.16
'0:15.297',3.53
'0:15.301',3.84
'0:15.305',4.08
'0:15.309',4.3
'0:15.313',4.37
'0:15.316',4.48
'0:15.320',4.76
'0:15.324',5.01
'0:15.328',5.1
'0:15.332',5.02
'0:15.336',4.76
'0:15.340',4.05
'0:15.344',3.14
'0:15.348',2.39
'0:15.352',1.88
'0:15.355',1.53
'0:15.359',1.19
'0:15.363',0.65
'0:15.367',0.31
'0:15.371',0.25
'0:15.375',0.29
'0:15.379',0.33
'0:15.383',0.12
'0:15.387',0.09
'0:15.391',0.28
'0:15.395',0.5
'0:15.398',0.59
'0:15.402',0.72
'0:15.406',0.85
'0:15.410',0.88
'0:15.414',1.16
'0:15.418',1.47
'0:15.422',1.58
'0:15.426',1.74
'0:15.430',1.91
'0:15.434',1.91
'0:15.438',1.66
'0:15.441',1.26
'0:15.445',0.79
'0:15.449',0.32
'0:15.453',-0.09
'0:15.457',-0.48
'0:15.461',-0.94
'0:15.465',-1.38
'0:15.469',-1.8
'0:15.473',-1.93
'0:15.477',-1.84
'0:15.480',-1.8
'0:15.484',-1.72
'0:15.488',-1.66
'0:15.492',-1.72
'0:15.496',-1.82
'0:15.500',-2.02
'0:15.504',-2.27
'0:15.508',-2.02
'0:15.512',-0.94
'0:15.516',0.94
'0:15.520',3.26
'0:15.523',5.74
'0:15.527',8.11
'0:15.531',9.57
'0:15.535',8.16
'0:15.539',3.23
'0:15.543',-2.13
'0:15.547',-6.14
'0:15.551',-8.36
'0:15.555',-8.61
'0:15.559',-7.56
'0:15.563',-6.05
'0:15.566',-4.52
'0:15.570',-3.05
'0:15.574',-1.94
'0:15.578',-1.15
'0:15.582',-0.56
'0:15.586',-0.18
'0:15.590',0.1
'0:15.594',0.36
'0:15.598',0.52
'0:15.602',0.83
'0:15.605',0.96
'0:15.609',0.95
'0:15.613',1.06
'0:15.617',1.12
'0:15.621',1.17
'0:15.625',1.3
'0:15.629',1.5
'0:15.633',1.63
'0:15.637',1.66
'0:15.641',1.68
'0:15.645',1.86
'0:15.648',2.06
'0:15.652',2.26
'0:15.656',2.44
'0:15.660',2.61
'0:15.664',2.75
'0:15.668',2.89
'0:15.672',3.1
'0:15.676',3.39
'0:15.680',3.68
'0:15.684',3.96
'0:15.688',4.16
'0:15.691',4.35
'0:15.695',4.48
'0:15.699',4.61
'0:15.703',4.54
'0:15.707',4.3
'0:15.711',3.98
'0:15.715',3.41
'0:15.719',2.75
'0:15.723',2.12
'0:15.727',1.38
'0:15.730',0.6
'0:15.734',-0.05
'0:15.738',-0.5
'0:15.742',-0.94
'0:15.746',-1.2
'0:15.750',-1.33
'0:15.754',-1.46
'0:15.758',-1.36
'0:15.762',-1.11
'0:15.766',-0.97
'0:15.770',-0.92
'0:15.773',-0.95
'0:15.777',-0.84
'0:15.781',-0.57
'0:15.785',-0.39
'0:15.789',-0.33
'0:15.793',-0.48
'0:15.797',-0.51
'0:15.801',-0.48
'0:15.805',-0.56
'0:15.809',-0.89
'0:15.813',-1.22
'0:15.816',-1.5
'0:15.820',-1.76
'0:15.824',-2.06
'0:15.828',-2.43
'0:15.832',-2.84
'0:15.836',-3.22
'0:15.840',-3.38
'0:15.844',-3.46
'0:15.848',-3.51
'0:15.852',-3.5
'0:15.855',-3.59
'0:15.859',-3.63
'0:15.863',-3.64
'0:15.867',-3.67
'0:15.871',-3.7
'0:15.875',-3.91
'0:15.879',-4.09
'0:15.883',-3.81
'0:15.887',-2.87
'0:15.891',-1.15
'0:15.895',1.31
'0:15.898',3.9
'0:15.902',6.16
'0:15.906',7.48
'0:15.910',5.44
'0:15.914',-0.31
'0:15.918',-6.07
'0:15.922',-9.93
'0:15.926',-11.78
'0:15.930',-11.76
'0:15.934',-10.34
'0:15.938',-8.35
'0:15.941',-6.43
'0:15.945',-4.77
'0:15.949',-3.37
'0:15.953',-2.32
'0:15.957',-2.26
'0:15.961',-1.33
'0:15.965',-1.08
'0:15.969',-0.81
'0:15.973',-0.58
'0:15.977',-0.24
'0:15.980',0.02
'0:15.984',0.13
'0:15.988',0.27
'0:15.992',0.4
'0:15.996',0.4
'0:16.000',0.47
'0:16.004',0.66
'0:16.008',0.85
'0:16.012',0.85
'0:16.016',0.83
'0:16.020',0.9
'0:16.023',1.05
'0:16.027',1.1
'0:16.031',1.16
'0:16.035',1.53
'0:16.039',2.06
'0:16.043',2.48
'0:16.047',2.93
'0:16.051',3.31
'0:16.055',3.86
'0:16.059',4.36
'0:16.063',4.62
'0:16.066',4.73
'0:16.070',4.77
'0:16.074',4.83
'0:16.078',4.72
'0:16.082',4.55
'0:16.086',4.34
'0:16.090',3.9
'0:16.094',3.27
'0:16.098',2.45
'0:16.102',1.64
'0:16.105',1.09
'0:16.109',0.49
'0:16.113',-0.12
'0:16.117',-0.67
'0:16.121',-1.02
'0:16.125',-1.18
'0:16.129',-1.16
'0:16.133',-1.06
'0:16.137',-0.79
'0:16.141',-0.62
'0:16.145',-0.53
'0:16.148',-0.49
'0:16.152',-0.43
'0:16.156',-0.31
'0:16.160',-0.07
'0:16.164',0.35
'0:16.168',0.75
'0:16.172',0.83
'0:16.176',0.93
'0:16.180',0.84
'0:16.184',0.54
'0:16.188',0.29
'0:16.191',0.2
'0:16.195',0.27
'0:16.199',0.2
'0:16.203',-0.42
'0:16.207',-1.21
'0:16.211',-1.75
'0:16.215',-2.01
'0:16.219',-2.13
'0:16.223',-2.34
'0:16.227',-2.7
'0:16.230',-2.97
'0:16.234',-3.01
'0:16.238',-2.82
'0:16.242',-2.64
'0:16.246',-2.55
'0:16.250',-2.7
'0:16.254',-3.07
'0:16.258',-3.22
'0:16.262',-2.43
'0:16.266',-0.71
'0:16.270',1.69
'0:16.273',4.16
'0:16.277',6.11
'0:16.281',7.45
'0:16.285',6.96
'0:16.289',2.35
'0:16.293',-3.91
'0:16.297',-8.68
'0:16.301',-11.2
'0:16.305',-11.59
'0:16.309',-10.44
'0:16.313',-8.56
'0:16.316',-6.47
'0:16.320',-4.69
'0:16.324',-3.01
'0:16.328',-1.57
'0:16.332',-0.68
'0:16.336',-0.22
'0:16.340',0.09
'0:16.344',0.36
'0:16.348',0.57
'0:16.352',0.81
'0:16.355',1.01
'0:16.359',1.04
'0:16.363',0.86
'0:16.367',0.92
'0:16.371',1.13
'0:16.375',1.3
'0:16.379',1.46
'0:16.383',1.65
'0:16.387',1.89
'0:16.391',1.98
'0:16.395',1.79
'0:16.398',1.71
'0:16.402',1.89
'0:16.406',2.29
'0:16.410',2.73
'0:16.414',3.12
'0:16.418',3.52
'0:16.422',3.72
'0:16.426',3.79
'0:16.430',4.11
'0:16.434',4.6
'0:16.438',5.15
'0:16.441',5.48
'0:16.445',5.53
'0:16.449',5.49
'0:16.453',5.45
'0:16.457',5.28
'0:16.461',4.95
'0:16.465',4.47
'0:16.469',3.88
'0:16.473',3.18
'0:16.477',2.42
'0:16.480',1.65
'0:16.484',0.95
'0:16.488',0.32
'0:16.492',-0.16
'0:16.496',-0.52
'0:16.500',-0.74
'0:16.504',-0.73
'0:16.508',-0.66
'0:16.512',-0.53
'0:16.516',-0.56
'0:16.520',-0.54
'0:16.523',-0.26
'0:16.527',0.06
'0:16.531',0.21
'0:16.535',0.31
'0:16.539',0.43
'0:16.543',0.57
'0:16.547',0.64
'0:16.551',0.72
'0:16.555',0.81
'0:16.559',0.72
'0:16.563',0.56
'0:16.566',0.34
'0:16.570',0.11
'0:16.574',-0.21
'0:16.578',-0.63
'0:16.582',-1.06
'0:16.586',-1.64
'0:16.590',-2.2
'0:16.594',-2.65
'0:16.598',-2.95
'0:16.602',-3.07
'0:16.605',-2.89
'0:16.609',-2.67
'0:16.613',-2.65
'0:16.617',-2.84
'0:16.621',-3.02
'0:16.625',-3.09
'0:16.629',-3.26
'0:16.633',-3.5
'0:16.637',-3.36
'0:16.641',-2.58
'0:16.645',-1.03
'0:16.648',1.26
'0:16.652',3.88
'0:16.656',6.28
'0:16.660',8.2
'0:16.664',8.25
'0:16.668',3.92
'0:16.672',-2.58
'0:16.676',-7.87
'0:16.680',-10.97
'0:16.684',-11.8
'0:16.688',-10.87
'0:16.691',-8.98
'0:16.695',-6.87
'0:16.699',-5.1
'0:16.703',-3.66
'0:16.707',-2.47
'0:16.711',-1.62
'0:16.715',-1.16
'0:16.719',-0.96
'0:16.723',-0.81
'0:16.727',-0.57
'0:16.730',-0.41
'0:16.734',-0.2
'0:16.738',0.15
'0:16.742',0.37
'0:16.746',0.39
'0:16.750',0.52
'0:16.754',0.79
'0:16.758',1.02
'0:16.762',1.11
'0:16.766',1.18
'0:16.770',1.06
'0:16.773',1.06
'0:16.777',1.27
'0:16.781',1.56
'0:16.785',1.88
'0:16.789',2.09
'0:16.793',2.17
'0:16.797',2.31
'0:16.801',2.61
'0:16.805',2.97
'0:16.809',3.26
'0:16.813',3.59
'0:16.816',4.04
'0:16.820',4.51
'0:16.824',4.86
'0:16.828',4.89
'0:16.832',4.52
'0:16.836',4.18
'0:16.840',4.17
'0:16.844',4.14
'0:16.848',3.79
'0:16.852',3.17
'0:16.855',2.45
'0:16.859',1.66
'0:16.863',0.99
'0:16.867',0.45
'0:16.871',-0.06
'0:16.875',-0.35
'0:16.879',-0.35
'0:16.883',-0.24
'0:16.887',-0.24
'0:16.891',-0.18
'0:16.895',0
'0:16.898',0.06
'0:16.902',-0.05
'0:16.906',-0.09
'0:16.910',0.13
'0:16.914',0.45
'0:16.918',0.76
'0:16.922',0.97
'0:16.926',1.05
'0:16.930',0.99
'0:16.934',0.89
'0:16.938',0.93
'0:16.941',0.89
'0:16.945',0.7
'0:16.949',0.44
'0:16.953',-0.02
'0:16.957',-0.38
'0:16.961',-0.86
'0:16.965',-1.31
'0:16.969',-1.75
'0:16.973',-2.17
'0:16.977',-2.34
'0:16.980',-2.32
'0:16.984',-2.22
'0:16.988',-2.24
'0:16.992',-2.23
'0:16.996',-2.17
'0:17.000',-2.25
'0:17.004',-2.49
'0:17.008',-2.86
'0:17.012',-2.94
'0:17.016',-2.5
'0:17.020',-1.51
'0:17.023',-0.05
'0:17.027',2.03
'0:17.031',4.36
'0:17.035',6.8
'0:17.039',8.59
'0:17.043',7.86
'0:17.047',3.27
'0:17.051',-2.19
'0:17.055',-6.45
'0:17.059',-8.98
'0:17.063',-9.72
'0:17.066',-9.04
'0:17.070',-7.43
'0:17.074',-5.49
'0:17.078',-3.77
'0:17.082',-2.51
'0:17.086',-1.59
'0:17.090',-1.04
'0:17.094',-0.7
'0:17.098',-0.34
'0:17.102',0.03
'0:17.105',0.29
'0:17.109',0.34
'0:17.113',0.27
'0:17.117',0.25
'0:17.121',0.31
'0:17.125',0.45
'0:17.129',0.6
'0:17.133',0.82
'0:17.137',0.93
'0:17.141',0.99
'0:17.145',1.03
'0:17.148',1.14
'0:17.152',1.43
'0:17.156',1.72
'0:17.160',1.92
'0:17.164',2.08
'0:17.168',2.19
'0:17.172',2.31
'0:17.176',2.49
'0:17.180',2.72
'0:17.184',3.03
'0:17.188',3.44
'0:17.191',3.8
'0:17.195',4.1
'0:17.199',4.28
'0:17.203',4.39
'0:17.207',4.41
'0:17.211',4.37
'0:17.215',4.23
'0:17.219',4.08
'0:17.223',3.74
'0:17.227',3.13
'0:17.230',2.57
'0:17.234',2.06
'0:17.238',1.43
'0:17.242',0.69
'0:17.246',0.04
'0:17.250',-0.41
'0:17.254',-0.67
'0:17.258',-0.87
'0:17.262',-0.9
'0:17.266',-0.85
'0:17.270',-0.82
'0:17.273',-0.87
'0:17.277',-0.92
'0:17.281',-0.89
'0:17.285',-0.78
'0:17.289',-0.64
'0:17.293',-0.43
'0:17.297',-0.25
'0:17.301',-0.12
'0:17.305',-0.15
'0:17.309',-0.18
'0:17.313',-0.02
'0:17.316',-0.1
'0:17.320',-0.35
'0:17.324',-0.48
'0:17.328',-0.64
'0:17.332',-0.95
'0:17.336',-1.42
'0:17.340',-2.06
'0:17.344',-2.69
'0:17.348',-3.12
'0:17.352',-3.41
'0:17.355',-3.78
'0:17.359',-4.01
'0:17.363',-3.9
'0:17.367',-3.78
'0:17.371',-3.64
'0:17.375',-3.58
'0:17.379',-3.78
'0:17.383',-3.98
'0:17.387',-4.2
'0:17.391',-4.31
'0:17.395',-3.82
'0:17.398',-2.69
'0:17.402',-0.9
'0:17.406',1.51
'0:17.410',3.96
'0:17.414',6.18
'0:17.418',7.33
'0:17.422',5.19
'0:17.426',-0.54
'0:17.430',-6.29
'0:17.434',-10.16
'0:17.438',-12.1
'0:17.441',-11.99
'0:17.445',-10.5
'0:17.449',-8.38
'0:17.453',-6.18
'0:17.457',-4.26
'0:17.461',-2.89
'0:17.465',-2.08
'0:17.469',-1.53
'0:17.473',-1.04
'0:17.477',-0.68
'0:17.480',-0.46
'0:17.484',-0.37
'0:17.488',-0.2
'0:17.492',-0.12
'0:17.496',-0.09
'0:17.500',0.04
'0:17.504',0.26
'0:17.508',0.54
'0:17.512',0.71
'0:17.516',0.69
'0:17.520',0.61
'0:17.523',0.67
'0:17.527',0.82
'0:17.531',1.02
'0:17.535',1
'0:17.539',0.99
'0:17.543',1.16
'0:17.547',1.49
'0:17.551',1.91
'0:17.555',2.3
'0:17.559',2.69
'0:17.563',3.15
'0:17.566',3.67
'0:17.570',4.19
'0:17.574',4.55
'0:17.578',4.77
'0:17.582',4.73
'0:17.586',4.6
'0:17.590',4.33
'0:17.594',3.99
'0:17.598',3.6
'0:17.602',3.24
'0:17.605',2.83
'0:17.609',2.38
'0:17.613',1.61
'0:17.617',0.66
'0:17.621',-0.03
'0:17.625',-0.62
'0:17.629',-1.05
'0:17.633',-1.25
'0:17.637',-1.42
'0:17.641',-1.6
'0:17.645',-1.47
'0:17.648',-1.25
'0:17.652',-1.07
'0:17.656',-0.87
'0:17.660',-0.72
'0:17.664',-0.54
'0:17.668',-0.37
'0:17.672',-0.22
'0:17.676',-0.02
'0:17.680',0.27
'0:17.684',0.5
'0:17.688',0.56
'0:17.691',0.67
'0:17.695',0.57
'0:17.699',0.29
'0:17.703',-0.23
'0:17.707',-0.7
'0:17.711',-0.96
'0:17.715',-1.2
'0:17.719',-1.55
'0:17.723',-1.97
'0:17.727',-2.21
'0:17.730',-2.51
'0:17.734',-2.8
'0:17.738',-2.71
'0:17.742',-2.47
'0:17.746',-2.46
'0:17.750',-2.49
'0:17.754',-2.29
'0:17.758',-2.19
'0:17.762',-2.34
'0:17.766',-2.71
'0:17.770',-2.66
'0:17.773',-1.73
'0:17.777',0.11
'0:17.781',2.48
'0:17.785',4.64
'0:17.789',6.34
'0:17.793',7.52
'0:17.797',6.74
'0:17.801',1.88
'0:17.805',-4.13
'0:17.809',-8.71
'0:17.813',-11.17
'0:17.816',-11.61
'0:17.820',-10.44
'0:17.824',-8.21
'0:17.828',-5.95
'0:17.832',-4.11
'0:17.836',-2.54
'0:17.840',-1.47
'0:17.844',-0.9
'0:17.848',-0.29
'0:17.852',0.18
'0:17.855',0.39
'0:17.859',0.33
'0:17.863',0.45
'0:17.867',0.82
'0:17.871',0.7
'0:17.875',0.69
'0:17.879',1.08
'0:17.883',1.32
'0:17.887',1.26
'0:17.891',1.14
'0:17.895',1.33
'0:17.898',1.61
'0:17.902',1.66
'0:17.906',1.68
'0:17.910',1.77
'0:17.914',1.94
'0:17.918',2.13
'0:17.922',2.52
'0:17.926',2.82
'0:17.930',2.94
'0:17.934',3.3
'0:17.938',3.76
'0:17.941',4.34
'0:17.945',4.72
'0:17.949',4.5
'0:17.953',4.21
'0:17.957',4.19
'0:17.961',4.24
'0:17.965',4.31
'0:17.969',4.28
'0:17.973',4.04
'0:17.977',3.79
'0:17.980',3.36
'0:17.984',2.54
'0:17.988',1.63
'0:17.992',0.84
'0:17.996',0.18
'0:18.000',-0.29
'0:18.004',-0.56
'0:18.008',-0.79
'0:18.012',-0.82
'0:18.016',-0.85
'0:18.020',-0.85
'0:18.023',-0.85
'0:18.027',-0.78
'0:18.031',-0.71
'0:18.035',-0.41
'0:18.039',-0.13
'0:18.043',0.02
'0:18.047',0.19
'0:18.051',0.45
'0:18.055',0.68
'0:18.059',0.81
'0:18.063',0.88
'0:18.066',0.77
'0:18.070',0.48
'0:18.074',0.35
'0:18.078',0.42
'0:18.082',0.32
'0:18.086',-0.46
'0:18.090',-1.46
'0:18.094',-2.43
'0:18.098',-3.05
'0:18.102',-3.26
'0:18.105',-3.11
'0:18.109',-2.86
'0:18.113',-2.66
'0:18.117',-2.6
'0:18.121',-2.76
'0:18.125',-3.03
'0:18.129',-3.23
'0:18.133',-3.26
'0:18.137',-3.45
'0:18.141',-3.63
'0:18.145',-3.29
'0:18.148',-2
'0:18.152',0.04
'0:18.156',2.58
'0:18.160',4.97
'0:18.164',6.76
'0:18.168',7.6
'0:18.172',5.93
'0:18.176',0.28
'0:18.180',-5.86
'0:18.184',-10.1
'0:18.188',-12.06
'0:18.191',-11.88
'0:18.195',-10.25
'0:18.199',-8.14
'0:18.203',-6.27
'0:18.207',-4.49
'0:18.211',-2.98
'0:18.215',-1.91
'0:18.219',-1.33
'0:18.223',-0.84
'0:18.227',-0.36
'0:18.230',0.09
'0:18.234',0.36
'0:18.238',0.4
'0:18.242',0.44
'0:18.246',0.49
'0:18.250',0.5
'0:18.254',0.48
'0:18.258',0.6
'0:18.262',0.71
'0:18.266',0.8
'0:18.270',0.95
'0:18.273',1.2
'0:18.277',1.36
'0:18.281',1.44
'0:18.285',1.51
'0:18.289',1.58
'0:18.293',1.7
'0:18.297',1.71
'0:18.301',1.71
'0:18.305',2.34
'0:18.309',2.83
'0:18.313',3.34
'0:18.316',3.85
'0:18.320',4.3
'0:18.324',4.76
'0:18.328',5.16
'0:18.332',5.32
'0:18.336',5.3
'0:18.340',5.06
'0:18.344',4.65
'0:18.348',4.26
'0:18.352',3.72
'0:18.355',2.99
'0:18.359',2.32
'0:18.363',1.76
'0:18.367',1.01
'0:18.371',0.24
'0:18.375',-0.43
'0:18.379',-0.86
'0:18.383',-1.02
'0:18.387',-1.02
'0:18.391',-0.97
'0:18.395',-0.92
'0:18.398',-0.87
'0:18.402',-0.71
'0:18.406',-0.49
'0:18.410',-0.35
'0:18.414',-0.2
'0:18.418',0
'0:18.422',0.12
'0:18.426',0.38
'0:18.430',0.65
'0:18.434',0.9
'0:18.438',1.09
'0:18.441',1.15
'0:18.445',1.05
'0:18.449',0.84
'0:18.453',0.65
'0:18.457',0.39
'0:18.461',0
'0:18.465',-0.4
'0:18.469',-0.76
'0:18.473',-0.96
'0:18.477',-1.2
'0:18.480',-1.52
'0:18.484',-1.88
'0:18.488',-2.11
'0:18.492',-2.16
'0:18.496',-2.09
'0:18.500',-2.05
'0:18.504',-1.91
'0:18.508',-1.66
'0:18.512',-1.64
'0:18.516',-1.87
'0:18.520',-2.02
'0:18.523',-1.7
'0:18.527',-0.49
'0:18.531',1.48
'0:18.535',4.03
'0:18.539',6.56
'0:18.543',8.84
'0:18.547',10.23
'0:18.551',8.41
'0:18.555',2.6
'0:18.559',-3.54
'0:18.563',-7.87
'0:18.566',-9.89
'0:18.570',-10.01
'0:18.574',-8.9
'0:18.578',-7.17
'0:18.582',-5.08
'0:18.586',-3.07
'0:18.590',-1.67
'0:18.594',-0.67
'0:18.598',0.07
'0:18.602',0.3
'0:18.605',0.2
'0:18.609',0.03
'0:18.613',0.11
'0:18.617',0.47
'0:18.621',0.64
'0:18.625',0.7
'0:18.629',0.91
'0:18.633',1.25
'0:18.637',1.64
'0:18.641',1.92
'0:18.645',2
'0:18.648',1.97
'0:18.652',1.89
'0:18.656',1.79
'0:18.660',1.87
'0:18.664',2.09
'0:18.668',2.24
'0:18.672',2.27
'0:18.676',2.34
'0:18.680',2.66
'0:18.684',3.22
'0:18.688',3.77
'0:18.691',4.15
'0:18.695',4.38
'0:18.699',4.58
'0:18.703',4.74
'0:18.707',4.96
'0:18.711',5.17
'0:18.715',5.13
'0:18.719',4.94
'0:18.723',4.67
'0:18.727',4.45
'0:18.730',4.18
'0:18.734',3.96
'0:18.738',3.61
'0:18.742',2.88
'0:18.746',2.2
'0:18.750',1.93
'0:18.754',1.93
'0:18.758',1.93
'0:18.762',1.93
'0:18.766',1.93
'0:18.770',1.93
'0:18.773',1.93
'0:18.777',1.93
'0:18.781',1.93
'0:18.785',1.93
'0:18.789',1.24
'0:18.793',1.22
'0:18.797',1.22
'0:18.801',1.22
'0:18.805',1.33
'0:18.809',1.21
'0:18.813',1.25
'0:18.816',1.2
'0:18.820',1.01
'0:18.824',0.83
'0:18.828',0.71
'0:18.832',0.5
'0:18.836',0.12
'0:18.840',-0.32
'0:18.844',-0.74
'0:18.848',-1.22
'0:18.852',-1.6
'0:18.855',-1.86
'0:18.859',-2.08
'0:18.863',-2.28
'0:18.867',-2.5
'0:18.871',-2.62
'0:18.875',-2.53
'0:18.879',-2.62
'0:18.883',-2.84
'0:18.887',-3.03
'0:18.891',-3.34
'0:18.895',-3.67
'0:18.898',-3.57
'0:18.902',-2.75
'0:18.906',-1.35
'0:18.910',0.67
'0:18.914',3.08
'0:18.918',5.24
'0:18.922',6.95
'0:18.926',6.77
'0:18.930',2.87
'0:18.934',-2.43
'0:18.938',-6.98
'0:18.941',-10.02
'0:18.945',-10.98
'0:18.949',-10.23
'0:18.953',-8.63
'0:18.957',-6.91
'0:18.961',-5.24
'0:18.965',-3.96
'0:18.969',-3
'0:18.973',-2.28
'0:18.977',-1.88
'0:18.980',-1.83
'0:18.984',-1.71
'0:18.988',-1.43
'0:18.992',-1.06
'0:18.996',-0.72
'0:19.000',-0.53
'0:19.004',-0.42
'0:19.008',-0.31
'0:19.012',-0.16
'0:19.016',-0.09
'0:19.020',-0.04
'0:19.023',-0.07
'0:19.027',-0.03
'0:19.031',0.1
'0:19.035',0.29
'0:19.039',0.35
'0:19.043',0.35
'0:19.047',0.48
'0:19.051',0.77
'0:19.055',0.99
'0:19.059',1.19
'0:19.063',1.39
'0:19.066',1.64
'0:19.070',1.85
'0:19.074',2.21
'0:19.078',2.74
'0:19.082',3.11
'0:19.086',3.29
'0:19.090',3.37
'0:19.094',3.18
'0:19.098',2.84
'0:19.102',2.62
'0:19.105',2.45
'0:19.109',2.06
'0:19.113',1.44
'0:19.117',0.85
'0:19.121',0.32
'0:19.125',-0.22
'0:19.129',-0.61
'0:19.133',-1.07
'0:19.137',-1.65
'0:19.141',-1.99
'0:19.145',-1.98
'0:19.148',-1.96
'0:19.152',-2.07
'0:19.156',-2.02
'0:19.160',-1.78
'0:19.164',-1.45
'0:19.168',-1.12
'0:19.172',-0.9
'0:19.176',-0.78
'0:19.180',-0.75
'0:19.184',-0.68
'0:19.188',-0.63
'0:19.191',-0.63
'0:19.195',-0.7
'0:19.199',-0.87
'0:19.203',-0.99
'0:19.207',-0.91
'0:19.211',-0.92
'0:19.215',-1.34
'0:19.219',-1.92
'0:19.223',-2.42
'0:19.227',-2.81
'0:19.230',-3.29
'0:19.234',-3.78
'0:19.238',-4.01
'0:19.242',-3.9
'0:19.246',-3.63
'0:19.250',-3.43
'0:19.254',-3.41
'0:19.258',-3.31
'0:19.262',-3.19
'0:19.266',-3.23
'0:19.270',-3.47
'0:19.273',-3.67
'0:19.277',-3.45
'0:19.281',-2.4
'0:19.285',-0.57
'0:19.289',1.71
'0:19.293',4.06
'0:19.297',6.04
'0:19.301',7.34
'0:19.305',6.1
'0:19.309',0.8
'0:19.313',-5.14
'0:19.316',-9.29
'0:19.320',-11.45
'0:19.324',-11.52
'0:19.328',-10.2
'0:19.332',-8.22
'0:19.336',-6.1
'0:19.340',-4.38
'0:19.344',-3.06
'0:19.348',-2.14
'0:19.352',-1.4
'0:19.355',-1.19
'0:19.359',-1.19
'0:19.363',-0.27
'0:19.367',0.19
'0:19.371',0.79
'0:19.375',1.26
'0:19.379',1.42
'0:19.383',1.23
'0:19.387',0.96
'0:19.391',0.98
'0:19.395',1.07
'0:19.398',1.29
'0:19.402',1.58
'0:19.406',1.82
'0:19.410',1.88
'0:19.414',1.97
'0:19.418',2.17
'0:19.422',2.24
'0:19.426',2.22
'0:19.430',2.37
'0:19.434',2.66
'0:19.438',3.04
'0:19.441',3.57
'0:19.445',3.97
'0:19.449',4.42
'0:19.453',4.86
'0:19.457',5.14
'0:19.461',5.29
'0:19.465',5.34
'0:19.469',5.36
'0:19.473',5.3
'0:19.477',5.1
'0:19.480',4.8
'0:19.484',4.17
'0:19.488',3.34
'0:19.492',2.7
'0:19.496',2.16
'0:19.500',1.6
'0:19.504',0.88
'0:19.508',0.27
'0:19.512',-0.25
'0:19.516',-0.45
'0:19.520',-0.39
'0:19.523',-0.36
'0:19.527',-0.4
