'0:00.000',0.42
'0:00.004',-0.23
'0:00.008',-0.82
'0:00.012',-1.32
'0:00.016',-1.51
'0:00.020',-1.41
'0:00.023',-1.28
'0:00.027',-1.16
'0:00.031',-0.97
'0:00.035',-0.67
'0:00.039',-0.38
'0:00.043',0
'0:00.047',0.5
'0:00.051',0.9
'0:00.055',1.12
'0:00.059',1.04
'0:00.063',0.74
'0:00.066',0.54
'0:00.070',0.5
'0:00.074',0.46
'0:00.078',0.14
'0:00.082',-0.24
'0:00.086',-0.26
'0:00.090',-0.17
'0:00.094',-0.32
'0:00.098',-0.95
'0:00.102',-1.97
'0:00.105',-2.74
'0:00.109',-3.17
'0:00.113',-3.36
'0:00.117',-3.31
'0:00.121',-3.33
'0:00.125',-3.27
'0:00.129',-3.19
'0:00.133',-3.24
'0:00.137',-3.28
'0:00.141',-3.13
'0:00.145',-2.88
'0:00.148',-2.8
'0:00.152',-2.73
'0:00.156',-2.61
'0:00.160',-2.48
'0:00.164',-2.48
'0:00.168',-2.48
'0:00.172',-2.48
'0:00.176',-2.38
'0:00.180',-1.78
'0:00.184',-0.51
'0:00.188',1.59
'0:00.191',3.99
'0:00.195',6.51
'0:00.199',9.01
'0:00.203',10.01
'0:00.207',8.23
'0:00.211',3.41
'0:00.215',-2.23
'0:00.219',-6.69
'0:00.223',-9.22
'0:00.227',-9.78
'0:00.230',-8.75
'0:00.234',-7.05
'0:00.238',-5.62
'0:00.242',-4.58
'0:00.246',-3.71
'0:00.250',-3
'0:00.254',-2.47
'0:00.258',-1.89
'0:00.262',-1.57
'0:00.266',-1.21
'0:00.270',-0.85
'0:00.273',-0.73
'0:00.277',-0.68
'0:00.281',-0.63
'0:00.285',-0.36
'0:00.289',-0.22
'0:00.293',-0.09
'0:00.297',0.16
'0:00.301',0.4
'0:00.305',0.73
'0:00.309',1.13
'0:00.313',1.4
'0:00.316',1.59
'0:00.320',1.79
'0:00.324',1.77
'0:00.328',1.82
'0:00.332',2.2
'0:00.336',2.57
'0:00.340',2.75
'0:00.344',3.38
'0:00.348',3.81
'0:00.352',3.8
'0:00.355',3.63
'0:00.359',3.34
'0:00.363',3.24
'0:00.367',3.39
'0:00.371',3.22
'0:00.375',2.88
'0:00.379',2.69
'0:00.383',2.4
'0:00.387',1.66
'0:00.391',1.08
'0:00.395',0.64
'0:00.398',0.04
'0:00.402',-0.45
'0:00.406',-0.91
'0:00.410',-1.3
'0:00.414',-1.54
'0:00.418',-1.68
'0:00.422',-1.6
'0:00.426',-1.23
'0:00.430',-0.99
'0:00.434',-0.92
'0:00.438',-0.82
'0:00.441',-0.42
'0:00.445',-0.02
'0:00.449',0.1
'0:00.453',0.28
'0:00.457',0.41
'0:00.461',0.53
'0:00.465',0.69
'0:00.469',0.73
'0:00.473',0.6
'0:00.477',0.53
'0:00.480',0.54
'0:00.484',0.43
'0:00.488',0.16
'0:00.492',-0.35
'0:00.496',-0.86
'0:00.500',-1.33
'0:00.504',-1.94
'0:00.508',-2.35
'0:00.512',-2.64
'0:00.516',-2.98
'0:00.520',-3.04
'0:00.523',-2.95
'0:00.527',-2.87
'0:00.531',-2.8
'0:00.535',-2.65
'0:00.539',-2.46
'0:00.543',-2.24
'0:00.547',-2.04
'0:00.551',-1.8
'0:00.555',-1.8
'0:00.559',-1.74
'0:00.563',-1.46
'0:00.566',-1.16
'0:00.570',-1.07
'0:00.574',-1.09
'0:00.578',-0.91
'0:00.582',-0.19
'0:00.586',1.25
'0:00.590',3.33
'0:00.594',5.85
'0:00.598',8.63
'0:00.602',10.87
'0:00.605',10.96
'0:00.609',7.78
'0:00.613',2.17
'0:00.617',-3.19
'0:00.621',-7.04
'0:00.625',-8.78
'0:00.629',-8.65
'0:00.633',-7.58
'0:00.637',-6.16
'0:00.641',-4.67
'0:00.645',-3.43
'0:00.648',-2.64
'0:00.652',-2.1
'0:00.656',-1.6
'0:00.660',-1.24
'0:00.664',-0.9
'0:00.668',-0.63
'0:00.672',-0.51
'0:00.676',-0.38
'0:00.680',-0.11
'0:00.684',0.26
'0:00.688',0.49
'0:00.691',0.64
'0:00.695',0.78
'0:00.699',0.91
'0:00.703',1.01
'0:00.707',1.09
'0:00.711',1.15
'0:00.715',1.49
'0:00.719',1.94
'0:00.723',2.2
'0:00.727',2.4
'0:00.730',2.75
'0:00.734',3.12
'0:00.738',3.55
'0:00.742',3.88
'0:00.746',4.07
'0:00.750',4.14
'0:00.754',4.33
'0:00.758',4.55
'0:00.762',4.52
'0:00.766',4.38
'0:00.770',4.21
'0:00.773',3.98
'0:00.777',3.59
'0:00.781',3.11
'0:00.785',2.64
'0:00.789',2.16
'0:00.793',1.64
'0:00.797',1.11
'0:00.801',0.65
'0:00.805',0.26
'0:00.809',-0.18
'0:00.813',-0.62
'0:00.816',-0.97
'0:00.820',-1.07
'0:00.824',-0.79
'0:00.828',-0.53
'0:00.832',-0.64
'0:00.836',-0.68
'0:00.840',-0.51
'0:00.844',-0.11
'0:00.848',0.28
'0:00.852',0.67
'0:00.855',0.92
'0:00.859',0.9
'0:00.863',0.88
'0:00.867',0.89
'0:00.871',1.01
'0:00.875',0.97
'0:00.879',0.63
'0:00.883',0.27
'0:00.887',-0.02
'0:00.891',-0.34
'0:00.895',-0.74
'0:00.898',-1.19
'0:00.902',-1.72
'0:00.906',-2.28
'0:00.910',-2.65
'0:00.914',-2.88
'0:00.918',-3.01
'0:00.922',-3.02
'0:00.926',-3.01
'0:00.930',-2.84
'0:00.934',-2.71
'0:00.938',-2.76
'0:00.941',-3.11
'0:00.945',-3.4
'0:00.949',-3.01
'0:00.953',-2.48
'0:00.957',-2.32
'0:00.961',-2.5
'0:00.965',-2.53
'0:00.969',-2.48
'0:00.973',-2.48
'0:00.977',-2.5
'0:00.980',-1.81
'0:00.984',0.02
'0:00.988',2.67
'0:00.992',5.39
'0:00.996',8.06
'0:01.000',10.23
'0:01.004',10.26
'0:01.008',7.42
'0:01.012',2.17
'0:01.016',-3.44
'0:01.020',-7.35
'0:01.023',-9.02
'0:01.027',-8.86
'0:01.031',-7.56
'0:01.035',-6.16
'0:01.039',-5.04
'0:01.043',-3.92
'0:01.047',-2.96
'0:01.051',-2.15
'0:01.055',-1.55
'0:01.059',-1.29
'0:01.063',-1.04
'0:01.066',-0.62
'0:01.070',-0.34
'0:01.074',-0.26
'0:01.078',-0.34
'0:01.082',-0.33
'0:01.086',-0.24
'0:01.090',-0.13
'0:01.094',0.06
'0:01.098',0.25
'0:01.102',0.42
'0:01.105',0.69
'0:01.109',1.03
'0:01.113',1.51
'0:01.117',1.94
'0:01.121',2.15
'0:01.125',2.27
'0:01.129',2.45
'0:01.133',2.86
'0:01.137',3.06
'0:01.141',3.2
'0:01.145',3.35
'0:01.148',3.63
'0:01.152',3.94
'0:01.156',4.15
'0:01.160',4.24
'0:01.164',4.21
'0:01.168',4.16
'0:01.172',3.94
'0:01.176',3.53
'0:01.180',3.06
'0:01.184',2.36
'0:01.188',1.56
'0:01.191',0.86
'0:01.195',0.37
'0:01.199',-0.13
'0:01.203',-0.45
'0:01.207',-0.78
'0:01.211',-1.03
'0:01.215',-1.24
'0:01.219',-1.35
'0:01.223',-1.53
'0:01.227',-1.53
'0:01.230',-1.29
'0:01.234',-1.07
'0:01.238',-1.04
'0:01.242',-1
'0:01.246',-0.77
'0:01.250',-0.45
'0:01.254',-0.09
'0:01.258',0.07
'0:01.262',0.13
'0:01.266',0.3
'0:01.270',0.45
'0:01.273',0.49
'0:01.277',0.39
'0:01.281',0.2
'0:01.285',0.1
'0:01.289',0
'0:01.293',-0.21
'0:01.297',-0.64
'0:01.301',-1.35
'0:01.305',-1.93
'0:01.309',-2.37
'0:01.313',-2.81
'0:01.316',-3.13
'0:01.320',-3.32
'0:01.324',-3.29
'0:01.328',-3.14
'0:01.332',-2.91
'0:01.336',-2.8
'0:01.340',-2.62
'0:01.344',-2.43
'0:01.348',-2.3
'0:01.352',-2.18
'0:01.355',-2.04
'0:01.359',-1.85
'0:01.363',-1.55
'0:01.367',-1.38
'0:01.371',-1.32
'0:01.375',-1.39
'0:01.379',-1.51
'0:01.383',-1.34
'0:01.387',-0.5
'0:01.391',1.3
'0:01.395',3.78
'0:01.398',6.68
'0:01.402',9.59
'0:01.406',11.54
'0:01.410',10.96
'0:01.414',7.15
'0:01.418',1.21
'0:01.422',-4.15
'0:01.426',-7.61
'0:01.430',-9.04
'0:01.434',-8.71
'0:01.438',-7.28
'0:01.441',-5.55
'0:01.445',-4.03
'0:01.449',-2.8
'0:01.453',-1.99
'0:01.457',-1.54
'0:01.461',-1.11
'0:01.465',-0.73
'0:01.469',-0.48
'0:01.473',-0.29
'0:01.477',-0.06
'0:01.480',0.23
'0:01.484',0.52
'0:01.488',0.65
'0:01.492',0.72
'0:01.496',0.85
'0:01.500',1
'0:01.504',1.18
'0:01.508',1.3
'0:01.512',1.51
'0:01.516',1.74
'0:01.520',1.91
'0:01.523',2.15
'0:01.527',2.47
'0:01.531',3.06
'0:01.535',3.55
'0:01.539',3.53
'0:01.543',3.64
'0:01.547',3.91
'0:01.551',4.17
'0:01.555',4.37
'0:01.559',4.51
'0:01.563',4.56
'0:01.566',4.56
'0:01.570',4.61
'0:01.574',4.63
'0:01.578',4.63
'0:01.582',4.52
'0:01.586',3.96
'0:01.590',3.26
'0:01.594',2.62
'0:01.598',2.13
'0:01.602',1.51
'0:01.605',0.64
'0:01.609',-0.13
'0:01.613',-0.64
'0:01.617',-0.95
'0:01.621',-1.17
'0:01.625',-1.32
'0:01.629',-1.32
'0:01.633',-1.16
'0:01.637',-1.04
'0:01.641',-0.91
'0:01.645',-0.84
'0:01.648',-0.64
'0:01.652',-0.3
'0:01.656',0.14
'0:01.660',0.53
'0:01.664',0.66
'0:01.668',0.67
'0:01.672',0.69
'0:01.676',0.63
'0:01.680',0.53
'0:01.684',0.27
'0:01.688',0.04
'0:01.691',-0.05
'0:01.695',-0.28
'0:01.699',-0.72
'0:01.703',-1.31
'0:01.707',-1.91
'0:01.711',-2.42
'0:01.715',-2.71
'0:01.719',-2.93
'0:01.723',-2.95
'0:01.727',-3
'0:01.730',-3.22
'0:01.734',-3.47
'0:01.738',-3.61
'0:01.742',-3.5
'0:01.746',-3.22
'0:01.750',-2.94
'0:01.754',-2.62
'0:01.758',-2.61
'0:01.762',-2.74
'0:01.766',-2.84
'0:01.770',-2.75
'0:01.773',-2.35
'0:01.777',-2.07
'0:01.781',-2.07
'0:01.785',-1.94
'0:01.789',-1.26
'0:01.793',0.36
'0:01.797',2.85
'0:01.801',5.65
'0:01.805',8.55
'0:01.809',10.5
'0:01.813',10.17
'0:01.816',6.65
'0:01.820',0.83
'0:01.824',-4.56
'0:01.828',-8.13
'0:01.832',-9.7
'0:01.836',-9.36
'0:01.840',-7.93
'0:01.844',-6.3
'0:01.848',-4.86
'0:01.852',-3.67
'0:01.855',-2.67
'0:01.859',-2.13
'0:01.863',-1.77
'0:01.867',-1.36
'0:01.871',-0.89
'0:01.875',-0.52
'0:01.879',-0.2
'0:01.883',0.03
'0:01.887',0.25
'0:01.891',0.23
'0:01.895',0.25
'0:01.898',0.34
'0:01.902',0.37
'0:01.906',0.42
'0:01.910',0.54
'0:01.914',0.72
'0:01.918',0.76
'0:01.922',0.71
'0:01.926',0.94
'0:01.930',1.45
'0:01.934',1.83
'0:01.938',2.03
'0:01.941',2.4
'0:01.945',2.86
'0:01.949',3.27
'0:01.953',3.48
'0:01.957',3.64
'0:01.961',3.81
'0:01.965',3.78
'0:01.969',3.95
'0:01.973',4.16
'0:01.977',4.07
'0:01.980',3.65
'0:01.984',3.25
'0:01.988',2.8
'0:01.992',2.29
'0:01.996',1.71
'0:02.000',1.21
'0:02.004',0.65
'0:02.008',-0.12
'0:02.012',-0.74
'0:02.016',-1.11
'0:02.020',-1.29
'0:02.023',-1.23
'0:02.027',-1.05
'0:02.031',-1.15
'0:02.035',-1.31
'0:02.039',-1.41
'0:02.043',-1.39
'0:02.047',-1.2
'0:02.051',-0.9
'0:02.055',-0.9
'0:02.059',-0.71
'0:02.063',-0.1
'0:02.066',0.18
'0:02.070',0.28
'0:02.074',0.41
'0:02.078',0.29
'0:02.082',0.17
'0:02.086',-0.03
'0:02.090',-0.29
'0:02.094',-0.58
'0:02.098',-1.14
'0:02.102',-1.63
'0:02.105',-1.8
'0:02.109',-2.04
'0:02.113',-2.57
'0:02.117',-3.41
'0:02.121',-3.9
'0:02.125',-3.69
'0:02.129',-3.28
'0:02.133',-3.02
'0:02.137',-3.13
'0:02.141',-3.56
'0:02.145',-3.63
'0:02.148',-3.47
'0:02.152',-2.76
'0:02.156',-2.26
'0:02.160',-1.93
'0:02.164',-2.28
'0:02.168',-2.67
'0:02.172',-2.37
'0:02.176',-2.21
'0:02.180',-2.02
'0:02.184',-1.55
'0:02.188',-0.61
'0:02.191',0.5
'0:02.195',2.3
'0:02.199',4.59
'0:02.203',7.04
'0:02.207',9.38
'0:02.211',10.25
'0:02.215',8.11
'0:02.219',2.82
'0:02.223',-2.74
'0:02.227',-6.54
'0:02.230',-8.87
'0:02.234',-9.21
'0:02.238',-8.47
'0:02.242',-7.22
'0:02.246',-5.88
'0:02.250',-4.53
'0:02.254',-3.32
'0:02.258',-2.47
'0:02.262',-2.06
'0:02.266',-1.69
'0:02.270',-1.4
'0:02.273',-1.24
'0:02.277',-0.99
'0:02.281',-0.63
'0:02.285',-0.19
'0:02.289',-0.09
'0:02.293',-0.12
'0:02.297',-0.02
'0:02.301',0.25
'0:02.305',0.47
'0:02.309',0.72
'0:02.313',0.94
'0:02.316',1.2
'0:02.320',1.45
'0:02.324',1.62
'0:02.328',1.84
'0:02.332',2.08
'0:02.336',2.27
'0:02.340',2.55
'0:02.344',2.94
'0:02.348',3.35
'0:02.352',3.62
'0:02.355',3.89
'0:02.359',4.04
'0:02.363',4.15
'0:02.367',4.32
'0:02.371',4.36
'0:02.375',4.36
'0:02.379',4.31
'0:02.383',4.08
'0:02.387',3.74
'0:02.391',3.32
'0:02.395',2.5
'0:02.398',1.62
'0:02.402',0.89
'0:02.406',0.4
'0:02.410',0.01
'0:02.414',-0.27
'0:02.418',-0.48
'0:02.422',-0.6
'0:02.426',-0.61
'0:02.430',-0.52
'0:02.434',-0.33
'0:02.438',-0.11
'0:02.441',0.04
'0:02.445',0.02
'0:02.449',0.02
'0:02.453',0.26
'0:02.457',0.56
'0:02.461',0.81
'0:02.465',0.96
'0:02.469',0.93
'0:02.473',0.8
'0:02.477',0.67
'0:02.480',0.6
'0:02.484',0.52
'0:02.488',0.44
'0:02.492',0.42
'0:02.496',0.29
'0:02.500',-0.11
'0:02.504',-0.8
'0:02.508',-1.45
'0:02.512',-1.81
'0:02.516',-2.29
'0:02.520',-2.84
'0:02.523',-3.12
'0:02.527',-3.14
'0:02.531',-3.11
'0:02.535',-3.14
'0:02.539',-3.24
'0:02.543',-3.36
'0:02.547',-3.21
'0:02.551',-2.74
'0:02.555',-2.36
'0:02.559',-2.18
'0:02.563',-1.97
'0:02.566',-1.87
'0:02.570',-1.77
'0:02.574',-1.82
'0:02.578',-1.6
'0:02.582',-0.96
'0:02.586',-0.49
'0:02.590',0.01
'0:02.594',1.54
'0:02.598',3.78
'0:02.602',6.36
'0:02.605',9.03
'0:02.609',10.62
'0:02.613',9.41
'0:02.617',5.22
'0:02.621',-0.31
'0:02.625',-4.9
'0:02.629',-7.64
'0:02.633',-8.65
'0:02.637',-8.15
'0:02.641',-6.72
'0:02.645',-5.21
'0:02.648',-4.08
'0:02.652',-3.05
'0:02.656',-2.15
'0:02.660',-1.52
'0:02.664',-1.09
'0:02.668',-0.77
'0:02.672',-0.38
'0:02.676',-0.13
'0:02.680',0.05
'0:02.684',0.05
'0:02.688',-0.02
'0:02.691',0.23
'0:02.695',0.54
'0:02.699',0.55
'0:02.703',0.49
'0:02.707',0.57
'0:02.711',0.81
'0:02.715',0.98
'0:02.719',1.18
'0:02.723',1.42
'0:02.727',1.65
'0:02.730',1.94
'0:02.734',2.31
'0:02.738',2.51
'0:02.742',2.67
'0:02.746',3.04
'0:02.750',3.45
'0:02.754',3.71
'0:02.758',3.91
'0:02.762',3.99
'0:02.766',4.05
'0:02.770',4.14
'0:02.773',4.08
'0:02.777',3.85
'0:02.781',3.67
'0:02.785',3.4
'0:02.789',2.88
'0:02.793',2.16
'0:02.797',1.24
'0:02.801',0.42
'0:02.805',-0.01
'0:02.809',-0.4
'0:02.813',-0.83
'0:02.816',-1.15
'0:02.820',-1.3
'0:02.824',-1.34
'0:02.828',-1.23
'0:02.832',-1.09
'0:02.836',-1.07
'0:02.840',-0.97
'0:02.844',-0.68
'0:02.848',-0.35
'0:02.852',-0.27
'0:02.855',-0.23
'0:02.859',-0.06
'0:02.863',0.31
'0:02.867',0.6
'0:02.871',0.64
'0:02.875',0.59
'0:02.879',0.48
'0:02.883',0.41
'0:02.887',0.3
'0:02.891',0.28
'0:02.895',0.06
'0:02.898',-0.36
'0:02.902',-0.87
'0:02.906',-1.51
'0:02.910',-2.1
'0:02.914',-2.42
'0:02.918',-2.58
'0:02.922',-2.73
'0:02.926',-2.87
'0:02.930',-3.05
'0:02.934',-3.16
'0:02.938',-3.09
'0:02.941',-2.81
'0:02.945',-2.58
'0:02.949',-2.47
'0:02.953',-2.34
'0:02.957',-2.21
'0:02.961',-2.06
'0:02.965',-1.87
'0:02.969',-1.76
'0:02.973',-1.73
'0:02.977',-1.75
'0:02.980',-1.77
'0:02.984',-1.55
'0:02.988',-0.61
'0:02.992',1.25
'0:02.996',3.76
'0:03.000',6.46
'0:03.004',9.16
'0:03.008',11.11
'0:03.012',10.64
'0:03.016',6.91
'0:03.020',0.89
'0:03.023',-4.59
'0:03.027',-8.1
'0:03.031',-9.39
'0:03.035',-8.72
'0:03.039',-7.16
'0:03.043',-5.45
'0:03.047',-4.03
'0:03.051',-3
'0:03.055',-2.29
'0:03.059',-1.69
'0:03.063',-1.12
'0:03.066',-0.67
'0:03.070',-0.44
'0:03.074',-0.38
'0:03.078',-0.13
'0:03.082',0.34
'0:03.086',0.64
'0:03.090',0.65
'0:03.094',0.54
'0:03.098',0.54
'0:03.102',0.72
'0:03.105',1.1
'0:03.109',1.22
'0:03.113',1.35
'0:03.117',1.74
'0:03.121',1.89
'0:03.125',1.6
'0:03.129',1.57
'0:03.133',2
'0:03.137',2.44
'0:03.141',2.72
'0:03.145',3.3
'0:03.148',3.76
'0:03.152',3.87
'0:03.156',4.01
'0:03.160',4.17
'0:03.164',4.1
'0:03.168',4.1
'0:03.172',4.16
'0:03.176',4.05
'0:03.180',4.01
'0:03.184',3.74
'0:03.188',3.22
'0:03.191',2.64
'0:03.195',2.05
'0:03.199',1.56
'0:03.203',1.24
'0:03.207',0.85
'0:03.211',0.26
'0:03.215',-0.41
'0:03.219',-0.93
'0:03.223',-1.13
'0:03.227',-1.3
'0:03.230',-1.32
'0:03.234',-1.13
'0:03.238',-0.78
'0:03.242',-0.63
'0:03.246',-0.66
'0:03.250',-0.51
'0:03.254',-0.28
'0:03.258',-0.11
'0:03.262',0.07
'0:03.266',0.13
'0:03.270',0.18
'0:03.273',0.4
'0:03.277',0.5
'0:03.281',0.56
'0:03.285',0.39
'0:03.289',0.36
'0:03.293',0.47
'0:03.297',0.23
'0:03.301',-0.24
'0:03.305',-0.87
'0:03.309',-1.77
'0:03.313',-2.57
'0:03.316',-3.03
'0:03.320',-3.07
'0:03.324',-3.17
'0:03.328',-3.17
'0:03.332',-3.14
'0:03.336',-3.04
'0:03.340',-2.83
'0:03.344',-2.74
'0:03.348',-2.84
'0:03.352',-2.87
'0:03.355',-2.62
'0:03.359',-2.44
'0:03.363',-2.33
'0:03.367',-2.14
'0:03.371',-1.71
'0:03.375',-1.31
'0:03.379',-1.34
'0:03.383',-1.64
'0:03.387',-1.75
'0:03.391',-1.05
'0:03.395',0.64
'0:03.398',3.02
'0:03.402',5.56
'0:03.406',8.13
'0:03.410',10.41
'0:03.414',10.55
'0:03.418',7.46
'0:03.422',2.02
'0:03.426',-3.25
'0:03.430',-6.96
'0:03.434',-8.76
'0:03.438',-8.85
'0:03.441',-7.62
'0:03.445',-5.77
'0:03.449',-4.04
'0:03.453',-2.85
'0:03.457',-2.2
'0:03.461',-1.67
'0:03.465',-1.22
'0:03.469',-0.77
'0:03.473',-0.34
'0:03.477',-0.17
'0:03.480',-0.1
'0:03.484',-0.04
'0:03.488',0.18
'0:03.492',0.4
'0:03.496',0.59
'0:03.500',0.83
'0:03.504',1.04
'0:03.508',1.23
'0:03.512',1.32
'0:03.516',1.38
'0:03.520',1.43
'0:03.523',1.6
'0:03.527',1.89
'0:03.531',2.14
'0:03.535',2.42
'0:03.539',2.93
'0:03.543',3.45
'0:03.547',3.76
'0:03.551',3.94
'0:03.555',4.03
'0:03.559',3.86
'0:03.563',3.73
'0:03.566',3.85
'0:03.570',3.88
'0:03.574',3.85
'0:03.578',3.81
'0:03.582',3.5
'0:03.586',2.88
'0:03.590',2.12
'0:03.594',1.45
'0:03.598',0.81
'0:03.602',0.11
'0:03.605',-0.42
'0:03.609',-0.75
'0:03.613',-1.01
'0:03.617',-1.26
'0:03.621',-1.49
'0:03.625',-1.6
'0:03.629',-1.58
'0:03.633',-1.52
'0:03.637',-1.46
'0:03.641',-1.41
'0:03.645',-1.26
'0:03.648',-1.02
'0:03.652',-0.72
'0:03.656',-0.55
'0:03.660',-0.34
'0:03.664',-0.01
'0:03.668',0.34
'0:03.672',0.49
'0:03.676',0.27
'0:03.680',-0.05
'0:03.684',-0.24
'0:03.688',-0.41
'0:03.691',-0.54
'0:03.695',-0.88
'0:03.699',-1.36
'0:03.703',-1.9
'0:03.707',-2.43
'0:03.711',-2.98
'0:03.715',-3.39
'0:03.719',-3.6
'0:03.723',-3.7
'0:03.727',-3.78
'0:03.730',-3.63
'0:03.734',-3.67
'0:03.738',-3.73
'0:03.742',-3.65
'0:03.746',-3.51
'0:03.750',-3.45
'0:03.754',-3.23
'0:03.758',-2.97
'0:03.762',-2.89
'0:03.766',-2.66
'0:03.770',-2.36
'0:03.773',-2.15
'0:03.777',-2.2
'0:03.781',-2.25
'0:03.785',-1.78
'0:03.789',-0.53
'0:03.793',1.58
'0:03.797',3.92
'0:03.801',6.49
'0:03.805',9.08
'0:03.809',10.07
'0:03.813',8.1
'0:03.816',3.36
'0:03.820',-2.52
'0:03.824',-7.12
'0:03.828',-9.6
'0:03.832',-9.95
'0:03.836',-8.86
'0:03.840',-6.93
'0:03.844',-5.06
'0:03.848',-3.79
'0:03.852',-2.75
'0:03.855',-2.14
'0:03.859',-1.5
'0:03.863',-0.98
'0:03.867',-0.59
'0:03.871',-0.35
'0:03.875',-0.04
'0:03.879',-0.01
'0:03.883',-0.11
'0:03.887',-0.07
'0:03.891',0.42
'0:03.895',0.92
'0:03.898',0.89
'0:03.902',0.93
'0:03.906',1.05
'0:03.910',1.08
'0:03.914',1.11
'0:03.918',1.34
'0:03.922',1.52
'0:03.926',1.81
'0:03.930',2.2
'0:03.934',2.62
'0:03.938',3.11
'0:03.941',3.35
'0:03.945',3.29
'0:03.949',3.41
'0:03.953',3.79
'0:03.957',4.32
'0:03.961',4.82
'0:03.965',4.54
'0:03.969',3.87
'0:03.973',3.36
'0:03.977',3.22
'0:03.980',3.11
'0:03.984',2.93
'0:03.988',2.57
'0:03.992',2.06
'0:03.996',1.43
'0:04.000',0.65
'0:04.004',-0.12
'0:04.008',-0.42
'0:04.012',-0.67
'0:04.016',-1.14
'0:04.020',-1.49
'0:04.023',-1.55
'0:04.027',-1.41
'0:04.031',-1.18
'0:04.035',-0.99
'0:04.039',-0.84
'0:04.043',-0.76
'0:04.047',-0.5
'0:04.051',-0.04
'0:04.055',0.25
'0:04.059',0.39
'0:04.063',0.46
'0:04.066',0.61
'0:04.070',0.61
'0:04.074',0.48
'0:04.078',0.39
'0:04.082',0.2
'0:04.086',-0.09
'0:04.090',-0.14
'0:04.094',0.08
'0:04.098',0.01
'0:04.102',-1.06
'0:04.105',-2.23
'0:04.109',-2.98
'0:04.113',-3.29
'0:04.117',-3.45
'0:04.121',-3.65
'0:04.125',-3.95
'0:04.129',-4.05
'0:04.133',-4.15
'0:04.137',-4.06
'0:04.141',-3.68
'0:04.145',-3.25
'0:04.148',-2.92
'0:04.152',-2.74
'0:04.156',-2.67
'0:04.160',-2.6
'0:04.164',-2.43
'0:04.168',-2.25
'0:04.172',-2.02
'0:04.176',-1.83
'0:04.180',-1.68
'0:04.184',-1.21
'0:04.188',-0.2
'0:04.191',1.38
'0:04.195',3.43
'0:04.199',6
'0:04.203',8.6
'0:04.207',10.16
'0:04.211',9.17
'0:04.215',5.12
'0:04.219',-0.36
'0:04.223',-5.05
'0:04.227',-7.97
'0:04.230',-8.97
'0:04.234',-8.45
'0:04.238',-7.07
'0:04.242',-5.57
'0:04.246',-4.38
'0:04.250',-3.35
'0:04.254',-2.59
'0:04.258',-2.03
'0:04.262',-1.71
'0:04.266',-1.42
'0:04.270',-1
'0:04.273',-0.44
'0:04.277',-0.12
'0:04.281',-0.01
'0:04.285',0.09
'0:04.289',0.1
'0:04.293',0.14
'0:04.297',0.35
'0:04.301',0.57
'0:04.305',0.76
'0:04.309',0.93
'0:04.313',1.16
'0:04.316',1.52
'0:04.320',1.92
'0:04.324',2.24
'0:04.328',2.54
'0:04.332',2.74
'0:04.336',3.01
'0:04.340',3.38
'0:04.344',3.67
'0:04.348',3.86
'0:04.352',4.05
'0:04.355',4.14
'0:04.359',4.09
'0:04.363',4.09
'0:04.367',4.16
'0:04.371',4.18
'0:04.375',3.98
'0:04.379',3.72
'0:04.383',3.63
'0:04.387',3.3
'0:04.391',2.89
'0:04.395',2.39
'0:04.398',1.88
'0:04.402',1.28
'0:04.406',0.74
'0:04.410',0.21
'0:04.414',-0.13
'0:04.418',-0.41
'0:04.422',-0.56
'0:04.426',-0.5
'0:04.430',-0.39
'0:04.434',-0.39
'0:04.438',-0.41
'0:04.441',-0.38
'0:04.445',-0.25
'0:04.449',-0.04
'0:04.453',0.18
'0:04.457',0.46
'0:04.461',0.71
'0:04.465',0.93
'0:04.469',0.99
'0:04.473',0.92
'0:04.477',0.75
'0:04.480',0.57
'0:04.484',0.5
'0:04.488',0.36
'0:04.492',-0.02
'0:04.496',-0.53
'0:04.500',-1.07
'0:04.504',-1.65
'0:04.508',-2.2
'0:04.512',-2.69
'0:04.516',-3
'0:04.520',-3.2
'0:04.523',-3.33
'0:04.527',-3.32
'0:04.531',-3.28
'0:04.535',-3.27
'0:04.539',-3.16
'0:04.543',-2.9
'0:04.547',-2.62
'0:04.551',-2.53
'0:04.555',-2.55
'0:04.559',-2.37
'0:04.563',-2.12
'0:04.566',-2
'0:04.570',-1.93
'0:04.574',-1.95
'0:04.578',-2.02
'0:04.582',-1.64
'0:04.586',-0.38
'0:04.590',1.66
'0:04.594',4.06
'0:04.598',6.81
'0:04.602',9.61
'0:04.605',10.93
'0:04.609',9.24
'0:04.613',4.5
'0:04.617',-1.44
'0:04.621',-6.14
'0:04.625',-8.79
'0:04.629',-9.36
'0:04.633',-8.32
'0:04.637',-6.6
'0:04.641',-4.92
'0:04.645',-3.68
'0:04.648',-2.89
'0:04.652',-2.29
'0:04.656',-1.77
'0:04.660',-1.32
'0:04.664',-0.98
'0:04.668',-0.64
'0:04.672',-0.41
'0:04.676',-0.13
'0:04.680',0.29
'0:04.684',0.53
'0:04.688',0.63
'0:04.691',0.72
'0:04.695',0.9
'0:04.699',1.03
'0:04.703',1.04
'0:04.707',1.05
'0:04.711',1.41
'0:04.715',1.86
'0:04.719',2.21
'0:04.723',2.44
'0:04.727',2.57
'0:04.730',2.78
'0:04.734',3.13
'0:04.738',3.51
'0:04.742',3.87
'0:04.746',4.17
'0:04.750',4.42
'0:04.754',4.6
'0:04.758',4.69
'0:04.762',4.74
'0:04.766',4.75
'0:04.770',4.74
'0:04.773',4.52
'0:04.777',4.15
'0:04.781',3.83
'0:04.785',3.46
'0:04.789',2.95
'0:04.793',2.4
'0:04.797',1.67
'0:04.801',0.83
'0:04.805',0.24
'0:04.809',-0.27
'0:04.813',-0.73
'0:04.816',-1.16
'0:04.820',-1.34
'0:04.824',-1.26
'0:04.828',-1.14
'0:04.832',-1.08
'0:04.836',-1
'0:04.840',-0.85
'0:04.844',-0.64
'0:04.848',-0.3
'0:04.852',-0.15
'0:04.855',0.04
'0:04.859',0.4
'0:04.863',0.71
'0:04.867',0.78
'0:04.871',0.63
'0:04.875',0.31
'0:04.879',-0.05
'0:04.883',-0.12
'0:04.887',-0.19
'0:04.891',-0.24
'0:04.895',-0.47
'0:04.898',-0.95
'0:04.902',-1.46
'0:04.906',-2.14
'0:04.910',-2.67
'0:04.914',-3.05
'0:04.918',-3.41
'0:04.922',-3.66
'0:04.926',-3.74
'0:04.930',-3.47
'0:04.934',-3.28
'0:04.938',-3.19
'0:04.941',-3.15
'0:04.945',-3.09
'0:04.949',-2.94
'0:04.953',-2.65
'0:04.957',-2.58
'0:04.961',-2.48
'0:04.965',-2.24
'0:04.969',-2.11
'0:04.973',-2.29
'0:04.977',-2.5
'0:04.980',-2.7
'0:04.984',-2.45
'0:04.988',-1.38
'0:04.992',0.55
'0:04.996',2.83
'0:05.000',5.28
'0:05.004',7.89
'0:05.008',9.78
'0:05.012',9.68
'0:05.016',6.44
'0:05.020',0.87
'0:05.023',-4.39
'0:05.027',-7.95
'0:05.031',-9.85
'0:05.035',-9.7
'0:05.039',-8
'0:05.043',-5.95
'0:05.047',-4.4
'0:05.051',-3.33
'0:05.055',-2.49
'0:05.059',-1.76
'0:05.063',-1.34
'0:05.066',-1.11
'0:05.070',-0.72
'0:05.074',-0.25
'0:05.078',-0.04
'0:05.082',0
'0:05.086',0.11
'0:05.090',0.38
'0:05.094',0.62
'0:05.098',0.74
'0:05.102',1.03
'0:05.105',1.19
'0:05.109',1.38
'0:05.113',1.51
'0:05.117',1.57
'0:05.121',1.74
'0:05.125',1.9
'0:05.129',2.02
'0:05.133',2.13
'0:05.137',2.53
'0:05.141',3.2
'0:05.145',3.87
'0:05.148',4.21
'0:05.152',4.22
'0:05.156',4.37
'0:05.160',4.51
'0:05.164',4.58
'0:05.168',4.61
'0:05.172',4.57
'0:05.176',4.48
'0:05.180',4.35
'0:05.184',4
'0:05.188',3.43
'0:05.191',2.7
'0:05.195',2.05
'0:05.199',1.62
'0:05.203',1.21
'0:05.207',0.79
'0:05.211',0.28
'0:05.215',-0.21
'0:05.219',-0.62
'0:05.223',-0.93
'0:05.227',-0.97
'0:05.230',-0.92
'0:05.234',-0.9
'0:05.238',-0.8
'0:05.242',-0.57
'0:05.246',-0.23
'0:05.250',0.2
'0:05.254',0.41
'0:05.258',0.45
'0:05.262',0.64
'0:05.266',0.86
'0:05.270',0.8
'0:05.273',0.58
'0:05.277',0.37
'0:05.281',0.17
'0:05.285',-0.05
'0:05.289',-0.22
'0:05.293',-0.5
'0:05.297',-0.96
'0:05.301',-1.52
'0:05.305',-2.16
'0:05.309',-2.75
'0:05.313',-3.15
'0:05.316',-3.38
'0:05.320',-3.47
'0:05.324',-3.58
'0:05.328',-3.67
'0:05.332',-3.59
'0:05.336',-3.5
'0:05.340',-3.33
'0:05.344',-3.09
'0:05.348',-3.07
'0:05.352',-3.18
'0:05.355',-3.14
'0:05.359',-2.92
'0:05.363',-2.82
'0:05.367',-2.68
'0:05.371',-2.51
'0:05.375',-2.43
'0:05.379',-2.43
'0:05.383',-2.2
'0:05.387',-1.3
'0:05.391',0.29
'0:05.395',2.33
'0:05.398',4.88
'0:05.402',7.78
'0:05.406',10.23
'0:05.410',10.52
'0:05.414',7.21
'0:05.418',1.34
'0:05.422',-4.17
'0:05.426',-7.95
'0:05.430',-9.76
'0:05.434',-9.7
'0:05.438',-8.4
'0:05.441',-6.66
'0:05.445',-5
'0:05.449',-3.73
'0:05.453',-2.85
'0:05.457',-2.17
'0:05.461',-1.69
'0:05.465',-1.33
'0:05.469',-0.97
'0:05.473',-0.67
'0:05.477',-0.35
'0:05.480',-0.18
'0:05.484',-0.14
'0:05.488',-0.02
'0:05.492',0.29
'0:05.496',0.54
'0:05.500',0.79
'0:05.504',1.03
'0:05.508',1.26
'0:05.512',1.37
'0:05.516',1.64
'0:05.520',1.77
'0:05.523',1.92
'0:05.527',2.08
'0:05.531',2.18
'0:05.535',2.4
'0:05.539',2.89
'0:05.543',3.35
'0:05.547',3.74
'0:05.551',4.21
'0:05.555',4.41
'0:05.559',4.61
'0:05.563',5.16
'0:05.566',5.27
'0:05.570',4.71
'0:05.574',4.22
'0:05.578',3.93
'0:05.582',3.6
'0:05.586',3.52
'0:05.590',3.23
'0:05.594',2.51
'0:05.598',1.8
'0:05.602',1.01
'0:05.605',0.32
'0:05.609',-0.31
'0:05.613',-0.81
'0:05.617',-1.21
'0:05.621',-1.44
'0:05.625',-1.43
'0:05.629',-1.45
'0:05.633',-1.53
'0:05.637',-1.39
'0:05.641',-0.6
'0:05.645',-0.08
'0:05.648',-0.09
'0:05.652',-0.23
'0:05.656',-0.49
'0:05.660',-0.64
'0:05.664',-0.4
'0:05.668',-0.12
'0:05.672',-0.23
'0:05.676',-0.55
'0:05.680',-0.73
'0:05.684',-0.67
'0:05.688',-0.44
'0:05.691',-0.8
'0:05.695',-1.68
'0:05.699',-2.41
'0:05.703',-2.92
'0:05.707',-3.46
'0:05.711',-3.99
'0:05.715',-4.23
'0:05.719',-4.12
'0:05.723',-4.29
'0:05.727',-4.48
'0:05.730',-4.35
'0:05.734',-4.13
'0:05.738',-4.02
'0:05.742',-3.84
'0:05.746',-3.62
'0:05.750',-3.5
'0:05.754',-3.25
'0:05.758',-2.97
'0:05.762',-2.7
'0:05.766',-2.6
'0:05.770',-2.63
'0:05.773',-2.44
'0:05.777',-2.15
'0:05.781',-1.5
'0:05.785',0
'0:05.789',2.19
'0:05.793',4.29
'0:05.797',6.61
'0:05.801',8.88
'0:05.805',10.1
'0:05.809',8.56
'0:05.813',3.94
'0:05.816',-1.78
'0:05.820',-6.2
'0:05.824',-8.65
'0:05.828',-9.01
'0:05.832',-7.93
'0:05.836',-6.3
'0:05.840',-4.83
'0:05.844',-3.81
'0:05.848',-3.37
'0:05.852',-2.9
'0:05.855',-2.35
'0:05.859',-1.9
'0:05.863',-1.37
'0:05.867',-0.85
'0:05.871',-0.45
'0:05.875',-0.21
'0:05.879',-0.09
'0:05.883',-0.01
'0:05.887',0.14
'0:05.891',0.33
'0:05.895',0.49
'0:05.898',0.69
'0:05.902',0.95
'0:05.906',1.2
'0:05.910',1.51
'0:05.914',1.73
'0:05.918',1.73
'0:05.922',1.82
'0:05.926',2.27
'0:05.930',2.85
'0:05.934',3.27
'0:05.938',3.61
'0:05.941',3.93
'0:05.945',4.17
'0:05.949',4.27
'0:05.953',4.28
'0:05.957',4.4
'0:05.961',4.54
'0:05.965',4.53
'0:05.969',4.43
'0:05.973',4.46
'0:05.977',4.33
'0:05.980',4
'0:05.984',3.49
'0:05.988',2.93
'0:05.992',2.37
'0:05.996',1.58
'0:06.000',0.98
'0:06.004',0.42
'0:06.008',-0.04
'0:06.012',-0.25
'0:06.016',-0.36
'0:06.020',-0.35
'0:06.023',-0.2
'0:06.027',0.05
'0:06.031',0.21
'0:06.035',0.4
'0:06.039',0.58
'0:06.043',0.63
'0:06.047',0.74
'0:06.051',0.9
'0:06.055',0.99
'0:06.059',1.1
'0:06.063',1.17
'0:06.066',1.1
'0:06.070',0.93
'0:06.074',0.91
'0:06.078',0.95
'0:06.082',0.82
'0:06.086',0.42
'0:06.090',-0.16
'0:06.094',-0.82
'0:06.098',-1.5
'0:06.102',-2.09
'0:06.105',-2.6
'0:06.109',-2.81
'0:06.113',-2.87
'0:06.117',-2.85
'0:06.121',-2.85
'0:06.125',-2.79
'0:06.129',-2.74
'0:06.133',-2.68
'0:06.137',-2.6
'0:06.141',-2.56
'0:06.145',-2.44
'0:06.148',-2.29
'0:06.152',-2.22
'0:06.156',-2.04
'0:06.160',-1.81
'0:06.164',-1.68
'0:06.168',-1.85
'0:06.172',-2.04
'0:06.176',-1.64
'0:06.180',-0.29
'0:06.184',1.8
'0:06.188',4.22
'0:06.191',6.96
'0:06.195',9.64
'0:06.199',10.96
'0:06.203',9.28
'0:06.207',4.52
'0:06.211',-1.38
'0:06.215',-6.02
'0:06.219',-8.69
'0:06.223',-9.48
'0:06.227',-8.74
'0:06.230',-7.01
'0:06.234',-5.23
'0:06.238',-3.85
'0:06.242',-2.83
'0:06.246',-2.07
'0:06.250',-1.52
'0:06.254',-1.23
'0:06.258',-1.03
'0:06.262',-0.84
'0:06.266',-0.65
'0:06.270',-0.48
'0:06.273',-0.22
'0:06.277',0.14
'0:06.281',0.48
'0:06.285',0.64
'0:06.289',0.81
'0:06.293',0.97
'0:06.297',1.13
'0:06.301',1.37
'0:06.305',1.49
'0:06.309',1.59
'0:06.313',1.82
'0:06.316',2.01
'0:06.320',2.43
'0:06.324',2.89
'0:06.328',3.2
'0:06.332',3.54
'0:06.336',3.85
'0:06.340',4.16
'0:06.344',4.41
'0:06.348',4.51
'0:06.352',4.52
'0:06.355',4.59
'0:06.359',4.66
'0:06.363',4.71
'0:06.367',4.54
'0:06.371',4.24
'0:06.375',3.91
'0:06.379',3.43
'0:06.383',2.78
'0:06.387',2.14
'0:06.391',1.45
'0:06.395',0.9
'0:06.398',0.41
'0:06.402',0.13
'0:06.406',-0.15
'0:06.410',-0.44
'0:06.414',-0.52
'0:06.418',-0.44
'0:06.422',-0.49
'0:06.426',-0.63
'0:06.430',-0.6
'0:06.434',-0.34
'0:06.438',0.1
'0:06.441',0.36
'0:06.445',0.29
'0:06.449',0.18
'0:06.453',0.23
'0:06.457',0.46
'0:06.461',0.67
'0:06.465',0.65
'0:06.469',0.22
'0:06.473',-0.35
'0:06.477',-0.41
'0:06.480',-0.48
'0:06.484',-0.85
'0:06.488',-1.52
'0:06.492',-2.2
'0:06.496',-2.65
'0:06.500',-2.85
'0:06.504',-2.99
'0:06.508',-3.09
'0:06.512',-3
'0:06.516',-2.99
'0:06.520',-2.94
'0:06.523',-2.98
'0:06.527',-3.11
'0:06.531',-2.89
'0:06.535',-2.63
'0:06.539',-2.76
'0:06.543',-2.86
'0:06.547',-2.97
'0:06.551',-2.8
'0:06.555',-2.58
'0:06.559',-2.51
'0:06.563',-2.53
'0:06.566',-2.47
'0:06.570',-2.26
'0:06.574',-1.89
'0:06.578',-0.52
'0:06.582',1.8
'0:06.586',4.48
'0:06.590',7.26
'0:06.594',9.69
'0:06.598',9.97
'0:06.602',7.32
'0:06.605',2.41
'0:06.609',-3.18
'0:06.613',-7.58
'0:06.617',-9.91
'0:06.621',-10.01
'0:06.625',-8.8
'0:06.629',-7.06
'0:06.633',-5.47
'0:06.637',-4.29
'0:06.641',-3.4
'0:06.645',-2.7
'0:06.648',-2.25
'0:06.652',-1.9
'0:06.656',-1.62
'0:06.660',-1.3
'0:06.664',-1.11
'0:06.668',-0.95
'0:06.672',-0.48
'0:06.676',0.02
'0:06.680',0.18
'0:06.684',-0.05
'0:06.688',-0.04
'0:06.691',0.11
'0:06.695',0.31
'0:06.699',0.58
'0:06.703',0.85
'0:06.707',1.2
'0:06.711',1.46
'0:06.715',1.85
'0:06.719',2.02
'0:06.723',2.01
'0:06.727',2.38
'0:06.730',2.75
'0:06.734',3.09
'0:06.738',3.64
'0:06.742',4.16
'0:06.746',4.47
'0:06.750',4.62
'0:06.754',4.78
'0:06.758',4.67
'0:06.762',4.38
'0:06.766',4.11
'0:06.770',3.87
'0:06.773',3.57
'0:06.777',3.13
'0:06.781',2.6
'0:06.785',1.91
'0:06.789',1.13
'0:06.793',0.38
'0:06.797',-0.25
'0:06.801',-0.65
'0:06.805',-0.85
'0:06.809',-0.77
'0:06.813',-0.72
'0:06.816',-0.78
'0:06.820',-0.77
'0:06.824',-0.63
'0:06.828',-0.39
'0:06.832',0.01
'0:06.836',0.37
'0:06.840',0.47
'0:06.844',0.51
'0:06.848',0.59
'0:06.852',0.89
'0:06.855',1.24
'0:06.859',1.13
'0:06.863',0.78
'0:06.867',0.55
'0:06.871',0.46
'0:06.875',0.34
'0:06.879',0.06
'0:06.883',-0.46
'0:06.887',-1.16
'0:06.891',-1.78
'0:06.895',-2.26
'0:06.898',-2.59
'0:06.902',-2.79
'0:06.906',-2.92
'0:06.910',-2.99
'0:06.914',-3.05
'0:06.918',-3.07
'0:06.922',-2.97
'0:06.926',-2.9
'0:06.930',-2.85
'0:06.934',-2.94
'0:06.938',-2.99
'0:06.941',-2.53
'0:06.945',-2.08
'0:06.949',-1.84
'0:06.953',-1.89
'0:06.957',-2.05
'0:06.961',-2.38
'0:06.965',-2.58
'0:06.969',-2.37
'0:06.973',-1.49
'0:06.977',0.32
'0:06.980',2.74
'0:06.984',5.48
'0:06.988',8.35
'0:06.992',10.45
'0:06.996',10.21
'0:07.000',6.62
'0:07.004',0.69
'0:07.008',-4.85
'0:07.012',-8.52
'0:07.016',-10.07
'0:07.020',-9.66
'0:07.023',-8.01
'0:07.027',-6.17
'0:07.031',-4.62
'0:07.035',-3.46
'0:07.039',-2.64
'0:07.043',-2.04
'0:07.047',-1.59
'0:07.051',-1.28
'0:07.055',-1.01
'0:07.059',-0.73
'0:07.063',-0.28
'0:07.066',0.04
'0:07.070',0.18
'0:07.074',0.22
'0:07.078',0.22
'0:07.082',0.39
'0:07.086',0.65
'0:07.090',0.78
'0:07.094',0.85
'0:07.098',1.23
'0:07.102',1.59
'0:07.105',1.88
'0:07.109',2.18
'0:07.113',2.36
'0:07.117',2.59
'0:07.121',2.93
'0:07.125',3.37
'0:07.129',3.81
'0:07.133',3.9
'0:07.137',3.85
'0:07.141',3.92
'0:07.145',4.29
'0:07.148',4.52
'0:07.152',4.66
'0:07.156',4.7
'0:07.160',4.61
'0:07.164',4.37
'0:07.168',3.98
'0:07.172',3.32
'0:07.176',2.69
'0:07.180',2.2
'0:07.184',1.62
'0:07.188',0.93
'0:07.191',0.42
'0:07.195',0.08
'0:07.199',-0.34
'0:07.203',-0.69
'0:07.207',-0.89
'0:07.211',-1.08
'0:07.215',-0.89
'0:07.219',-0.28
'0:07.223',0
'0:07.227',-0.15
'0:07.230',-0.31
'0:07.234',-0.16
'0:07.238',0.17
'0:07.242',0.78
'0:07.246',1.14
'0:07.250',0.85
'0:07.254',0.33
'0:07.258',0.1
'0:07.262',-0.01
'0:07.266',-0.18
'0:07.270',-0.35
'0:07.273',-0.65
'0:07.277',-1.02
'0:07.281',-1.47
'0:07.285',-2.05
'0:07.289',-2.73
'0:07.293',-3.27
'0:07.297',-3.49
'0:07.301',-3.38
'0:07.305',-3.63
'0:07.309',-3.95
'0:07.313',-4.22
'0:07.316',-4.25
'0:07.320',-3.96
'0:07.324',-3.35
'0:07.328',-3.01
'0:07.332',-2.71
'0:07.336',-2.38
'0:07.340',-2.44
'0:07.344',-2.77
'0:07.348',-2.77
'0:07.352',-2.62
'0:07.355',-2.45
'0:07.359',-2.1
'0:07.363',-1.54
'0:07.367',-0.59
'0:07.371',1.1
'0:07.375',3.23
'0:07.379',5.71
'0:07.383',8.33
'0:07.387',10.04
'0:07.391',9.64
'0:07.395',5.99
'0:07.398',0.2
'0:07.402',-4.9
'0:07.406',-8.17
'0:07.410',-9.85
'0:07.414',-9.82
'0:07.418',-8.52
'0:07.422',-6.89
'0:07.426',-5.36
'0:07.430',-4.06
'0:07.434',-3.45
'0:07.438',-2.8
'0:07.441',-2.11
'0:07.445',-1.61
'0:07.449',-1.24
'0:07.453',-0.94
'0:07.457',-0.85
'0:07.461',-1.01
'0:07.465',-1.03
'0:07.469',-0.65
'0:07.473',-0.02
'0:07.477',0.33
'0:07.480',0.41
'0:07.484',0.28
'0:07.488',0.22
'0:07.492',0.44
'0:07.496',0.79
'0:07.500',0.93
'0:07.504',0.84
'0:07.508',1.01
'0:07.512',1.36
'0:07.516',1.95
'0:07.520',2.73
'0:07.523',3.24
'0:07.527',3.49
'0:07.531',3.82
'0:07.535',4.13
'0:07.539',4.12
'0:07.543',3.88
'0:07.547',3.65
'0:07.551',3.46
'0:07.555',3.32
'0:07.559',3.09
'0:07.563',2.76
'0:07.566',2.21
'0:07.570',1.67
'0:07.574',1.11
'0:07.578',0.43
'0:07.582',0.05
'0:07.586',-0.05
'0:07.590',-0.3
'0:07.594',-0.5
'0:07.598',-0.38
'0:07.602',-0.29
'0:07.605',-0.42
'0:07.609',-0.48
'0:07.613',-0.46
'0:07.617',-0.48
'0:07.621',-0.49
'0:07.625',-0.1
'0:07.629',0.25
'0:07.633',0.56
'0:07.637',0.92
'0:07.641',1.18
'0:07.645',1.41
'0:07.648',1.47
'0:07.652',1.37
'0:07.656',1.34
'0:07.660',1.27
'0:07.664',1.18
'0:07.668',1.08
'0:07.672',0.63
'0:07.676',-0.06
'0:07.680',-0.75
'0:07.684',-1.31
'0:07.688',-1.75
'0:07.691',-2.08
'0:07.695',-2.37
'0:07.699',-2.53
'0:07.703',-2.65
'0:07.707',-2.73
'0:07.711',-2.73
'0:07.715',-2.57
'0:07.719',-2.31
'0:07.723',-2.08
'0:07.727',-1.88
'0:07.730',-1.83
'0:07.734',-1.97
'0:07.738',-2.05
'0:07.742',-2.01
'0:07.746',-1.91
'0:07.750',-1.83
'0:07.754',-1.8
'0:07.758',-1.66
'0:07.762',-1
'0:07.766',0.55
'0:07.770',2.77
'0:07.773',5.29
'0:07.777',7.99
'0:07.781',10.25
'0:07.785',10.53
'0:07.789',7.78
'0:07.793',2.44
'0:07.797',-3.19
'0:07.801',-7.22
'0:07.805',-9.15
'0:07.809',-9.29
'0:07.813',-8.3
'0:07.816',-6.64
'0:07.820',-5.04
'0:07.824',-3.93
'0:07.828',-3.2
'0:07.832',-2.62
'0:07.836',-2.06
'0:07.840',-1.6
'0:07.844',-1.35
'0:07.848',-1.13
'0:07.852',-1.01
'0:07.855',-0.73
'0:07.859',-0.34
'0:07.863',-0.09
'0:07.867',0.2
'0:07.871',0.52
'0:07.875',0.77
'0:07.879',0.98
'0:07.883',1.11
'0:07.887',1.16
'0:07.891',1.26
'0:07.895',1.47
'0:07.898',1.78
'0:07.902',2.19
'0:07.906',2.5
'0:07.910',2.59
'0:07.914',2.84
'0:07.918',3.24
'0:07.922',3.7
'0:07.926',3.96
'0:07.930',4.13
'0:07.934',4.29
'0:07.938',4.47
'0:07.941',4.53
'0:07.945',4.46
'0:07.949',4.32
'0:07.953',4.15
'0:07.957',3.96
'0:07.961',3.63
'0:07.965',3.09
'0:07.969',2.48
'0:07.973',1.86
'0:07.977',1.37
'0:07.980',0.84
'0:07.984',0.44
'0:07.988',0.13
'0:07.992',-0.22
'0:07.996',-0.43
'0:08.000',-0.4
'0:08.004',-0.31
'0:08.008',-0.31
'0:08.012',-0.31
'0:08.016',-0.18
'0:08.020',0.17
'0:08.023',0.63
'0:08.027',0.94
'0:08.031',0.99
'0:08.035',1.24
'0:08.039',1.39
'0:08.043',1.1
'0:08.047',0.73
'0:08.051',0.52
'0:08.055',0.27
'0:08.059',-0.19
'0:08.063',-0.39
'0:08.066',-0.57
'0:08.070',-0.87
'0:08.074',-1.47
'0:08.078',-2.08
'0:08.082',-2.51
'0:08.086',-2.87
'0:08.090',-3.13
'0:08.094',-3.1
'0:08.098',-3.09
'0:08.102',-3.23
'0:08.105',-3.26
'0:08.109',-3.09
'0:08.113',-2.73
'0:08.117',-2.6
'0:08.121',-2.65
'0:08.125',-2.66
'0:08.129',-2.55
'0:08.133',-2.27
'0:08.137',-2.13
'0:08.141',-2.17
'0:08.145',-2.12
'0:08.148',-2.12
'0:08.152',-1.75
'0:08.156',-0.49
'0:08.160',1.52
'0:08.164',4
'0:08.168',6.88
'0:08.172',9.68
'0:08.176',10.65
'0:08.180',8.51
'0:08.184',3.66
'0:08.188',-2.01
'0:08.191',-6.52
'0:08.195',-9.14
'0:08.199',-9.73
'0:08.203',-8.88
'0:08.207',-7.24
'0:08.211',-5.62
'0:08.215',-4.49
'0:08.219',-3.81
'0:08.223',-3.13
'0:08.227',-2.68
'0:08.230',-2.36
'0:08.234',-2.01
'0:08.238',-1.69
'0:08.242',-1.4
'0:08.246',-1.3
'0:08.250',-1.15
'0:08.254',-0.94
'0:08.258',-0.67
'0:08.262',-0.49
'0:08.266',-0.31
'0:08.270',0.03
'0:08.273',0.15
'0:08.277',0.31
'0:08.281',0.5
'0:08.285',0.67
'0:08.289',0.79
'0:08.293',0.89
'0:08.297',1.06
'0:08.301',1.22
'0:08.305',1.56
'0:08.309',2.15
'0:08.313',2.63
'0:08.316',2.71
'0:08.320',2.72
'0:08.324',2.96
'0:08.328',3.28
'0:08.332',3.4
'0:08.336',3.39
'0:08.340',3.36
'0:08.344',3.45
'0:08.348',3.45
'0:08.352',3.19
'0:08.355',2.71
'0:08.359',2.1
'0:08.363',1.44
'0:08.367',0.77
'0:08.371',0.2
'0:08.375',-0.17
'0:08.379',-0.45
'0:08.383',-0.71
'0:08.387',-0.93
'0:08.391',-1.27
'0:08.395',-1.54
'0:08.398',-1.42
'0:08.402',-1.24
'0:08.406',-1.22
'0:08.410',-1.06
'0:08.414',-0.85
'0:08.418',-0.65
'0:08.422',-0.47
'0:08.426',-0.33
'0:08.430',-0.04
'0:08.434',0.16
'0:08.438',0.34
'0:08.441',0.31
'0:08.445',0.16
'0:08.449',-0.08
'0:08.453',-0.36
'0:08.457',-0.62
'0:08.461',-0.84
'0:08.465',-1.03
'0:08.469',-1.27
'0:08.473',-1.67
'0:08.477',-2.26
'0:08.480',-2.55
'0:08.484',-2.83
'0:08.488',-3.04
'0:08.492',-2.98
'0:08.496',-2.87
'0:08.500',-2.87
'0:08.504',-2.78
'0:08.508',-2.62
'0:08.512',-2.38
'0:08.516',-2.09
'0:08.520',-1.83
'0:08.523',-1.57
'0:08.527',-1.43
'0:08.531',-1.29
'0:08.535',-1.22
'0:08.539',-1.13
'0:08.543',-1.21
'0:08.547',-1.45
'0:08.551',-1.31
'0:08.555',-0.62
'0:08.559',0.89
'0:08.563',3.09
'0:08.566',5.55
'0:08.570',8.39
'0:08.574',10.7
'0:08.578',10.9
'0:08.582',8.16
'0:08.586',2.95
'0:08.590',-2.42
'0:08.594',-6.22
'0:08.598',-8.04
'0:08.602',-8.08
'0:08.605',-7.02
'0:08.609',-5.54
'0:08.613',-4.08
'0:08.617',-2.94
'0:08.621',-2.08
'0:08.625',-1.61
'0:08.629',-1.37
'0:08.633',-1.1
'0:08.637',-0.74
'0:08.641',-0.21
'0:08.645',0.2
'0:08.648',0.32
'0:08.652',0.36
'0:08.656',0.36
'0:08.660',0.5
'0:08.664',0.74
'0:08.668',0.89
'0:08.672',1.06
'0:08.676',1.26
'0:08.680',1.48
'0:08.684',1.68
'0:08.688',1.7
'0:08.691',1.86
'0:08.695',2.13
'0:08.699',2.41
'0:08.703',2.71
'0:08.707',2.98
'0:08.711',3.21
'0:08.715',3.49
'0:08.719',3.93
'0:08.723',4.25
'0:08.727',4.5
'0:08.730',4.67
'0:08.734',4.86
'0:08.738',5
'0:08.742',4.97
'0:08.746',4.97
'0:08.750',4.97
'0:08.754',4.97
'0:08.758',4.97
'0:08.762',3.47
'0:08.766',2.01
'0:08.770',1.4
'0:08.773',1.08
'0:08.777',0.78
'0:08.781',0.48
'0:08.785',0.26
'0:08.789',0.15
'0:08.793',0.06
'0:08.797',0
'0:08.801',0.07
'0:08.805',0.19
'0:08.809',0.39
'0:08.813',0.69
'0:08.816',1.01
'0:08.820',1.21
'0:08.824',1.38
'0:08.828',1.48
'0:08.832',1.4
'0:08.836',1.27
'0:08.840',1.22
'0:08.844',1.2
'0:08.848',1.03
'0:08.852',0.82
'0:08.855',0.35
'0:08.859',-0.35
'0:08.863',-1.09
'0:08.867',-1.83
'0:08.871',-2.32
'0:08.875',-2.68
'0:08.879',-2.95
'0:08.883',-3.02
'0:08.887',-3.05
'0:08.891',-2.86
'0:08.895',-2.87
'0:08.898',-2.99
'0:08.902',-2.91
'0:08.906',-2.76
'0:08.910',-2.61
'0:08.914',-2.69
'0:08.918',-2.79
'0:08.922',-2.61
'0:08.926',-2.43
'0:08.930',-1.93
'0:08.934',-1.79
'0:08.938',-2.3
'0:08.941',-2.84
'0:08.945',-2.55
'0:08.949',-1.12
'0:08.953',1.3
'0:08.957',4.11
'0:08.961',6.95
'0:08.965',9.19
'0:08.969',9.87
'0:08.973',7.74
'0:08.977',2.65
'0:08.980',-3.21
'0:08.984',-7.57
'0:08.988',-9.8
'0:08.992',-10.22
'0:08.996',-9.28
'0:09.000',-7.69
'0:09.004',-6.09
'0:09.008',-4.56
'0:09.012',-3.39
'0:09.016',-2.57
'0:09.020',-2.04
'0:09.023',-1.7
'0:09.027',-1.26
'0:09.031',-1.09
'0:09.035',-1.05
'0:09.039',-0.96
'0:09.043',-0.83
'0:09.047',-0.64
'0:09.051',-0.33
'0:09.055',0.06
'0:09.059',0.29
'0:09.063',0.43
'0:09.066',0.58
'0:09.070',0.72
'0:09.074',0.92
'0:09.078',1.2
'0:09.082',1.54
'0:09.086',1.92
'0:09.090',2.12
'0:09.094',2.22
'0:09.098',2.31
'0:09.102',2.58
'0:09.105',2.7
'0:09.109',2.93
'0:09.113',3.27
'0:09.117',3.45
'0:09.121',3.61
'0:09.125',3.7
'0:09.129',3.91
'0:09.133',3.78
'0:09.137',3.29
'0:09.141',3.02
'0:09.145',2.96
'0:09.148',2.45
'0:09.152',1.76
'0:09.156',1.13
'0:09.160',0.47
'0:09.164',0.27
'0:09.168',0.09
'0:09.172',-0.54
'0:09.176',-1.28
'0:09.180',-1.53
'0:09.184',-1.28
'0:09.188',-1.17
'0:09.191',-1.22
'0:09.195',-1.04
'0:09.199',-0.83
'0:09.203',-0.73
'0:09.207',-0.68
'0:09.211',-0.51
'0:09.215',0.03
'0:09.219',0.19
'0:09.223',0.43
'0:09.227',0.3
'0:09.230',0.04
'0:09.234',-0.06
'0:09.238',0.01
'0:09.242',-0.07
'0:09.246',0.11
'0:09.250',0.25
'0:09.254',-0.21
'0:09.258',-1.38
'0:09.262',-2.33
'0:09.266',-2.67
'0:09.270',-3.04
'0:09.273',-3.61
'0:09.277',-3.33
'0:09.281',-3.14
'0:09.285',-3.2
'0:09.289',-3.67
'0:09.293',-3.67
'0:09.297',-2.94
'0:09.301',-2.75
'0:09.305',-3.46
'0:09.309',-3.45
'0:09.313',-3.07
'0:09.316',-2.44
'0:09.320',-1.84
'0:09.324',-1.67
'0:09.328',-1.86
'0:09.332',-1.99
'0:09.336',-1.98
'0:09.340',-1.42
'0:09.344',0.13
'0:09.348',1.75
'0:09.352',3.32
'0:09.355',5.5
'0:09.359',8.29
'0:09.363',10.29
'0:09.367',9.54
'0:09.371',5.2
'0:09.375',-0.68
'0:09.379',-5.59
'0:09.383',-8.73
'0:09.387',-9.75
'0:09.391',-9.25
'0:09.395',-8.09
'0:09.398',-6.14
'0:09.402',-4.33
'0:09.406',-3.27
'0:09.410',-2.26
'0:09.414',-1.61
'0:09.418',-1.05
'0:09.422',-0.94
'0:09.426',-1.07
'0:09.430',-0.63
'0:09.434',-0.65
'0:09.438',-0.64
'0:09.441',-0.42
'0:09.445',-0.22
'0:09.449',0.17
'0:09.453',0.39
'0:09.457',0.21
'0:09.461',0.38
'0:09.465',0.81
'0:09.469',1.07
'0:09.473',0.75
'0:09.477',0.63
'0:09.480',1.06
'0:09.484',1.75
'0:09.488',1.92
'0:09.492',1.53
'0:09.496',1.53
'0:09.500',2.02
'0:09.504',2.77
'0:09.508',2.76
'0:09.512',2.67
'0:09.516',2.94
'0:09.520',3.07
'0:09.523',2.94
'0:09.527',2.86
'0:09.531',2.69
'0:09.535',2.82
'0:09.539',2.89
'0:09.543',2.19
'0:09.547',1.14
'0:09.551',0.49
'0:09.555',-0.07
'0:09.559',-0.43
'0:09.563',-0.59
'0:09.566',-0.93
'0:09.570',-1.19
'0:09.574',-1.15
'0:09.578',-1.05
'0:09.582',-0.84
'0:09.586',-0.59
'0:09.590',-0.39
'0:09.594',-0.34
'0:09.598',-0.15
'0:09.602',0.09
'0:09.605',0.25
'0:09.609',0.35
'0:09.613',0.5
'0:09.617',0.78
'0:09.621',1.09
'0:09.625',1.22
'0:09.629',1.16
'0:09.633',1.07
'0:09.637',1.1
'0:09.641',1.1
'0:09.645',0.89
'0:09.648',0.54
'0:09.652',0.08
'0:09.656',-0.45
'0:09.660',-1.3
'0:09.664',-2.13
'0:09.668',-2.72
'0:09.672',-3.14
'0:09.676',-3.4
'0:09.680',-3.48
'0:09.684',-3.44
'0:09.688',-3.27
'0:09.691',-3.06
'0:09.695',-2.85
'0:09.699',-2.69
'0:09.703',-2.53
'0:09.707',-2.35
'0:09.711',-2.15
'0:09.715',-2.03
'0:09.719',-2
'0:09.723',-1.94
'0:09.727',-2.02
'0:09.730',-1.96
'0:09.734',-1.7
'0:09.738',-1.11
'0:09.742',0.09
'0:09.746',2.13
'0:09.750',4.55
'0:09.754',7.08
'0:09.758',9.43
'0:09.762',10.59
'0:09.766',8.86
'0:09.770',4.12
'0:09.773',-1.49
'0:09.777',-5.8
'0:09.781',-8.2
'0:09.785',-8.78
'0:09.789',-7.98
'0:09.793',-6.53
'0:09.797',-5.11
'0:09.801',-3.86
'0:09.805',-2.73
'0:09.809',-1.84
'0:09.813',-1.35
'0:09.816',-1.26
'0:09.820',-1.18
'0:09.824',-0.79
'0:09.828',-0.49
'0:09.832',-0.32
'0:09.836',-0.16
'0:09.840',0.04
'0:09.844',0.24
'0:09.848',0.52
'0:09.852',0.68
'0:09.855',0.71
'0:09.859',1.01
'0:09.863',1.43
'0:09.867',1.58
'0:09.871',1.79
'0:09.875',2.01
'0:09.879',2.16
'0:09.883',2.35
'0:09.887',2.6
'0:09.891',2.91
'0:09.895',3.16
'0:09.898',3.47
'0:09.902',3.89
'0:09.906',4.24
'0:09.910',4.68
'0:09.914',4.97
'0:09.918',4.99
'0:09.922',4.86
'0:09.926',4.64
'0:09.930',4.51
'0:09.934',4.48
'0:09.938',4.19
'0:09.941',3.63
'0:09.945',2.96
'0:09.949',2.24
'0:09.953',1.48
'0:09.957',0.75
'0:09.961',-0.02
'0:09.965',-0.42
'0:09.969',-0.28
'0:09.973',-0.05
'0:09.977',-0.18
'0:09.980',-0.42
'0:09.984',-0.52
'0:09.988',-0.17
'0:09.992',0.14
'0:09.996',0.22
'0:10.000',0.29
'0:10.004',0.52
'0:10.008',0.87
'0:10.012',1.16
'0:10.016',1.37
'0:10.020',1.49
'0:10.023',1
'0:10.027',0.67
'0:10.031',0.6
'0:10.035',0.66
'0:10.039',0.45
'0:10.043',-0.23
'0:10.047',-0.96
'0:10.051',-1.65
'0:10.055',-2.26
'0:10.059',-2.8
'0:10.063',-3.36
'0:10.066',-3.68
'0:10.070',-3.66
'0:10.074',-3.53
'0:10.078',-3.46
'0:10.082',-3.3
'0:10.086',-3.24
'0:10.090',-3.31
'0:10.094',-3.2
'0:10.098',-2.79
'0:10.102',-2.33
'0:10.105',-1.92
'0:10.109',-1.57
'0:10.113',-1.46
'0:10.117',-1.41
'0:10.121',-1.5
'0:10.125',-1.79
'0:10.129',-1.58
'0:10.133',-0.74
'0:10.137',0.74
'0:10.141',2.94
'0:10.145',5.45
'0:10.148',8.07
'0:10.152',10.03
'0:10.156',9.59
'0:10.160',6.17
'0:10.164',0.73
'0:10.168',-4.41
'0:10.172',-7.86
'0:10.176',-9.33
'0:10.180',-9.03
'0:10.184',-7.66
'0:10.188',-6.02
'0:10.191',-4.58
'0:10.195',-3.48
'0:10.199',-2.73
'0:10.203',-2.16
'0:10.207',-1.75
'0:10.211',-1.54
'0:10.215',-1.32
'0:10.219',-1.08
'0:10.223',-1.01
'0:10.227',-0.77
'0:10.230',-0.47
'0:10.234',-0.15
'0:10.238',0.07
'0:10.242',0.26
'0:10.246',0.45
'0:10.250',0.7
'0:10.254',0.97
'0:10.258',1.26
'0:10.262',1.54
'0:10.266',1.79
'0:10.270',1.85
'0:10.273',2.03
'0:10.277',2.35
'0:10.281',2.71
'0:10.285',3.12
'0:10.289',3.43
'0:10.293',3.78
'0:10.297',4.13
'0:10.301',4.26
'0:10.305',4.41
'0:10.309',4.47
'0:10.313',4.51
'0:10.316',4.47
'0:10.320',4.32
'0:10.324',4.11
'0:10.328',3.82
'0:10.332',3.48
'0:10.336',3
'0:10.340',2.28
'0:10.344',1.59
'0:10.348',0.95
'0:10.352',0.3
'0:10.355',-0.27
'0:10.359',-0.61
'0:10.363',-0.89
'0:10.367',-0.96
'0:10.371',-1.13
'0:10.375',-1.17
'0:10.379',-1.07
'0:10.383',-0.93
'0:10.387',-0.69
'0:10.391',-0.46
'0:10.395',-0.34
'0:10.398',-0.26
'0:10.402',-0.08
'0:10.406',0.28
'0:10.410',0.49
'0:10.414',0.65
'0:10.418',0.75
'0:10.422',0.76
'0:10.426',0.65
'0:10.430',0.56
'0:10.434',0.57
'0:10.438',0.45
'0:10.441',0.28
'0:10.445',0.01
'0:10.449',-0.43
'0:10.453',-1.04
'0:10.457',-1.7
'0:10.461',-2.13
'0:10.465',-2.42
'0:10.469',-2.71
'0:10.473',-2.99
'0:10.477',-3.13
'0:10.480',-3.25
'0:10.484',-3.27
'0:10.488',-3.22
'0:10.492',-3.1
'0:10.496',-2.88
'0:10.500',-2.62
'0:10.504',-2.44
'0:10.508',-2.28
'0:10.512',-2.19
'0:10.516',-2.24
'0:10.520',-2.18
'0:10.523',-1.96
'0:10.527',-1.85
'0:10.531',-1.87
'0:10.535',-1.6
'0:10.539',-0.44
'0:10.543',1.53
'0:10.547',3.81
'0:10.551',6.42
'0:10.555',9.27
'0:10.559',10.8
'0:10.563',8.98
'0:10.566',4.17
'0:10.570',-1.52
'0:10.574',-6.08
'0:10.578',-8.74
'0:10.582',-9.25
'0:10.586',-8.09
'0:10.590',-6.28
'0:10.594',-4.41
'0:10.598',-3.11
'0:10.602',-2.51
'0:10.605',-2.06
'0:10.609',-1.8
'0:10.613',-1.6
'0:10.617',-1.32
'0:10.621',-1.09
'0:10.625',-0.75
'0:10.629',-0.42
'0:10.633',-0.18
'0:10.637',0
'0:10.641',0.14
'0:10.645',0.26
'0:10.648',0.49
'0:10.652',0.8
'0:10.656',1.01
'0:10.660',1.28
'0:10.664',1.62
'0:10.668',1.83
'0:10.672',1.99
'0:10.676',2.23
'0:10.680',2.59
'0:10.684',2.82
'0:10.688',3.02
'0:10.691',3.3
'0:10.695',3.69
'0:10.699',3.72
'0:10.703',3.7
'0:10.707',4.01
'0:10.711',4.19
'0:10.715',4.36
'0:10.719',4.41
'0:10.723',4.53
'0:10.727',4.63
'0:10.730',4.29
'0:10.734',3.72
'0:10.738',3.01
'0:10.742',2.35
'0:10.746',1.75
'0:10.750',1.22
'0:10.754',0.66
'0:10.758',-0.03
'0:10.762',-0.66
'0:10.766',-0.96
'0:10.770',-0.91
'0:10.773',-0.66
'0:10.777',-0.78
'0:10.781',-1.2
'0:10.785',-1.36
'0:10.789',-1.18
'0:10.793',-0.92
'0:10.797',-0.62
'0:10.801',-0.32
'0:10.805',-0.22
'0:10.809',0.1
'0:10.813',0.6
'0:10.816',0.8
'0:10.820',0.95
'0:10.824',1.07
'0:10.828',1.01
'0:10.832',0.81
'0:10.836',0.67
'0:10.840',0.4
'0:10.844',0.16
'0:10.848',-0.24
'0:10.852',-0.82
'0:10.855',-1.43
'0:10.859',-2.05
'0:10.863',-2.63
'0:10.867',-3.1
'0:10.871',-3.52
'0:10.875',-3.65
'0:10.879',-3.56
'0:10.883',-3.34
'0:10.887',-3.17
'0:10.891',-2.9
'0:10.895',-2.55
'0:10.898',-2.27
'0:10.902',-2.24
'0:10.906',-2.35
'0:10.910',-2.43
'0:10.914',-2.32
'0:10.918',-2.13
'0:10.922',-1.98
'0:10.926',-1.88
'0:10.930',-1.92
'0:10.934',-1.97
'0:10.938',-1.56
'0:10.941',-0.31
'0:10.945',1.8
'0:10.949',4.33
'0:10.953',6.93
'0:10.957',9.41
'0:10.961',10.42
'0:10.965',8.55
'0:10.969',3.61
'0:10.973',-2.26
'0:10.977',-6.8
'0:10.980',-9.3
'0:10.984',-9.75
'0:10.988',-8.66
'0:10.992',-7.08
'0:10.996',-5.87
'0:11.000',-4.74
'0:11.004',-3.67
'0:11.008',-2.97
'0:11.012',-2.59
'0:11.016',-2.26
'0:11.020',-1.87
'0:11.023',-1.39
'0:11.027',-1.05
'0:11.031',-0.88
'0:11.035',-0.64
'0:11.039',-0.42
'0:11.043',-0.3
'0:11.047',-0.06
'0:11.051',0.19
'0:11.055',0.52
'0:11.059',0.77
'0:11.063',1.03
'0:11.066',1.23
'0:11.070',1.36
'0:11.074',1.48
'0:11.078',1.91
'0:11.082',2.31
'0:11.086',2.53
'0:11.090',2.63
'0:11.094',2.82
'0:11.098',3.13
'0:11.102',3.59
'0:11.105',3.98
'0:11.109',4.03
'0:11.113',3.93
'0:11.117',3.9
'0:11.121',3.97
'0:11.125',4.03
'0:11.129',4.03
'0:11.133',3.65
'0:11.137',3.07
'0:11.141',2.46
'0:11.145',1.88
'0:11.148',1.24
'0:11.152',0.7
'0:11.156',0.29
'0:11.160',-0.15
'0:11.164',-0.52
'0:11.168',-0.86
'0:11.172',-0.9
'0:11.176',-0.62
'0:11.180',-0.84
'0:11.184',-1.12
'0:11.188',-1.25
'0:11.191',-1.17
'0:11.195',-0.95
'0:11.199',-0.7
'0:11.203',-0.53
'0:11.207',-0.48
'0:11.211',-0.27
'0:11.215',0.07
'0:11.219',0.22
'0:11.223',0.45
'0:11.227',0.65
'0:11.230',0.8
'0:11.234',1.14
'0:11.238',0.92
'0:11.242',0.32
'0:11.246',0.05
'0:11.250',-0.06
'0:11.254',-0.67
'0:11.258',-1.53
'0:11.262',-2.17
'0:11.266',-2.73
'0:11.270',-3.13
'0:11.273',-3.13
'0:11.277',-2.51
'0:11.281',-2.32
'0:11.285',-3.02
'0:11.289',-3.3
'0:11.293',-3.08
'0:11.297',-2.84
'0:11.301',-2.67
'0:11.305',-2.59
'0:11.309',-2.31
'0:11.313',-1.86
'0:11.316',-2.01
'0:11.320',-2.08
'0:11.324',-1.65
'0:11.328',-1.46
'0:11.332',-1.57
'0:11.336',-1.33
'0:11.340',-0.64
'0:11.344',0.99
'0:11.348',2.95
'0:11.352',5.09
'0:11.355',7.83
'0:11.359',10.7
'0:11.363',11.59
'0:11.367',8.29
'0:11.371',1.94
'0:11.375',-3.97
'0:11.379',-7.82
'0:11.383',-9.68
'0:11.387',-9.95
'0:11.391',-8.89
'0:11.395',-7.16
'0:11.398',-5.25
'0:11.402',-3.84
'0:11.406',-3.18
'0:11.410',-2.87
'0:11.414',-2.52
'0:11.418',-2.01
'0:11.422',-1.62
'0:11.426',-1.23
'0:11.430',-0.86
'0:11.434',-0.94
'0:11.438',-0.91
'0:11.441',-0.69
'0:11.445',-0.49
'0:11.449',-0.34
'0:11.453',0.07
'0:11.457',0.83
'0:11.461',1.4
'0:11.465',1.54
'0:11.469',1.37
'0:11.473',1.45
'0:11.477',1.68
'0:11.480',1.66
'0:11.484',1.78
'0:11.488',1.95
'0:11.492',2.23
'0:11.496',2.64
'0:11.500',3.13
'0:11.504',3.43
'0:11.508',3.75
'0:11.512',4.08
'0:11.516',4.33
'0:11.520',4.6
'0:11.523',4.85
'0:11.527',4.81
'0:11.531',4.62
'0:11.535',4.11
'0:11.539',3.53
'0:11.543',2.9
'0:11.547',2.19
'0:11.551',1.7
'0:11.555',1.33
'0:11.559',0.82
'0:11.563',0.19
'0:11.566',-0.18
'0:11.570',-0.33
'0:11.574',-0.47
'0:11.578',-0.39
'0:11.582',-0.22
'0:11.586',-0.13
'0:11.590',0.05
'0:11.594',0.26
'0:11.598',0.62
'0:11.602',0.58
'0:11.605',0.44
'0:11.609',0.53
'0:11.613',0.79
'0:11.617',1.11
'0:11.621',1.39
'0:11.625',1.65
'0:11.629',1.68
'0:11.633',1.49
'0:11.637',1.34
'0:11.641',1.2
'0:11.645',1.03
'0:11.648',0.67
'0:11.652',0.23
'0:11.656',-0.27
'0:11.660',-0.88
'0:11.664',-1.52
'0:11.668',-1.92
'0:11.672',-2.02
'0:11.676',-2.02
'0:11.680',-2.3
'0:11.684',-2.62
'0:11.688',-2.8
'0:11.691',-2.66
'0:11.695',-2.54
'0:11.699',-2.48
'0:11.703',-2.48
'0:11.707',-2.67
'0:11.711',-2.77
'0:11.715',-2.66
'0:11.719',-2.32
'0:11.723',-2.04
'0:11.727',-1.73
'0:11.730',-1.7
'0:11.734',-1.78
'0:11.738',-1.48
'0:11.742',-0.26
'0:11.746',1.86
'0:11.750',4.36
'0:11.754',6.96
'0:11.758',9.3
'0:11.762',10.49
'0:11.766',8.98
'0:11.770',4.05
'0:11.773',-1.77
'0:11.777',-6.08
'0:11.781',-8.59
'0:11.785',-9.22
'0:11.789',-8.53
'0:11.793',-7.1
'0:11.797',-5.64
'0:11.801',-4.39
'0:11.805',-3.29
'0:11.809',-2.4
'0:11.813',-1.89
'0:11.816',-1.59
'0:11.820',-1.34
'0:11.824',-0.95
'0:11.828',-0.47
'0:11.832',-0.17
'0:11.836',-0.04
'0:11.840',-0.16
'0:11.844',-0.27
'0:11.848',-0.12
'0:11.852',0.1
'0:11.855',0.31
'0:11.859',0.56
'0:11.863',0.83
'0:11.867',1.07
'0:11.871',1.24
'0:11.875',1.43
'0:11.879',1.75
'0:11.883',2.06
'0:11.887',2.26
'0:11.891',2.46
'0:11.895',2.79
'0:11.898',3.08
'0:11.902',3.22
'0:11.906',3.45
'0:11.910',3.79
'0:11.914',3.95
'0:11.918',4
'0:11.922',3.97
'0:11.926',3.85
'0:11.930',3.57
'0:11.934',3.09
'0:11.938',2.55
'0:11.941',2.07
'0:11.945',1.64
'0:11.949',1.2
'0:11.953',0.67
'0:11.957',0.18
'0:11.961',-0.25
'0:11.965',-0.67
'0:11.969',-0.97
'0:11.973',-1.12
'0:11.977',-1.1
'0:11.980',-1.04
'0:11.984',-0.99
'0:11.988',-0.9
'0:11.992',-0.63
'0:11.996',-0.36
'0:12.000',-0.17
'0:12.004',-0.03
'0:12.008',0.17
'0:12.012',0.45
'0:12.016',0.7
'0:12.020',0.73
'0:12.023',0.73
'0:12.027',0.57
'0:12.031',0.44
'0:12.035',0.38
'0:12.039',0.23
'0:12.043',0.05
'0:12.047',-0.28
'0:12.051',-0.76
'0:12.055',-1.25
'0:12.059',-1.74
'0:12.063',-2.11
'0:12.066',-2.42
'0:12.070',-2.54
'0:12.074',-2.53
'0:12.078',-2.53
'0:12.082',-2.27
'0:12.086',-2.26
'0:12.090',-2.22
'0:12.094',-2.17
'0:12.098',-2.1
'0:12.102',-2
'0:12.105',-1.9
'0:12.109',-1.85
'0:12.113',-1.75
'0:12.117',-1.42
'0:12.121',-1.24
'0:12.125',-1.34
'0:12.129',-0.96
'0:12.133',0
'0:12.137',1.45
'0:12.141',3.56
'0:12.145',6.15
'0:12.148',8.97
'0:12.152',11.17
'0:12.156',11.18
'0:12.160',7.78
'0:12.164',1.9
'0:12.168',-3.75
'0:12.172',-7.6
'0:12.176',-9.25
'0:12.180',-8.96
'0:12.184',-7.56
'0:12.188',-5.87
'0:12.191',-4.27
'0:12.195',-3.31
'0:12.199',-2.86
'0:12.203',-2.37
'0:12.207',-1.67
'0:12.211',-1.24
'0:12.215',-0.9
'0:12.219',-0.78
'0:12.223',-0.89
'0:12.227',-0.92
'0:12.230',-0.62
'0:12.234',-0.15
'0:12.238',0
'0:12.242',0
'0:12.246',0.21
'0:12.250',0.62
'0:12.254',0.71
'0:12.258',0.68
'0:12.262',0.73
'0:12.266',0.83
'0:12.270',0.92
'0:12.273',1.42
'0:12.277',2.03
'0:12.281',2.4
'0:12.285',2.77
'0:12.289',3.13
'0:12.293',3.33
'0:12.297',3.58
'0:12.301',3.75
'0:12.305',3.97
'0:12.309',4.26
'0:12.313',4.31
'0:12.316',4.08
'0:12.320',3.81
'0:12.324',3.53
'0:12.328',3.32
'0:12.332',3.1
'0:12.336',2.69
'0:12.340',2.03
'0:12.344',1.16
'0:12.348',0.54
'0:12.352',-0.03
'0:12.355',-0.76
'0:12.359',-1.16
'0:12.363',-1.5
'0:12.367',-1.83
'0:12.371',-1.85
'0:12.375',-1.78
'0:12.379',-1.8
'0:12.383',-1.75
'0:12.387',-1.68
'0:12.391',-1.67
'0:12.395',-1.61
'0:12.398',-1.3
'0:12.402',-1.06
'0:12.406',-0.64
'0:12.410',-0.08
'0:12.414',0.03
'0:12.418',-0.16
'0:12.422',-0.17
'0:12.426',-0.09
'0:12.430',-0.07
'0:12.434',-0.28
'0:12.438',-0.44
'0:12.441',-0.6
'0:12.445',-0.86
'0:12.449',-1.23
'0:12.453',-1.55
'0:12.457',-1.82
'0:12.461',-2.35
'0:12.465',-2.91
'0:12.469',-3.52
'0:12.473',-3.89
'0:12.477',-3.83
'0:12.480',-3.54
'0:12.484',-3.37
'0:12.488',-3.36
'0:12.492',-3.22
'0:12.496',-3.12
'0:12.500',-2.97
'0:12.504',-2.75
'0:12.508',-2.34
'0:12.512',-1.84
'0:12.516',-1.58
'0:12.520',-1.75
'0:12.523',-1.97
'0:12.527',-2.39
'0:12.531',-2.54
'0:12.535',-2.04
'0:12.539',-0.9
'0:12.543',0.68
'0:12.547',2.71
'0:12.551',5.09
'0:12.555',7.66
'0:12.559',9.69
'0:12.563',9.48
'0:12.566',6.38
'0:12.570',1.13
'0:12.574',-3.99
'0:12.578',-7.58
'0:12.582',-9.31
'0:12.586',-9.15
'0:12.590',-7.75
'0:12.594',-5.99
'0:12.598',-4.34
'0:12.602',-2.95
'0:12.605',-2.08
'0:12.609',-1.57
'0:12.613',-1.22
'0:12.617',-0.93
'0:12.621',-0.53
'0:12.625',-0.21
'0:12.629',0.05
'0:12.633',0.1
'0:12.637',0.05
'0:12.641',0.1
'0:12.645',0.32
'0:12.648',0.51
'0:12.652',0.65
'0:12.656',0.82
'0:12.660',1.07
'0:12.664',1.21
'0:12.668',1.38
'0:12.672',1.53
'0:12.676',1.82
'0:12.680',2.12
'0:12.684',2.45
'0:12.688',2.7
'0:12.691',2.87
'0:12.695',3.09
'0:12.699',3.48
'0:12.703',3.89
'0:12.707',4.21
'0:12.711',4.41
'0:12.715',4.58
'0:12.719',4.77
'0:12.723',4.85
'0:12.727',4.66
'0:12.730',4.25
'0:12.734',3.91
'0:12.738',3.52
'0:12.742',3.05
'0:12.746',2.45
'0:12.750',1.92
'0:12.754',1.41
'0:12.758',0.84
'0:12.762',0.19
'0:12.766',-0.37
'0:12.770',-0.72
'0:12.773',-0.82
'0:12.777',-0.8
'0:12.781',-0.69
'0:12.785',-0.63
'0:12.789',-0.53
'0:12.793',-0.37
'0:12.797',-0.22
'0:12.801',0.04
'0:12.805',0.26
'0:12.809',0.39
'0:12.813',0.77
'0:12.816',1.14
'0:12.820',1.31
'0:12.824',1.18
'0:12.828',0.88
'0:12.832',0.74
'0:12.836',0.67
'0:12.840',0.64
'0:12.844',0.63
'0:12.848',0.35
'0:12.852',-0.18
'0:12.855',-0.89
'0:12.859',-1.52
'0:12.863',-2.11
'0:12.867',-2.41
'0:12.871',-2.68
'0:12.875',-2.89
'0:12.879',-2.99
'0:12.883',-2.97
'0:12.887',-2.99
'0:12.891',-2.88
'0:12.895',-2.64
'0:12.898',-2.35
'0:12.902',-2.14
'0:12.906',-2.14
'0:12.910',-2.24
'0:12.914',-2.26
'0:12.918',-2.29
'0:12.922',-2.15
'0:12.926',-1.98
'0:12.930',-1.99
'0:12.934',-2.02
'0:12.938',-1.55
'0:12.941',-0.51
'0:12.945',1.39
'0:12.949',3.75
'0:12.953',6.44
'0:12.957',9.08
'0:12.961',10.6
'0:12.965',9.57
'0:12.969',4.93
'0:12.973',-1.28
'0:12.977',-6.07
'0:12.980',-8.82
'0:12.984',-9.68
'0:12.988',-8.87
'0:12.992',-7.25
'0:12.996',-5.61
'0:13.000',-4.29
'0:13.004',-3.28
'0:13.008',-2.62
'0:13.012',-2.08
'0:13.016',-1.5
'0:13.020',-1.1
'0:13.023',-1.09
'0:13.027',-0.96
'0:13.031',-0.66
'0:13.035',-0.51
'0:13.039',-0.58
'0:13.043',-0.61
'0:13.047',-0.4
'0:13.051',-0.05
'0:13.055',0.22
'0:13.059',0.25
'0:13.063',0.19
'0:13.066',0.36
'0:13.070',0.68
'0:13.074',1
'0:13.078',1.28
'0:13.082',1.65
'0:13.086',2.04
'0:13.090',2.45
'0:13.094',2.82
'0:13.098',3.16
'0:13.102',3.51
'0:13.105',3.63
'0:13.109',3.44
'0:13.113',3.49
'0:13.117',3.87
'0:13.121',4
'0:13.125',3.62
'0:13.129',3.15
'0:13.133',3.1
'0:13.137',3.02
'0:13.141',2.52
'0:13.145',1.94
'0:13.148',1.41
'0:13.152',0.89
'0:13.156',0.29
'0:13.160',-0.28
'0:13.164',-0.65
'0:13.168',-0.78
'0:13.172',-1.18
'0:13.176',-1.51
'0:13.180',-1.51
'0:13.184',-1.3
'0:13.188',-1.07
'0:13.191',-0.85
'0:13.195',-0.92
'0:13.199',-1.07
'0:13.203',-0.9
'0:13.207',-0.42
'0:13.211',0.23
'0:13.215',0.66
'0:13.219',0.82
'0:13.223',0.85
'0:13.227',0.87
'0:13.230',0.89
'0:13.234',0.95
'0:13.238',0.81
'0:13.242',0.44
'0:13.246',-0.06
'0:13.250',-0.8
'0:13.254',-1.47
'0:13.258',-2.03
'0:13.262',-2.69
'0:13.266',-3.02
'0:13.270',-3.33
'0:13.273',-3.72
'0:13.277',-3.97
'0:13.281',-4.1
'0:13.285',-4.09
'0:13.289',-3.69
'0:13.293',-3.32
'0:13.297',-3.07
'0:13.301',-2.78
'0:13.305',-2.51
'0:13.309',-2.32
'0:13.313',-2.2
'0:13.316',-2.29
'0:13.320',-2.43
'0:13.324',-2.24
'0:13.328',-2.15
'0:13.332',-2.22
'0:13.336',-1.94
'0:13.340',-1.05
'0:13.344',0.67
'0:13.348',2.83
'0:13.352',5
'0:13.355',7.73
'0:13.359',10.19
'0:13.363',10.04
'0:13.367',6.53
'0:13.371',0.74
'0:13.375',-4.65
'0:13.379',-8.25
'0:13.383',-9.77
'0:13.387',-9.3
'0:13.391',-7.71
'0:13.395',-5.9
'0:13.398',-4.47
'0:13.402',-3.31
'0:13.406',-2.36
'0:13.410',-1.71
'0:13.414',-1.33
'0:13.418',-1.07
'0:13.422',-0.85
'0:13.426',-0.47
'0:13.430',-0.22
'0:13.434',-0.1
'0:13.438',0.05
'0:13.441',0.14
'0:13.445',0.3
'0:13.449',0.56
'0:13.453',0.68
'0:13.457',0.68
'0:13.461',0.69
'0:13.465',0.85
'0:13.469',1.19
'0:13.473',1.49
'0:13.477',1.63
'0:13.480',1.83
'0:13.484',2.05
'0:13.488',2.4
'0:13.492',2.87
'0:13.496',3.19
'0:13.500',3.5
'0:13.504',3.72
'0:13.508',3.97
'0:13.512',4.19
'0:13.516',4.34
'0:13.520',4.22
'0:13.523',4.12
'0:13.527',4.06
'0:13.531',3.93
'0:13.535',3.64
'0:13.539',3.11
'0:13.543',2.45
'0:13.547',1.82
'0:13.551',1.23
'0:13.555',0.67
'0:13.559',0.11
'0:13.563',-0.35
'0:13.566',-0.79
'0:13.570',-1.04
'0:13.574',-1.09
'0:13.578',-1.04
'0:13.582',-0.86
'0:13.586',-0.58
'0:13.590',-0.32
'0:13.594',0.04
'0:13.598',0.52
'0:13.602',0.78
'0:13.605',0.89
'0:13.609',0.9
'0:13.613',0.78
'0:13.617',0.73
'0:13.621',0.74
'0:13.625',0.61
'0:13.629',0.47
'0:13.633',0.39
'0:13.637',0.35
'0:13.641',0.16
'0:13.645',-0.33
'0:13.648',-0.98
'0:13.652',-1.52
'0:13.656',-2.01
'0:13.660',-2.34
'0:13.664',-2.46
'0:13.668',-2.44
'0:13.672',-2.39
'0:13.676',-2.32
'0:13.680',-2.26
'0:13.684',-2.28
'0:13.688',-2.17
'0:13.691',-1.97
'0:13.695',-1.76
'0:13.699',-1.6
'0:13.703',-1.49
'0:13.707',-1.37
'0:13.711',-1.24
'0:13.715',-1.22
'0:13.719',-1.22
'0:13.723',-1.12
'0:13.727',-0.93
'0:13.730',-0.83
'0:13.734',-0.26
'0:13.738',1.25
'0:13.742',3.36
'0:13.746',5.86
'0:13.750',8.9
'0:13.754',11.22
'0:13.758',11.16
'0:13.762',7.63
'0:13.766',1.61
'0:13.770',-4.03
'0:13.773',-7.66
'0:13.777',-9.14
'0:13.781',-8.71
'0:13.785',-7.41
'0:13.789',-5.9
'0:13.793',-4.75
'0:13.797',-3.7
'0:13.801',-2.79
'0:13.805',-2.39
'0:13.809',-2.05
'0:13.813',-1.48
'0:13.816',-1.1
'0:13.820',-0.88
'0:13.824',-0.76
'0:13.828',-0.83
'0:13.832',-0.67
'0:13.836',-0.25
'0:13.840',-0.05
'0:13.844',0
'0:13.848',-0.11
'0:13.852',-0.03
'0:13.855',0.43
'0:13.859',0.77
'0:13.863',1.05
'0:13.867',1.36
'0:13.871',1.46
'0:13.875',1.51
'0:13.879',1.53
'0:13.883',1.82
'0:13.887',2.26
'0:13.891',2.72
'0:13.895',3.14
'0:13.898',3.18
'0:13.902',3.22
'0:13.906',3.32
'0:13.910',3.69
'0:13.914',4.43
'0:13.918',4.7
'0:13.922',4.42
'0:13.926',4.12
'0:13.930',3.82
'0:13.934',3.25
'0:13.938',2.47
'0:13.941',1.76
'0:13.945',1.11
'0:13.949',0.38
'0:13.953',-0.14
'0:13.957',-0.57
'0:13.961',-1.01
'0:13.965',-1.31
'0:13.969',-1.56
'0:13.973',-1.56
'0:13.977',-1.53
'0:13.980',-1.69
'0:13.984',-1.8
'0:13.988',-1.54
'0:13.992',-1.18
'0:13.996',-1.02
'0:14.000',-0.97
'0:14.004',-0.6
'0:14.008',-0.08
'0:14.012',0.24
'0:14.016',0.08
'0:14.020',-0.08
'0:14.023',-0.14
'0:14.027',-0.4
'0:14.031',-0.66
'0:14.035',-0.51
'0:14.039',-0.31
'0:14.043',-0.45
'0:14.047',-0.62
'0:14.051',-0.89
'0:14.055',-1.39
'0:14.059',-2.12
'0:14.063',-2.8
'0:14.066',-3.27
'0:14.070',-3.43
'0:14.074',-3.53
'0:14.078',-3.41
'0:14.082',-3.22
'0:14.086',-3.08
'0:14.090',-2.95
'0:14.094',-2.68
'0:14.098',-2.4
'0:14.102',-2.01
'0:14.105',-1.62
'0:14.109',-1.48
'0:14.113',-1.65
'0:14.117',-1.82
'0:14.121',-1.75
'0:14.125',-1.65
'0:14.129',-1.7
'0:14.133',-1.46
'0:14.137',-1.07
'0:14.141',-0.05
'0:14.145',2.1
'0:14.148',4.77
'0:14.152',7.47
'0:14.156',9.92
'0:14.160',10.63
'0:14.164',8.71
'0:14.168',4.04
'0:14.172',-1.76
'0:14.176',-6.41
'0:14.180',-9.12
'0:14.184',-9.77
'0:14.188',-8.94
'0:14.191',-7.21
'0:14.195',-5.18
'0:14.199',-3.46
'0:14.203',-2.45
'0:14.207',-1.84
'0:14.211',-1.28
'0:14.215',-0.95
'0:14.219',-0.76
'0:14.223',-0.44
'0:14.227',-0.02
'0:14.230',0.15
'0:14.234',0.14
'0:14.238',0.16
'0:14.242',0.55
'0:14.246',0.8
'0:14.250',0.9
'0:14.254',1.02
'0:14.258',1.24
'0:14.262',1.43
'0:14.266',1.59
'0:14.270',1.8
'0:14.273',2.04
'0:14.277',2.35
'0:14.281',2.69
'0:14.285',3.16
'0:14.289',3.55
'0:14.293',3.82
'0:14.297',4.09
'0:14.301',4.47
'0:14.305',4.79
'0:14.309',5.09
'0:14.313',5.16
'0:14.316',5.09
'0:14.320',5.01
'0:14.324',4.9
'0:14.328',4.59
'0:14.332',4.2
'0:14.336',3.77
'0:14.340',3.44
'0:14.344',3.2
'0:14.348',2.67
'0:14.352',1.87
'0:14.355',1.34
'0:14.359',0.7
'0:14.363',0.12
'0:14.367',-0.24
'0:14.371',-0.48
'0:14.375',-0.53
'0:14.379',-0.44
'0:14.383',-0.38
'0:14.387',-0.31
'0:14.391',-0.17
'0:14.395',-0.1
'0:14.398',0.02
'0:14.402',0.38
'0:14.406',0.82
'0:14.410',0.99
'0:14.414',1.09
'0:14.418',1.22
'0:14.422',1.21
'0:14.426',1.15
'0:14.430',0.98
'0:14.434',0.78
'0:14.438',0.61
'0:14.441',0.52
'0:14.445',0.26
'0:14.449',-0.23
'0:14.453',-0.89
'0:14.457',-1.66
'0:14.461',-2.37
'0:14.465',-2.94
'0:14.469',-3.16
'0:14.473',-3.17
'0:14.477',-3
'0:14.480',-3.07
'0:14.484',-3.18
'0:14.488',-3.07
'0:14.492',-2.8
'0:14.496',-2.66
'0:14.500',-2.7
'0:14.504',-2.73
'0:14.508',-2.54
'0:14.512',-2.25
'0:14.516',-1.93
'0:14.520',-1.88
'0:14.523',-1.99
'0:14.527',-2.14
'0:14.531',-2.1
'0:14.535',-1.47
'0:14.539',-0.2
'0:14.543',1.53
'0:14.547',3.84
'0:14.551',6.36
'0:14.555',8.92
'0:14.559',10.62
'0:14.563',9.78
'0:14.566',5.43
'0:14.570',-0.7
'0:14.574',-5.57
'0:14.578',-8.59
'0:14.582',-9.78
'0:14.586',-9.32
'0:14.590',-7.83
'0:14.594',-6
'0:14.598',-4.68
'0:14.602',-3.53
'0:14.605',-2.52
'0:14.609',-1.95
'0:14.613',-1.71
'0:14.617',-1.34
'0:14.621',-0.79
'0:14.625',-0.28
'0:14.629',0.03
'0:14.633',-0.13
'0:14.637',-0.17
'0:14.641',0.12
'0:14.645',-0.07
'0:14.648',-0.26
'0:14.652',-0.24
'0:14.656',-0.12
'0:14.660',0.36
'0:14.664',0.66
'0:14.668',0.53
'0:14.672',0.85
'0:14.676',1.35
'0:14.680',1.59
'0:14.684',1.61
'0:14.688',1.68
'0:14.691',2.11
'0:14.695',2.59
'0:14.699',3.06
'0:14.703',3.55
'0:14.707',3.87
'0:14.711',3.97
'0:14.715',4.05
'0:14.719',3.93
'0:14.723',3.45
'0:14.727',2.79
'0:14.730',2.51
'0:14.734',2.44
'0:14.738',1.91
'0:14.742',1.47
'0:14.746',0.97
'0:14.750',0.15
'0:14.754',-0.57
'0:14.758',-0.96
'0:14.762',-1.19
'0:14.766',-1.21
'0:14.770',-1.31
'0:14.773',-1.7
'0:14.777',-1.82
'0:14.781',-1.54
'0:14.785',-1.15
'0:14.789',-0.88
'0:14.793',-0.69
'0:14.797',-0.55
'0:14.801',-0.47
'0:14.805',-0.43
'0:14.809',-0.41
'0:14.813',-0.29
'0:14.816',0.16
'0:14.820',0.77
'0:14.824',0.94
'0:14.828',0.62
'0:14.832',0.25
'0:14.836',0.08
'0:14.840',-0.16
'0:14.844',-0.74
'0:14.848',-1.25
'0:14.852',-1.72
'0:14.855',-2.39
'0:14.859',-2.92
'0:14.863',-3.33
'0:14.867',-3.62
'0:14.871',-3.72
'0:14.875',-3.69
'0:14.879',-3.6
'0:14.883',-3.65
'0:14.887',-3.49
'0:14.891',-3.19
'0:14.895',-3.04
'0:14.898',-3.02
'0:14.902',-3.12
'0:14.906',-2.98
'0:14.910',-2.47
'0:14.914',-2.22
'0:14.918',-2.4
'0:14.922',-2.58
'0:14.926',-2.46
'0:14.930',-2.11
'0:14.934',-1.36
'0:14.938',0.19
'0:14.941',2.51
'0:14.945',4.83
'0:14.949',7.31
'0:14.953',9.63
'0:14.957',10.15
'0:14.961',7.36
'0:14.965',1.94
'0:14.969',-3.43
'0:14.973',-7.14
'0:14.977',-9.01
'0:14.980',-9.18
'0:14.984',-8.07
'0:14.988',-6.43
'0:14.992',-5.09
'0:14.996',-4.04
'0:15.000',-3.28
'0:15.004',-2.67
'0:15.008',-1.94
'0:15.012',-1.34
'0:15.016',-0.95
'0:15.020',-0.71
'0:15.023',-0.37
'0:15.027',-0.07
'0:15.031',0.16
'0:15.035',0.27
'0:15.039',0.32
'0:15.043',0.34
'0:15.047',0.37
'0:15.051',0.5
'0:15.055',0.9
'0:15.059',1.25
'0:15.063',1.46
'0:15.066',1.58
'0:15.070',1.75
'0:15.074',1.99
'0:15.078',2.34
'0:15.082',2.75
'0:15.086',3.13
'0:15.090',3.38
'0:15.094',3.6
'0:15.098',3.76
'0:15.102',3.95
'0:15.105',4.19
'0:15.109',4.38
'0:15.113',4.43
'0:15.117',4.35
'0:15.121',4.2
'0:15.125',4.05
'0:15.129',3.86
'0:15.133',3.54
'0:15.137',3.06
'0:15.141',2.34
'0:15.145',1.43
'0:15.148',0.67
'0:15.152',0.11
'0:15.156',-0.36
'0:15.160',-0.62
'0:15.164',-0.66
'0:15.168',-0.76
'0:15.172',-0.91
'0:15.176',-0.95
'0:15.180',-0.83
'0:15.184',-0.54
'0:15.188',-0.29
'0:15.191',0
'0:15.195',0.34
'0:15.199',0.61
'0:15.203',0.78
'0:15.207',0.93
'0:15.211',1
'0:15.215',0.87
'0:15.219',0.69
'0:15.223',0.55
'0:15.227',0.44
'0:15.230',0.44
'0:15.234',0.44
'0:15.238',0.44
'0:15.242',-1.71
'0:15.246',-2.4
'0:15.250',-2.86
'0:15.254',-3.06
'0:15.258',-3.04
'0:15.262',-3
'0:15.266',-2.97
'0:15.270',-2.99
'0:15.273',-3.04
'0:15.277',-3.09
'0:15.281',-2.94
'0:15.285',-2.68
'0:15.289',-2.51
'0:15.293',-2.22
'0:15.297',-1.95
'0:15.301',-1.68
'0:15.305',-1.56
'0:15.309',-1.49
'0:15.313',-1.49
'0:15.316',-1.58
'0:15.320',-1.13
'0:15.324',-0.02
'0:15.328',1.94
'0:15.332',4.51
'0:15.336',7.25
'0:15.340',9.88
'0:15.344',11.22
'0:15.348',9.48
'0:15.352',4.58
'0:15.355',0.15
'0:15.359',-4.55
'0:15.363',-7.7
'0:15.367',-9.26
'0:15.371',-8.86
'0:15.375',-7.02
'0:15.379',-5.29
'0:15.383',-4.02
'0:15.387',-3.08
'0:15.391',-2.25
'0:15.395',-1.62
'0:15.398',-1.19
'0:15.402',-1.04
'0:15.406',-1.07
'0:15.410',-0.99
'0:15.414',-0.88
'0:15.418',-0.71
'0:15.422',-0.37
'0:15.426',0.07
'0:15.430',0.39
'0:15.434',0.58
'0:15.438',0.58
'0:15.441',0.58
'0:15.445',0.51
'0:15.449',0.6
'0:15.453',0.87
'0:15.457',1.26
'0:15.461',1.67
'0:15.465',1.93
'0:15.469',2.24
'0:15.473',2.63
'0:15.477',2.99
'0:15.480',3.24
'0:15.484',3.42
'0:15.488',3.47
'0:15.492',3.65
'0:15.496',3.77
'0:15.500',3.9
'0:15.504',4.07
'0:15.508',3.98
'0:15.512',3.95
'0:15.516',3.8
'0:15.520',3.37
'0:15.523',2.88
'0:15.527',2.49
'0:15.531',1.7
'0:15.535',0.92
'0:15.539',0.24
'0:15.543',-0.67
'0:15.547',-1.41
'0:15.551',-1.53
'0:15.555',-1.46
'0:15.559',-1.44
'0:15.563',-1.58
'0:15.566',-1.63
'0:15.570',-1.7
'0:15.574',-1.63
'0:15.578',-1.51
'0:15.582',-1.44
'0:15.586',-1.25
'0:15.590',-0.88
'0:15.594',-0.51
'0:15.598',-0.17
'0:15.602',-0.16
'0:15.605',-0.07
'0:15.609',0.09
'0:15.613',0.1
'0:15.617',0.1
'0:15.621',-0.06
'0:15.625',-0.47
'0:15.629',-0.89
'0:15.633',-1.24
'0:15.637',-1.6
'0:15.641',-1.9
'0:15.645',-2.07
'0:15.648',-2.69
'0:15.652',-3.42
'0:15.656',-3.97
'0:15.660',-4.39
'0:15.664',-4.3
'0:15.668',-3.99
'0:15.672',-3.81
'0:15.676',-3.59
'0:15.680',-3.32
'0:15.684',-2.78
'0:15.688',-2.46
'0:15.691',-2.34
'0:15.695',-2.14
'0:15.699',-2.02
'0:15.703',-2.11
'0:15.707',-2.13
'0:15.711',-1.85
'0:15.715',-1.82
'0:15.719',-2.02
'0:15.723',-1.57
'0:15.727',-0.34
'0:15.730',1.72
'0:15.734',4.2
'0:15.738',6.78
'0:15.742',9.22
'0:15.746',10.11
'0:15.750',8.25
'0:15.754',3.72
'0:15.758',-1.91
'0:15.762',-6.17
'0:15.766',-8.62
'0:15.770',-9.14
'0:15.773',-8.23
'0:15.777',-6.58
'0:15.781',-4.87
'0:15.785',-3.61
'0:15.789',-2.65
'0:15.793',-2.03
'0:15.797',-1.57
'0:15.801',-1.13
'0:15.805',-0.66
'0:15.809',-0.3
'0:15.813',-0.26
'0:15.816',-0.19
'0:15.820',0.03
'0:15.824',0.27
'0:15.828',0.6
'0:15.832',0.79
'0:15.836',0.83
'0:15.840',0.97
'0:15.844',1.2
'0:15.848',1.18
'0:15.852',1.44
'0:15.855',1.82
'0:15.859',2.01
'0:15.863',2.14
'0:15.867',2.31
'0:15.871',2.54
'0:15.875',2.8
'0:15.879',3.12
'0:15.883',3.56
'0:15.887',4.03
'0:15.891',4.38
'0:15.895',4.54
'0:15.898',4.68
'0:15.902',4.8
'0:15.906',4.8
'0:15.910',4.75
'0:15.914',4.58
'0:15.918',4.32
'0:15.922',3.96
'0:15.926',3.52
'0:15.930',2.84
'0:15.934',2.13
'0:15.938',1.55
'0:15.941',1.05
'0:15.945',0.56
'0:15.949',0.01
'0:15.953',-0.45
'0:15.957',-0.61
'0:15.961',-0.65
'0:15.965',-0.55
'0:15.969',-0.54
'0:15.973',-0.41
'0:15.977',-0.15
'0:15.980',0.09
'0:15.984',0.32
'0:15.988',0.53
'0:15.992',0.71
'0:15.996',0.9
'0:16.000',1.04
'0:16.004',1.12
'0:16.008',1.15
'0:16.012',1.02
'0:16.016',0.93
'0:16.020',0.83
'0:16.023',0.69
'0:16.027',0.45
'0:16.031',-0.04
'0:16.035',-0.7
'0:16.039',-1.23
'0:16.043',-1.77
'0:16.047',-2.22
'0:16.051',-2.43
'0:16.055',-2.56
'0:16.059',-2.56
'0:16.063',-2.56
'0:16.066',-2.61
'0:16.070',-2.68
'0:16.074',-2.64
'0:16.078',-2.49
'0:16.082',-2.39
'0:16.086',-2.29
'0:16.090',-2.15
'0:16.094',-2.07
'0:16.098',-1.88
'0:16.102',-1.68
'0:16.105',-1.64
'0:16.109',-1.63
'0:16.113',-1.55
'0:16.117',-1.34
'0:16.121',-0.55
'0:16.125',1.38
'0:16.129',3.86
'0:16.133',6.34
'0:16.137',8.93
'0:16.141',10.79
'0:16.145',10.25
'0:16.148',6.08
'0:16.152',-0.13
'0:16.156',-5.33
'0:16.160',-8.37
'0:16.164',-9.32
'0:16.168',-9.02
'0:16.172',-7.73
'0:16.176',-5.9
'0:16.180',-4.47
'0:16.184',-3.57
'0:16.188',-2.89
'0:16.191',-2.54
'0:16.195',-2.1
'0:16.199',-1.38
'0:16.203',-0.83
'0:16.207',-0.76
'0:16.211',-0.83
'0:16.215',-0.61
'0:16.219',-0.18
'0:16.223',0.21
'0:16.227',0.32
'0:16.230',0.3
'0:16.234',0.3
'0:16.238',0.58
'0:16.242',0.81
'0:16.246',0.83
'0:16.250',0.74
'0:16.254',0.92
'0:16.258',1.43
'0:16.262',1.78
'0:16.266',1.9
'0:16.270',2
'0:16.273',2.24
'0:16.277',2.73
'0:16.281',3.04
'0:16.285',3.28
'0:16.289',3.57
'0:16.293',3.89
'0:16.297',4.14
'0:16.301',4.04
'0:16.305',3.62
'0:16.309',3.27
'0:16.313',3.24
'0:16.316',3.17
'0:16.320',2.74
'0:16.324',2.22
'0:16.328',1.79
'0:16.332',0.94
'0:16.336',0.35
'0:16.340',-0.14
'0:16.344',-0.84
'0:16.348',-1.33
'0:16.352',-1.46
'0:16.355',-1.24
'0:16.359',-0.73
'0:16.363',-0.65
'0:16.367',-0.92
'0:16.371',-0.9
'0:16.375',-0.63
'0:16.379',-0.25
'0:16.383',-0.14
'0:16.387',-0.42
'0:16.391',-0.53
'0:16.395',-0.39
'0:16.398',-0.16
'0:16.402',0.24
'0:16.406',0.55
'0:16.410',0.32
'0:16.414',-0.14
'0:16.418',-0.52
'0:16.422',-0.75
'0:16.426',-0.87
'0:16.430',-1.35
'0:16.434',-2.29
'0:16.438',-3.27
'0:16.441',-3.83
'0:16.445',-4.14
'0:16.449',-4.21
'0:16.453',-4.02
'0:16.457',-3.64
'0:16.461',-3.54
'0:16.465',-3.63
'0:16.469',-3.61
'0:16.473',-3.65
'0:16.477',-3.7
'0:16.480',-3.32
'0:16.484',-2.79
'0:16.488',-2.51
'0:16.492',-2.46
'0:16.496',-2.19
'0:16.500',-1.81
'0:16.504',-1.73
'0:16.508',-1.68
'0:16.512',-1.32
'0:16.516',-0.38
'0:16.520',1.34
'0:16.523',3.58
'0:16.527',5.95
'0:16.531',8.29
'0:16.535',9.99
'0:16.539',9.67
'0:16.543',6.18
'0:16.547',0.68
'0:16.551',-4.14
'0:16.555',-7.26
'0:16.559',-8.63
'0:16.563',-8.46
'0:16.566',-7.32
'0:16.570',-5.79
'0:16.574',-4.31
'0:16.578',-3.18
'0:16.582',-2.42
'0:16.586',-1.94
'0:16.590',-1.54
'0:16.594',-1.16
'0:16.598',-0.83
'0:16.602',-0.61
'0:16.605',-0.41
'0:16.609',-0.19
'0:16.613',0.05
'0:16.617',0.17
'0:16.621',0.2
'0:16.625',0.38
'0:16.629',0.64
'0:16.633',0.85
'0:16.637',1.02
'0:16.641',1.26
'0:16.645',1.57
'0:16.648',1.77
'0:16.652',1.87
'0:16.656',1.93
'0:16.660',1.97
'0:16.664',2.1
'0:16.668',2.58
'0:16.672',3.13
'0:16.676',3.6
'0:16.680',3.92
'0:16.684',4.11
'0:16.688',4.16
'0:16.691',4.07
'0:16.695',4.14
'0:16.699',4.19
'0:16.703',4.1
'0:16.707',3.9
'0:16.711',3.59
'0:16.715',3.06
'0:16.719',2.51
'0:16.723',1.96
'0:16.727',1.42
'0:16.730',0.74
'0:16.734',0.04
'0:16.738',-0.44
'0:16.742',-0.58
'0:16.746',-0.58
'0:16.750',-0.51
'0:16.754',-0.38
'0:16.758',-0.29
'0:16.762',-0.24
'0:16.766',-0.08
'0:16.770',0.03
'0:16.773',0.25
'0:16.777',0.51
'0:16.781',0.73
'0:16.785',0.9
'0:16.789',1.04
'0:16.793',1.05
'0:16.797',0.98
'0:16.801',0.83
'0:16.805',0.69
'0:16.809',0.49
'0:16.813',0.18
'0:16.816',-0.21
'0:16.820',-0.63
'0:16.824',-1.18
'0:16.828',-1.81
'0:16.832',-2.43
'0:16.836',-2.82
'0:16.840',-2.92
'0:16.844',-2.97
'0:16.848',-3
'0:16.852',-3.02
'0:16.855',-2.87
'0:16.859',-2.65
'0:16.863',-2.35
'0:16.867',-2.22
'0:16.871',-2.24
'0:16.875',-2.12
'0:16.879',-1.9
'0:16.883',-1.73
'0:16.887',-1.61
'0:16.891',-1.54
'0:16.895',-1.48
'0:16.898',-1.53
'0:16.902',-1.42
'0:16.906',-0.71
'0:16.910',0.99
'0:16.914',3.49
'0:16.918',6.14
'0:16.922',8.78
'0:16.926',10.84
'0:16.930',10.55
'0:16.934',7.01
'0:16.938',1.38
'0:16.941',-3.76
'0:16.945',-7.19
'0:16.949',-8.78
'0:16.953',-8.87
'0:16.957',-7.93
'0:16.961',-6.33
'0:16.965',-4.64
'0:16.969',-3.23
'0:16.973',-2.28
'0:16.977',-1.82
'0:16.980',-1.68
'0:16.984',-1.75
'0:16.988',-1.37
'0:16.992',-0.81
'0:16.996',-0.44
'0:17.000',-0.12
'0:17.004',0.17
'0:17.008',0.46
'0:17.012',0.52
'0:17.016',0.4
'0:17.020',0.25
'0:17.023',0.72
'0:17.027',1.31
'0:17.031',1.49
'0:17.035',1.37
'0:17.039',1.32
'0:17.043',1.56
'0:17.047',2.13
'0:17.051',2.64
'0:17.055',3
'0:17.059',3.34
'0:17.063',3.75
'0:17.066',3.85
'0:17.070',3.93
'0:17.074',4.41
'0:17.078',4.79
'0:17.082',4.69
'0:17.086',4.69
'0:17.090',4.73
'0:17.094',4.46
'0:17.098',4.13
'0:17.102',3.78
'0:17.105',3.13
'0:17.109',2.66
'0:17.113',2.28
'0:17.117',1.7
'0:17.121',0.86
'0:17.125',0.14
'0:17.129',-0.09
'0:17.133',-0.26
'0:17.137',-0.72
'0:17.141',-0.97
'0:17.145',-1.28
'0:17.148',-1.58
'0:17.152',-1.59
'0:17.156',-1.11
'0:17.160',-0.56
'0:17.164',-0.32
'0:17.168',-0.38
'0:17.172',-0.25
'0:17.176',0.19
'0:17.180',0.6
'0:17.184',0.52
'0:17.188',0.11
'0:17.191',-0.09
'0:17.195',-0.22
'0:17.199',-0.31
'0:17.203',-0.53
'0:17.207',-0.51
'0:17.211',-0.29
'0:17.215',-0.72
'0:17.219',-1.41
'0:17.223',-2.2
'0:17.227',-2.92
'0:17.230',-3.5
'0:17.234',-3.75
'0:17.238',-3.66
'0:17.242',-3.27
'0:17.246',-3.15
'0:17.250',-3.5
'0:17.254',-3.37
'0:17.258',-3.16
'0:17.262',-3.34
'0:17.266',-3.58
'0:17.270',-3.53
'0:17.273',-3.2
'0:17.277',-2.83
'0:17.281',-2.47
'0:17.285',-2.21
'0:17.289',-1.86
'0:17.293',-1.66
'0:17.297',-1.58
'0:17.301',-1.51
'0:17.305',-1.24
'0:17.309',-0.36
'0:17.313',1.5
'0:17.316',4.04
'0:17.320',6.95
'0:17.324',9.59
'0:17.328',10.21
'0:17.332',7.89
'0:17.336',3.03
'0:17.340',-2.53
'0:17.344',-6.84
'0:17.348',-9.28
'0:17.352',-9.59
'0:17.355',-8.47
'0:17.359',-6.84
'0:17.363',-5.19
'0:17.367',-3.94
'0:17.371',-3.17
'0:17.375',-2.76
'0:17.379',-2.27
'0:17.383',-1.78
'0:17.387',-1.45
'0:17.391',-1.12
'0:17.395',-0.67
'0:17.398',-0.24
'0:17.402',-0.09
'0:17.406',0.12
'0:17.410',0.53
'0:17.414',0.8
'0:17.418',0.93
'0:17.422',1.07
'0:17.426',1.07
'0:17.430',1.17
'0:17.434',1.41
'0:17.438',1.77
'0:17.441',2.17
'0:17.445',2.49
'0:17.449',2.69
'0:17.453',2.9
'0:17.457',3.11
'0:17.461',3.31
'0:17.465',3.53
'0:17.469',3.72
'0:17.473',3.97
'0:17.477',4.14
'0:17.480',4.33
'0:17.484',4.58
'0:17.488',4.7
'0:17.492',4.63
'0:17.496',4.46
'0:17.500',4.46
'0:17.504',4.13
'0:17.508',3.5
'0:17.512',2.93
'0:17.516',2.23
'0:17.520',1.5
'0:17.523',0.77
'0:17.527',0.16
'0:17.531',-0.31
'0:17.535',-0.63
'0:17.539',-0.92
'0:17.543',-1.05
'0:17.547',-0.76
'0:17.551',-0.56
'0:17.555',-0.32
'0:17.559',-0.16
'0:17.563',0.04
'0:17.566',0.34
'0:17.570',0.66
'0:17.574',0.92
'0:17.578',1.03
'0:17.582',1.16
'0:17.586',1.26
'0:17.590',1.27
'0:17.594',1.13
'0:17.598',0.96
'0:17.602',0.73
'0:17.605',0.5
'0:17.609',0.25
'0:17.613',-0.07
'0:17.617',-0.48
'0:17.621',-1.09
'0:17.625',-1.72
'0:17.629',-2.26
'0:17.633',-2.63
'0:17.637',-2.99
'0:17.641',-3.2
'0:17.645',-3.17
'0:17.648',-3.07
'0:17.652',-2.97
'0:17.656',-2.94
'0:17.660',-2.92
'0:17.664',-2.66
'0:17.668',-2.36
'0:17.672',-2.31
'0:17.676',-2.27
'0:17.680',-2.1
'0:17.684',-1.8
'0:17.688',-1.63
'0:17.691',-1.6
'0:17.695',-1.63
'0:17.699',-1.48
'0:17.703',-0.69
'0:17.707',1
'0:17.711',3.33
'0:17.715',5.94
'0:17.719',8.78
'0:17.723',10.99
'0:17.727',10.82
'0:17.730',7.22
'0:17.734',1.31
'0:17.738',-4.17
'0:17.742',-7.91
'0:17.746',-9.58
'0:17.750',-9.25
'0:17.754',-7.94
'0:17.758',-6.38
'0:17.762',-4.82
'0:17.766',-3.5
'0:17.770',-2.63
'0:17.773',-1.99
'0:17.777',-1.44
'0:17.781',-1.19
'0:17.785',-0.93
'0:17.789',-0.61
'0:17.793',-0.57
'0:17.797',-0.56
'0:17.801',-0.34
'0:17.805',-0.07
'0:17.809',0.12
'0:17.813',0.32
'0:17.816',0.51
'0:17.820',0.58
'0:17.824',0.75
'0:17.828',0.95
'0:17.832',1.29
'0:17.836',1.52
'0:17.840',1.6
'0:17.844',1.63
'0:17.848',1.63
'0:17.852',2
'0:17.855',2.48
'0:17.859',2.91
'0:17.863',3.52
'0:17.867',4.47
'0:17.871',4.84
'0:17.875',4.45
'0:17.879',3.91
'0:17.883',3.49
'0:17.887',3.46
'0:17.891',3.39
'0:17.895',3.24
'0:17.898',3.19
'0:17.902',2.83
'0:17.906',2.32
'0:17.910',1.75
'0:17.914',1.1
'0:17.918',0.47
'0:17.922',0.03
'0:17.926',-0.58
'0:17.930',-0.83
'0:17.934',-0.87
'0:17.938',-0.87
'0:17.941',-1.12
'0:17.945',-1.39
'0:17.949',-1.2
'0:17.953',-0.64
'0:17.957',-0.44
'0:17.961',-0.24
'0:17.965',0.15
'0:17.969',0.58
'0:17.973',0.76
'0:17.977',0.88
'0:17.980',1.14
'0:17.984',0.72
'0:17.988',-0.07
'0:17.992',-0.41
'0:17.996',-0.58
'0:18.000',-0.68
'0:18.004',-0.82
'0:18.008',-1.53
'0:18.012',-2.16
'0:18.016',-2.7
'0:18.020',-3.03
'0:18.023',-3.67
'0:18.027',-4
'0:18.031',-4.02
'0:18.035',-3.85
'0:18.039',-3.63
'0:18.043',-3.43
'0:18.047',-3.86
'0:18.051',-3.93
'0:18.055',-3.25
'0:18.059',-2.87
'0:18.063',-3.21
'0:18.066',-3.6
'0:18.070',-3.56
'0:18.074',-2.96
'0:18.078',-2.15
'0:18.082',-2.31
'0:18.086',-2.31
'0:18.090',-2.27
'0:18.094',-1.77
'0:18.098',-0.2
'0:18.102',1.75
'0:18.105',3.52
'0:18.109',5.58
'0:18.113',7.79
'0:18.117',8.83
'0:18.121',7.19
'0:18.125',2.99
'0:18.129',-1.88
'0:18.133',-6.26
'0:18.137',-9.65
'0:18.141',-10.59
'0:18.145',-9.63
'0:18.148',-7.94
'0:18.152',-6.37
'0:18.156',-4.92
'0:18.160',-3.9
'0:18.164',-3.19
'0:18.168',-2.54
'0:18.172',-2.34
'0:18.176',-2.19
'0:18.180',-1.88
'0:18.184',-1.54
'0:18.188',-0.95
'0:18.191',-0.77
'0:18.195',-0.49
'0:18.199',-0.38
'0:18.203',-0.46
'0:18.207',-0.27
'0:18.211',-0.16
'0:18.215',0.02
'0:18.219',0.35
'0:18.223',0.74
'0:18.227',0.95
'0:18.230',0.78
'0:18.234',1.26
'0:18.238',1.72
'0:18.242',2.1
'0:18.246',2.43
'0:18.250',3.02
'0:18.254',3.45
'0:18.258',3.42
'0:18.262',3.36
'0:18.266',3.39
'0:18.270',3.51
'0:18.273',3.9
'0:18.277',3.87
'0:18.281',3.38
'0:18.285',2.93
'0:18.289',2.81
'0:18.293',2.66
'0:18.297',2.25
'0:18.301',1.74
'0:18.305',1.06
'0:18.309',0.43
'0:18.313',-0.14
'0:18.316',-0.41
'0:18.320',-0.38
'0:18.324',-0.58
'0:18.328',-0.8
'0:18.332',-0.83
'0:18.336',-0.76
'0:18.340',-0.37
'0:18.344',0.22
'0:18.348',0.41
'0:18.352',0.3
'0:18.355',0.27
'0:18.359',0.36
'0:18.363',0.63
'0:18.367',1.02
'0:18.371',1.25
'0:18.375',1.36
'0:18.379',1.44
'0:18.383',1.24
'0:18.387',0.98
'0:18.391',0.85
'0:18.395',0.79
'0:18.398',0.64
'0:18.402',0.13
'0:18.406',-0.46
'0:18.410',-1.25
'0:18.414',-1.94
'0:18.418',-2.42
'0:18.422',-2.8
'0:18.426',-2.82
'0:18.430',-2.73
'0:18.434',-2.82
'0:18.438',-2.8
'0:18.441',-2.59
'0:18.445',-2.3
'0:18.449',-2.17
'0:18.453',-2.14
'0:18.457',-2.12
'0:18.461',-2.17
'0:18.465',-2.12
'0:18.469',-2.09
'0:18.473',-2.05
'0:18.477',-1.9
'0:18.480',-1.73
'0:18.484',-1.44
'0:18.488',-0.62
'0:18.492',0.77
'0:18.496',2.82
'0:18.500',5.23
'0:18.504',7.79
'0:18.508',10.04
'0:18.512',10.89
'0:18.516',8.87
'0:18.520',3.83
'0:18.523',-1.81
'0:18.527',-6.04
'0:18.531',-8.31
'0:18.535',-8.71
'0:18.539',-7.71
'0:18.543',-6.14
'0:18.547',-4.55
'0:18.551',-3.27
'0:18.555',-2.41
'0:18.559',-1.85
'0:18.563',-1.37
'0:18.566',-0.85
'0:18.570',-0.51
'0:18.574',-0.31
'0:18.578',0.05
'0:18.582',0.31
'0:18.586',0.49
'0:18.590',0.62
'0:18.594',0.78
'0:18.598',0.98
'0:18.602',1.19
'0:18.605',1.3
'0:18.609',1.48
'0:18.613',1.76
'0:18.617',2.05
'0:18.621',2.28
'0:18.625',2.46
'0:18.629',2.63
'0:18.633',2.92
'0:18.637',3.29
'0:18.641',3.79
'0:18.645',4.31
'0:18.648',4.76
'0:18.652',4.95
'0:18.656',4.82
'0:18.660',4.8
'0:18.664',4.92
'0:18.668',4.87
'0:18.672',5.01
'0:18.676',5.02
'0:18.680',4.58
'0:18.684',4.1
'0:18.688',3.74
'0:18.691',3.34
'0:18.695',2.66
'0:18.699',1.88
'0:18.703',1.44
'0:18.707',1.14
'0:18.711',0.81
'0:18.715',0.42
'0:18.719',0.22
'0:18.723',-0.21
'0:18.727',-0.49
'0:18.730',-0.46
'0:18.734',-0.39
'0:18.738',-0.17
'0:18.742',0.1
'0:18.746',0.41
'0:18.750',0.82
'0:18.754',1.14
'0:18.758',1.31
'0:18.762',1.42
'0:18.766',1.32
'0:18.770',1.36
'0:18.773',1.24
'0:18.777',0.86
'0:18.781',0.75
'0:18.785',0.59
'0:18.789',0.33
'0:18.793',0.13
'0:18.797',-0.65
'0:18.801',-1.57
'0:18.805',-2.04
'0:18.809',-2.38
'0:18.813',-2.77
'0:18.816',-2.92
'0:18.820',-2.9
'0:18.824',-2.96
'0:18.828',-3.06
'0:18.832',-2.9
'0:18.836',-2.61
'0:18.840',-2.7
'0:18.844',-2.69
'0:18.848',-2.32
'0:18.852',-1.9
'0:18.855',-1.61
'0:18.859',-1.7
'0:18.863',-1.64
'0:18.867',-1.48
'0:18.871',-1.63
'0:18.875',-1.75
'0:18.879',-1.53
'0:18.883',-0.47
'0:18.887',1.8
'0:18.891',4.51
'0:18.895',7.3
'0:18.898',9.97
'0:18.902',11.15
'0:18.906',9.27
'0:18.910',4.47
'0:18.914',-1.39
'0:18.918',-5.7
'0:18.922',-8.13
'0:18.926',-9.01
'0:18.930',-8.36
'0:18.934',-7.06
'0:18.938',-5.62
'0:18.941',-4.45
'0:18.945',-3.5
'0:18.949',-2.73
'0:18.953',-2.13
'0:18.957',-1.64
'0:18.961',-1.48
'0:18.965',-1.47
'0:18.969',-1.34
'0:18.973',-1.17
'0:18.977',-1.06
'0:18.980',-0.94
'0:18.984',-0.71
'0:18.988',-0.29
'0:18.992',-0.02
'0:18.996',0.12
'0:19.000',0.12
'0:19.004',0.22
'0:19.008',0.37
'0:19.012',0.73
'0:19.016',1.1
'0:19.020',1.41
'0:19.023',1.73
'0:19.027',2.09
'0:19.031',2.44
'0:19.035',2.72
'0:19.039',2.86
'0:19.043',3.09
'0:19.047',3.34
'0:19.051',3.55
'0:19.055',3.61
'0:19.059',3.58
'0:19.063',3.66
'0:19.066',3.75
'0:19.070',3.64
'0:19.074',3.36
'0:19.078',3.05
'0:19.082',2.6
'0:19.086',2.01
'0:19.090',1.43
'0:19.094',0.86
'0:19.098',0.31
'0:19.102',-0.09
'0:19.105',-0.51
'0:19.109',-0.94
'0:19.113',-1.28
'0:19.117',-1.41
'0:19.121',-1.38
'0:19.125',-1.29
'0:19.129',-1.1
'0:19.133',-0.83
'0:19.137',-0.69
'0:19.141',-0.64
'0:19.145',-0.42
'0:19.148',-0.07
'0:19.152',0.13
'0:19.156',0.23
'0:19.160',0.35
'0:19.164',0.37
'0:19.168',0.34
'0:19.172',0.2
'0:19.176',0.03
'0:19.180',-0.21
'0:19.184',-0.48
'0:19.188',-0.7
'0:19.191',-1.02
'0:19.195',-1.48
'0:19.199',-1.92
'0:19.203',-2.28
'0:19.207',-2.6
'0:19.211',-2.97
'0:19.215',-3.31
'0:19.219',-3.58
'0:19.223',-3.61
'0:19.227',-3.49
'0:19.230',-3.43
'0:19.234',-3.31
'0:19.238',-3.12
'0:19.242',-2.93
'0:19.246',-2.76
'0:19.250',-2.61
'0:19.254',-2.39
'0:19.258',-2.15
'0:19.262',-1.81
'0:19.266',-1.63
'0:19.270',-1.87
'0:19.273',-2.1
'0:19.277',-1.72
'0:19.281',-0.69
'0:19.285',1.15
'0:19.289',3.67
'0:19.293',6.5
'0:19.297',9.28
'0:19.301',10.66
'0:19.305',9.12
'0:19.309',4.46
'0:19.313',-1.44
'0:19.316',-6.16
'0:19.320',-8.8
'0:19.324',-9.45
'0:19.328',-8.54
'0:19.332',-6.89
'0:19.336',-5.11
'0:19.340',-3.67
'0:19.344',-2.78
'0:19.348',-2.33
'0:19.352',-2.05
'0:19.355',-1.63
'0:19.359',-1.22
'0:19.363',-0.79
'0:19.367',-0.38
'0:19.371',-0.16
'0:19.375',-0.08
'0:19.379',0.03
'0:19.383',0.26
'0:19.387',0.35
'0:19.391',0.48
'0:19.395',0.75
'0:19.398',1.02
'0:19.402',1.03
'0:19.406',1.12
'0:19.410',1.45
'0:19.414',1.87
'0:19.418',2.06
'0:19.422',2.31
'0:19.426',2.73
'0:19.430',2.9
'0:19.434',2.8
'0:19.438',3.28
'0:19.441',3.94
'0:19.445',4.31
'0:19.449',4.55
'0:19.453',4.84
'0:19.457',4.97
'0:19.461',4.85
'0:19.465',4.61
'0:19.469',4.42
'0:19.473',4.46
'0:19.477',4.51
'0:19.480',4.15
'0:19.484',3.25
'0:19.488',2.28
'0:19.492',1.61
'0:19.496',1.22
'0:19.500',0.89
'0:19.504',0.51
'0:19.508',-0.05
'0:19.512',-0.58
'0:19.516',-0.97
'0:19.520',-1.23
'0:19.523',-0.99
'0:19.527',-0.49
