'0:00.000',13.881
'0:00.004',13.635
'0:00.008',28.994
'0:00.012',44.354
'0:00.016',44.846
'0:00.020',46.735
'0:00.023',0.903
'0:00.027',-45.421
'0:00.031',-48.378
'0:00.035',-22.752
'0:00.039',-9.035
'0:00.043',-18.481
'0:00.047',3.943
'0:00.051',1.232
'0:00.055',9.856
'0:00.059',22.752
'0:00.063',43.779
'0:00.066',19.548
'0:00.070',-10.103
'0:00.074',-32.526
'0:00.078',-24.641
'0:00.082',-9.281
'0:00.086',13.635
'0:00.090',35.154
'0:00.094',32.526
'0:00.098',26.859
'0:00.102',25.216
'0:00.105',44.846
'0:00.109',48.625
'0:00.113',17.413
'0:00.117',-31.705
'0:00.121',-65.38
'0:00.125',-67.023
'0:00.129',-22.013
'0:00.133',24.148
'0:00.137',58.399
'0:00.141',63.245
'0:00.145',65.955
'0:00.148',78.276
'0:00.152',73.43
'0:00.156',27.926
'0:00.160',3.368
'0:00.164',-11.745
'0:00.168',-3.614
'0:00.172',-26.037
'0:00.176',-37.372
'0:00.180',-44.6
'0:00.184',-59.138
'0:00.188',-67.023
'0:00.191',-58.399
'0:00.195',-40.575
'0:00.199',-16.592
'0:00.203',-12.238
'0:00.207',-31.705
'0:00.211',-37.618
'0:00.215',-23.819
'0:00.219',-3.943
'0:00.223',0.903
'0:00.227',-13.881
'0:00.230',-33.265
'0:00.234',-52.403
'0:00.238',-51.91
'0:00.242',-34.087
'0:00.246',-48.625
'0:00.250',-48.625
'0:00.254',-4.435
'0:00.258',162.958
'0:00.262',378.073
'0:00.266',541.195
'0:00.270',683.537
'0:00.273',680.334
'0:00.277',479.511
'0:00.281',317.456
'0:00.285',207.722
'0:00.289',101.52
'0:00.293',10.349
'0:00.297',34.908
'0:00.301',139.221
'0:00.305',142.506
'0:00.309',68.337
'0:00.313',-7.392
'0:00.316',-111.212
'0:00.320',-143.574
'0:00.324',-135.443
'0:00.328',-90.186
'0:00.332',-53.224
'0:00.336',-96.674
'0:00.340',-163.533
'0:00.344',-186.696
'0:00.348',-170.761
'0:00.352',-190.474
'0:00.355',-181.603
'0:00.359',-162.465
'0:00.363',-137.332
'0:00.367',-108.502
'0:00.371',-97.167
'0:00.375',-70.473
'0:00.379',-47.885
'0:00.383',-52.731
'0:00.387',-87.229
'0:00.391',-78.851
'0:00.395',-57.249
'0:00.398',-35.154
'0:00.402',-35.976
'0:00.406',-20.616
'0:00.410',15.524
'0:00.414',3.943
'0:00.418',-62.424
'0:00.422',-150.556
'0:00.426',-171.583
'0:00.430',-134.703
'0:00.434',-106.859
'0:00.438',-71.541
'0:00.441',-68.912
'0:00.445',-84.518
'0:00.449',-96.674
'0:00.453',-74.826
'0:00.457',-59.713
'0:00.461',-39.261
'0:00.465',-19.302
'0:00.469',0.164
'0:00.473',35.483
'0:00.477',34.908
'0:00.480',43.286
'0:00.484',18.481
'0:00.488',4.682
'0:00.492',-11.745
'0:00.496',15.77
'0:00.500',53.799
'0:00.504',63.245
'0:00.508',23.573
'0:00.512',-51.664
'0:00.516',-73.43
'0:00.520',-74.58
'0:00.523',-55.113
'0:00.527',-46.735
'0:00.531',-23.327
'0:00.535',-26.284
'0:00.539',-23.819
'0:00.543',-34.908
'0:00.547',-75.319
'0:00.551',-116.305
'0:00.555',-120.904
'0:00.559',-75.319
'0:00.563',-41.889
'0:00.566',-16.345
'0:00.570',-5.01
'0:00.574',-5.832
'0:00.578',-6.324
'0:00.582',-36.797
'0:00.586',-45.668
'0:00.590',-53.799
'0:00.594',-25.462
'0:00.598',-25.216
'0:00.602',-51.089
'0:00.605',-57.824
'0:00.609',-38.111
'0:00.613',-29.487
'0:00.617',-26.53
'0:00.621',-17.084
'0:00.625',-24.148
'0:00.629',-37.372
'0:00.633',-44.354
'0:00.637',-41.889
'0:00.641',-2.793
'0:00.645',-26.284
'0:00.648',-51.91
'0:00.652',-56.51
'0:00.656',-10.349
'0:00.660',-7.146
'0:00.664',-11.992
'0:00.668',-33.019
'0:00.672',-37.043
'0:00.676',-40.575
'0:00.680',-39.261
'0:00.684',-29.815
'0:00.688',-4.682
'0:00.691',7.967
'0:00.695',-6.899
'0:00.699',-17.906
'0:00.703',-11.171
'0:00.707',-7.146
'0:00.711',20.123
'0:00.715',8.214
'0:00.719',-29.487
'0:00.723',-53.224
'0:00.727',-38.686
'0:00.730',-17.659
'0:00.734',-28.173
'0:00.738',-58.892
'0:00.742',-64.066
'0:00.746',-85.093
'0:00.750',-83.45
'0:00.754',-78.358
'0:00.758',-76.469
'0:00.762',-125.997
'0:00.766',-159.426
'0:00.770',-176.182
'0:00.773',-130.104
'0:00.777',-54.292
'0:00.781',8.46
'0:00.785',14.949
'0:00.789',-23.327
'0:00.793',-69.159
'0:00.797',-78.604
'0:00.801',-26.859
'0:00.805',35.154
'0:00.809',48.132
'0:00.813',14.456
'0:00.816',58.399
'0:00.820',256.265
'0:00.824',429.326
'0:00.828',542.592
'0:00.832',624.81
'0:00.836',603.455
'0:00.840',441.482
'0:00.844',294.787
'0:00.848',154.334
'0:00.852',75.647
'0:00.855',46.735
'0:00.859',74.826
'0:00.863',88.543
'0:00.867',96.674
'0:00.871',104.724
'0:00.875',97.496
'0:00.879',64.313
'0:00.883',-1.478
'0:00.887',-90.432
'0:00.891',-148.42
'0:00.895',-144.395
'0:00.898',-134.375
'0:00.902',-137.085
'0:00.906',-96.346
'0:00.910',-41.889
'0:00.914',-3.368
'0:00.918',43.532
'0:00.922',58.399
'0:00.926',65.627
'0:00.930',56.51
'0:00.934',49.446
'0:00.938',16.838
'0:00.941',-17.906
'0:00.945',-15.524
'0:00.949',-12.813
'0:00.953',-49.2
'0:00.957',-105.545
'0:00.961',-77.208
'0:00.965',8.214
'0:00.969',82.875
'0:00.973',88.296
'0:00.977',64.066
'0:00.980',-13.06
'0:00.984',-29.815
'0:00.988',-0.411
'0:00.992',90.186
'0:00.996',177.825
'0:01.000',191.295
'0:01.004',155.155
'0:01.008',139.796
'0:01.012',127.147
'0:01.016',112.527
'0:01.020',93.964
'0:01.023',74.826
'0:01.027',59.138
'0:01.031',61.356
'0:01.035',61.602
'0:01.039',75.319
'0:01.043',73.183
'0:01.047',90.186
'0:01.051',138.728
'0:01.055',185.053
'0:01.059',200.412
'0:01.063',157.291
'0:01.066',84.272
'0:01.070',67.023
'0:01.074',71.541
'0:01.078',110.966
'0:01.082',100.699
'0:01.086',83.697
'0:01.090',25.462
'0:01.094',-31.951
'0:01.098',-61.602
'0:01.102',-63.491
'0:01.105',-52.978
'0:01.109',-28.748
'0:01.113',-2.3
'0:01.117',48.953
'0:01.121',77.783
'0:01.125',90.186
'0:01.129',71.294
'0:01.133',37.865
'0:01.137',38.44
'0:01.141',44.107
'0:01.145',21.191
'0:01.148',52.731
'0:01.152',68.584
'0:01.156',54.292
'0:01.160',61.602
'0:01.164',22.505
'0:01.168',-40
'0:01.172',-115.812
'0:01.176',-163.205
'0:01.180',-149.241
'0:01.184',-117.373
'0:01.188',-52.978
'0:01.191',20.863
'0:01.195',44.6
'0:01.199',33.265
'0:01.203',3.614
'0:01.207',-30.308
'0:01.211',-24.641
'0:01.215',-20.616
'0:01.219',-18.234
'0:01.223',-30.637
'0:01.227',-30.637
'0:01.230',-70.473
'0:01.234',-64.805
'0:01.238',-19.548
'0:01.242',9.61
'0:01.246',73.758
'0:01.250',103.656
'0:01.254',53.224
'0:01.258',-6.571
'0:01.262',-44.929
'0:01.266',-40
'0:01.270',-1.725
'0:01.273',13.306
'0:01.277',-68.912
'0:01.281',-145.71
'0:01.285',-129.036
'0:01.289',-104.231
'0:01.293',-108.502
'0:01.297',-118.769
'0:01.301',-141.685
'0:01.305',-110.637
'0:01.309',-74.826
'0:01.313',-18.727
'0:01.316',-10.678
'0:01.320',-72.362
'0:01.324',-129.529
'0:01.328',-144.888
'0:01.332',-102.013
'0:01.336',-86.407
'0:01.340',-64.066
'0:01.344',-64.313
'0:01.348',-120.658
'0:01.352',-187.271
'0:01.355',-147.024
'0:01.359',-59.959
'0:01.363',-15.195
'0:01.367',-25.462
'0:01.371',14.127
'0:01.375',157.044
'0:01.379',401.81
'0:01.383',478.115
'0:01.387',491.092
'0:01.391',500.784
'0:01.395',309.325
'0:01.398',182.342
'0:01.402',102.342
'0:01.406',95.607
'0:01.410',51.91
'0:01.414',14.702
'0:01.418',20.616
'0:01.422',2.3
'0:01.426',-66.695
'0:01.430',-119.262
'0:01.434',-94.21
'0:01.438',-65.955
'0:01.441',-70.801
'0:01.445',-38.111
'0:01.449',-23.08
'0:01.453',-43.286
'0:01.457',-90.678
'0:01.461',-112.527
'0:01.465',-88.296
'0:01.469',-62.424
'0:01.473',-47.557
'0:01.477',-41.397
'0:01.480',-45.668
'0:01.484',-69.651
'0:01.488',-121.972
'0:01.492',-107.434
'0:01.496',-75.647
'0:01.500',-99.631
'0:01.504',-164.601
'0:01.508',-209.612
'0:01.512',-214.211
'0:01.516',-221.768
'0:01.520',-186.121
'0:01.523',-125.504
'0:01.527',-72.937
'0:01.531',-69.159
'0:01.535',-83.943
'0:01.539',-112.527
'0:01.543',-91.253
'0:01.547',-76.962
'0:01.551',-56.181
'0:01.555',-35.729
'0:01.559',-46.489
'0:01.563',-26.284
'0:01.566',-13.635
'0:01.570',-8.46
'0:01.574',-16.838
'0:01.578',-42.464
'0:01.582',-56.181
'0:01.586',-31.13
'0:01.590',-12.567
'0:01.594',-3.121
'0:01.598',-9.281
'0:01.602',-21.684
'0:01.605',-29.24
'0:01.609',-27.598
'0:01.613',-19.548
'0:01.617',-26.284
'0:01.621',-7.146
'0:01.625',0.903
'0:01.629',4.189
'0:01.633',-1.478
'0:01.637',-7.967
'0:01.641',-6.899
'0:01.645',-15.77
'0:01.648',-27.351
'0:01.652',-47.31
'0:01.656',-69.651
'0:01.660',-55.442
'0:01.664',-51.335
'0:01.668',-61.602
'0:01.672',-61.602
'0:01.676',-52.156
'0:01.680',-56.181
'0:01.684',-52.156
'0:01.688',-61.356
'0:01.691',-44.929
'0:01.695',-51.664
'0:01.699',-40.329
'0:01.703',-37.043
'0:01.707',-45.175
'0:01.711',-43.286
'0:01.715',-49.775
'0:01.719',-55.688
'0:01.723',-53.553
'0:01.727',-15.77
'0:01.730',-13.881
'0:01.734',-16.838
'0:01.738',-51.089
'0:01.742',-65.134
'0:01.746',-47.885
'0:01.750',-18.481
'0:01.754',-36.222
'0:01.758',-33.594
'0:01.762',-30.637
'0:01.766',-0.411
'0:01.770',-4.189
'0:01.773',-3.614
'0:01.777',-30.637
'0:01.781',-27.926
'0:01.785',-16.592
'0:01.789',-22.259
'0:01.793',-5.503
'0:01.797',-14.949
'0:01.801',4.435
'0:01.805',0.164
'0:01.809',10.103
'0:01.813',10.349
'0:01.816',0.903
'0:01.820',-25.462
'0:01.824',-28.748
'0:01.828',-21.684
'0:01.832',-24.641
'0:01.836',-2.053
'0:01.840',-10.678
'0:01.844',-26.53
'0:01.848',-34.087
'0:01.852',-54.867
'0:01.855',-82.054
'0:01.859',-105.545
'0:01.863',-105.791
'0:01.867',-84.272
'0:01.871',-75.072
'0:01.875',-84.272
'0:01.879',-72.362
'0:01.883',-56.51
'0:01.887',-51.91
'0:01.891',-73.758
'0:01.895',-143.574
'0:01.898',-193.431
'0:01.902',-134.95
'0:01.906',-0.164
'0:01.910',99.056
'0:01.914',120.412
'0:01.918',120.083
'0:01.922',136.018
'0:01.926',198.03
'0:01.930',299.386
'0:01.934',456.02
'0:01.938',570.354
'0:01.941',509.162
'0:01.945',307.764
'0:01.949',157.291
'0:01.953',97.167
'0:01.957',88.789
'0:01.961',87.229
'0:01.965',104.477
'0:01.969',121.726
'0:01.973',111.705
'0:01.977',104.477
'0:01.980',73.183
'0:01.984',28.748
'0:01.988',-17.084
'0:01.992',-31.13
'0:01.996',17.084
'0:02.000',61.356
'0:02.004',70.473
'0:02.008',35.976
'0:02.012',-35.976
'0:02.016',-70.801
'0:02.020',-67.844
'0:02.023',-49.2
'0:02.027',-34.908
'0:02.031',-37.618
'0:02.035',-68.091
'0:02.039',-79.672
'0:02.043',-64.313
'0:02.047',-22.752
'0:02.051',20.37
'0:02.055',25.216
'0:02.059',34.908
'0:02.063',36.551
'0:02.066',28.748
'0:02.070',21.93
'0:02.074',86.407
'0:02.078',138.974
'0:02.082',174.868
'0:02.086',82.383
'0:02.090',5.503
'0:02.094',0.411
'0:02.098',-24.641
'0:02.102',-87.475
'0:02.105',-78.851
'0:02.109',-30.637
'0:02.113',-7.967
'0:02.117',34.333
'0:02.121',71.048
'0:02.125',96.921
'0:02.129',100.124
'0:02.133',93.717
'0:02.137',55.688
'0:02.141',73.183
'0:02.145',78.029
'0:02.148',80.493
'0:02.152',123.861
'0:02.156',148.913
'0:02.160',166.244
'0:02.164',128.215
'0:02.168',72.362
'0:02.172',51.089
'0:02.176',52.731
'0:02.180',16.592
'0:02.184',12.567
'0:02.188',38.111
'0:02.191',32.526
'0:02.195',5.257
'0:02.199',-58.399
'0:02.203',-79.426
'0:02.207',-75.072
'0:02.211',-52.731
'0:02.215',-63.245
'0:02.219',-59.467
'0:02.223',-0.986
'0:02.227',33.019
'0:02.230',57.577
'0:02.234',36.551
'0:02.238',-4.435
'0:02.242',-42.464
'0:02.246',-75.072
'0:02.250',-55.688
'0:02.254',-33.84
'0:02.258',-11.992
'0:02.262',33.265
'0:02.266',68.091
'0:02.270',58.645
'0:02.273',-56.51
'0:02.277',-142.178
'0:02.281',-152.445
'0:02.285',-85.093
'0:02.289',-22.259
'0:02.293',-79.919
'0:02.297',-102.835
'0:02.301',-79.426
'0:02.305',-53.224
'0:02.309',18.727
'0:02.313',55.935
'0:02.316',-6.899
'0:02.320',-96.921
'0:02.324',-116.633
'0:02.328',-139.221
'0:02.332',-83.943
'0:02.336',69.98
'0:02.340',174.293
'0:02.344',63.245
'0:02.348',-124.436
'0:02.352',-199.098
'0:02.355',-155.977
'0:02.359',-106.12
'0:02.363',-20.863
'0:02.367',59.713
'0:02.371',89.364
'0:02.375',152.445
'0:02.379',154.909
'0:02.383',-24.969
'0:02.387',-219.55
'0:02.391',-244.93
'0:02.395',-225.792
'0:02.398',-190.227
'0:02.402',-153.841
'0:02.406',-80.986
'0:02.410',9.856
'0:02.414',31.376
'0:02.418',-69.159
'0:02.422',-138.153
'0:02.426',-151.131
'0:02.430',-151.952
'0:02.434',-150.802
'0:02.438',-108.256
'0:02.441',-66.448
'0:02.445',-58.07
'0:02.449',-65.134
'0:02.453',-123.861
'0:02.457',-165.094
'0:02.461',-101.274
'0:02.465',-22.259
'0:02.469',-9.856
'0:02.473',-23.08
'0:02.477',80.165
'0:02.480',271.624
'0:02.484',422.016
'0:02.488',511.544
'0:02.492',578.65
'0:02.496',528.546
'0:02.500',433.679
'0:02.504',248.955
'0:02.508',17.084
'0:02.512',-146.285
'0:02.516',-119.59
'0:02.520',-44.6
'0:02.523',9.61
'0:02.527',37.043
'0:02.531',20.37
'0:02.535',5.01
'0:02.539',-66.695
'0:02.543',-113.923
'0:02.547',-93.389
'0:02.551',-82.875
'0:02.555',-110.391
'0:02.559',-127.147
'0:02.563',-128.215
'0:02.566',-113.102
'0:02.570',-102.342
'0:02.574',-109.077
'0:02.578',-107.681
'0:02.582',-110.966
'0:02.586',-98.81
'0:02.590',-87.721
'0:02.594',-76.14
'0:02.598',-104.724
'0:02.602',-107.681
'0:02.605',-98.81
'0:02.609',-74.58
'0:02.613',-62.177
'0:02.617',-86.654
'0:02.621',-103.409
'0:02.625',-112.034
'0:02.629',-91.828
'0:02.633',-65.38
'0:02.637',-26.037
'0:02.641',-9.856
'0:02.645',0.411
'0:02.648',-7.967
'0:02.652',-12.238
'0:02.656',-38.44
'0:02.660',-40.822
'0:02.664',-2.793
'0:02.668',18.727
'0:02.672',17.906
'0:02.676',13.06
'0:02.680',10.678
'0:02.684',44.354
'0:02.688',62.916
'0:02.691',79.919
'0:02.695',63.245
'0:02.699',62.67
'0:02.703',46.489
'0:02.707',47.31
'0:02.711',46.735
'0:02.715',61.356
'0:02.719',60.781
'0:02.723',46.735
'0:02.727',48.625
'0:02.730',62.67
'0:02.734',74.826
'0:02.738',59.467
'0:02.742',48.378
'0:02.746',35.154
'0:02.750',31.376
'0:02.754',10.349
'0:02.758',-35.483
'0:02.762',-45.668
'0:02.766',-30.308
'0:02.770',-21.191
'0:02.773',-24.641
'0:02.777',-19.548
'0:02.781',-28.748
'0:02.785',-28.748
'0:02.789',-20.37
'0:02.793',-25.216
'0:02.797',-20.616
'0:02.801',-13.06
'0:02.805',-43.286
'0:02.809',-64.559
'0:02.813',-55.113
'0:02.816',-40.329
'0:02.820',-3.121
'0:02.824',17.413
'0:02.828',1.232
'0:02.832',-2.053
'0:02.836',10.678
'0:02.840',-3.943
'0:02.844',-30.062
'0:02.848',-28.173
'0:02.852',-2.793
'0:02.855',21.93
'0:02.859',24.394
'0:02.863',18.973
'0:02.867',-7.721
'0:02.871',-14.456
'0:02.875',-40.329
'0:02.879',-40.822
'0:02.883',-1.478
'0:02.887',34.333
'0:02.891',15.77
'0:02.895',-18.481
'0:02.898',-49.446
'0:02.902',-47.557
'0:02.906',-2.546
'0:02.910',40
'0:02.914',25.709
'0:02.918',33.84
'0:02.922',67.762
'0:02.926',76.715
'0:02.930',25.462
'0:02.934',-62.177
'0:02.938',-101.52
'0:02.941',-92.321
'0:02.945',-29.487
'0:02.949',58.645
'0:02.953',103.656
'0:02.957',92.075
'0:02.961',64.066
'0:02.965',15.524
'0:02.969',-15.77
'0:02.973',-11.499
'0:02.977',-10.924
'0:02.980',-50.267
'0:02.984',-60.534
'0:02.988',-46.243
'0:02.992',-17.413
'0:02.996',-17.413
'0:03.000',-48.625
'0:03.004',-53.224
'0:03.008',-27.351
'0:03.012',55.113
'0:03.016',68.337
'0:03.020',93.389
'0:03.023',205.587
'0:03.027',382.426
'0:03.031',551.216
'0:03.035',696.186
'0:03.039',766.577
'0:03.043',579.471
'0:03.047',374.048
'0:03.051',198.03
'0:03.055',119.837
'0:03.059',102.835
'0:03.063',153.841
'0:03.066',196.634
'0:03.070',177.004
'0:03.074',124.436
'0:03.078',93.389
'0:03.082',60.288
'0:03.086',5.832
'0:03.090',-60.288
'0:03.094',-98.563
'0:03.098',-88.296
'0:03.102',-45.996
'0:03.105',-48.953
'0:03.109',-43.286
'0:03.113',-47.31
'0:03.117',-24.148
'0:03.121',15.195
'0:03.125',29.24
'0:03.129',68.912
'0:03.133',65.627
'0:03.137',42.464
'0:03.141',4.682
'0:03.145',-28.748
'0:03.148',-56.756
'0:03.152',-17.906
'0:03.156',32.526
'0:03.160',59.959
'0:03.164',20.863
'0:03.168',1.478
'0:03.172',4.435
'0:03.176',13.881
'0:03.180',-8.789
'0:03.184',-26.53
'0:03.188',-11.992
'0:03.191',18.727
'0:03.195',40.575
'0:03.199',67.023
'0:03.203',38.44
'0:03.207',10.924
'0:03.211',-5.832
'0:03.215',-22.259
'0:03.219',44.354
'0:03.223',122.547
'0:03.227',193.677
'0:03.230',202.876
'0:03.234',148.174
'0:03.238',119.837
'0:03.242',110.637
'0:03.246',48.625
'0:03.250',-18.727
'0:03.254',-40.575
'0:03.258',-13.306
'0:03.262',34.661
'0:03.266',40.329
'0:03.270',14.949
'0:03.273',45.175
'0:03.277',36.222
'0:03.281',48.953
'0:03.285',85.832
'0:03.289',123.369
'0:03.293',169.693
'0:03.297',103.081
'0:03.301',43.286
'0:03.305',45.668
'0:03.309',-36.551
'0:03.313',-132.486
'0:03.316',-164.355
'0:03.320',-168.379
'0:03.324',-187.517
'0:03.328',-123.861
'0:03.332',-60.288
'0:03.336',-11.171
'0:03.340',-7.392
'0:03.344',11.417
'0:03.348',56.181
'0:03.352',113.348
'0:03.355',144.888
'0:03.359',45.175
'0:03.363',-83.45
'0:03.367',-104.724
'0:03.371',-112.855
'0:03.375',-31.705
'0:03.379',-3.121
'0:03.383',-69.651
'0:03.387',-154.088
'0:03.391',-192.363
'0:03.395',-206.408
'0:03.398',-159.18
'0:03.402',-69.651
'0:03.406',-19.548
'0:03.410',17.659
'0:03.414',41.643
'0:03.418',83.943
'0:03.422',119.837
'0:03.426',139.796
'0:03.430',88.543
'0:03.434',21.93
'0:03.438',-81.808
'0:03.441',-102.013
'0:03.445',-106.859
'0:03.449',-50.021
'0:03.453',-34.661
'0:03.457',-20.863
'0:03.461',-67.27
'0:03.465',-114.416
'0:03.469',-168.626
'0:03.473',-221.439
'0:03.477',-215.279
'0:03.480',-173.225
'0:03.484',-125.504
'0:03.488',-77.208
'0:03.492',-74.58
'0:03.496',-81.315
'0:03.500',-57.249
'0:03.504',-14.949
'0:03.508',-45.668
'0:03.512',-114.991
'0:03.516',-151.131
'0:03.520',-105.299
'0:03.523',-27.105
'0:03.527',-24.394
'0:03.531',-79.097
'0:03.535',-59.713
'0:03.539',38.933
'0:03.543',104.724
'0:03.547',50.842
'0:03.551',-80.493
'0:03.555',-135.196
'0:03.559',-23.327
'0:03.563',160.248
'0:03.566',369.449
'0:03.570',509.162
'0:03.574',420.702
'0:03.578',101.767
'0:03.582',-77.783
'0:03.586',-99.878
'0:03.590',10.103
'0:03.594',106.12
'0:03.598',179.139
'0:03.602',153.266
'0:03.605',79.426
'0:03.609',24.641
'0:03.613',42.218
'0:03.617',-3.943
'0:03.621',-70.473
'0:03.625',-137.085
'0:03.629',-164.847
'0:03.633',-172.65
'0:03.637',-156.798
'0:03.641',-123.861
'0:03.645',-106.859
'0:03.648',-100.453
'0:03.652',-76.14
'0:03.656',-107.188
'0:03.660',-118.523
'0:03.664',-117.373
'0:03.668',-116.633
'0:03.672',-112.034
'0:03.676',-78.604
'0:03.680',-71.869
'0:03.684',-82.383
'0:03.688',-95.607
'0:03.691',-78.604
'0:03.695',-81.315
'0:03.699',-57.249
'0:03.703',-65.134
'0:03.707',-61.027
'0:03.711',-46.489
'0:03.715',-35.483
'0:03.719',-26.284
'0:03.723',-45.996
'0:03.727',-56.756
'0:03.730',-45.421
'0:03.734',-23.327
'0:03.738',-29.487
'0:03.742',-12.813
'0:03.746',-6.571
'0:03.750',2.546
'0:03.754',7.721
'0:03.758',48.953
'0:03.762',50.021
'0:03.766',28.173
'0:03.770',7.967
'0:03.773',9.856
'0:03.777',29.815
'0:03.781',61.356
'0:03.785',57.824
'0:03.789',26.53
'0:03.793',30.308
'0:03.797',45.996
'0:03.801',42.218
'0:03.805',40.822
'0:03.809',27.926
'0:03.813',15.77
'0:03.816',14.702
'0:03.820',-5.503
'0:03.824',-22.752
'0:03.828',-35.729
'0:03.832',-33.265
'0:03.836',-34.908
'0:03.840',-54.046
'0:03.844',-38.686
'0:03.848',-52.403
'0:03.852',-80.493
'0:03.855',-95.853
'0:03.859',-69.405
'0:03.863',-43.532
'0:03.867',-56.51
'0:03.871',-47.31
'0:03.875',-29.487
'0:03.879',-21.191
'0:03.883',3.614
'0:03.887',6.571
'0:03.891',1.478
'0:03.895',5.257
'0:03.898',-17.906
'0:03.902',-26.284
'0:03.906',-25.709
'0:03.910',-17.413
'0:03.914',-12.813
'0:03.918',-17.413
'0:03.922',-39.754
'0:03.926',-40
'0:03.930',-19.302
'0:03.934',-0.657
'0:03.938',-18.234
'0:03.941',-51.664
'0:03.945',-36.222
'0:03.949',-21.191
'0:03.953',-5.257
'0:03.957',-18.973
'0:03.961',-32.197
'0:03.965',-33.019
'0:03.969',-6.078
'0:03.973',22.505
'0:03.977',41.397
'0:03.980',47.885
'0:03.984',34.333
'0:03.988',14.949
'0:03.992',24.641
'0:03.996',23.327
'0:04.000',13.306
'0:04.004',18.481
'0:04.008',-15.195
'0:04.012',-82.629
'0:04.016',-115.237
'0:04.020',-68.912
'0:04.023',-55.113
'0:04.027',-53.224
'0:04.031',-48.953
'0:04.035',-32.526
'0:04.039',25.462
'0:04.043',21.684
'0:04.047',-18.727
'0:04.051',-72.116
'0:04.055',-58.399
'0:04.059',-10.924
'0:04.063',58.399
'0:04.066',69.159
'0:04.070',89.364
'0:04.074',92.321
'0:04.078',106.613
'0:04.082',91.828
'0:04.086',69.405
'0:04.090',58.07
'0:04.094',92.321
'0:04.098',211.747
'0:04.102',348.997
'0:04.105',439.264
'0:04.109',488.628
'0:04.113',349.243
'0:04.117',147.352
'0:04.121',84.765
'0:04.125',80.74
'0:04.129',17.413
'0:04.133',32.197
'0:04.137',110.145
'0:04.141',156.798
'0:04.145',171.09
'0:04.148',177.825
'0:04.152',117.701
'0:04.156',26.859
'0:04.160',-37.865
'0:04.164',-52.156
'0:04.168',-27.598
'0:04.172',52.731
'0:04.176',97.167
'0:04.180',61.849
'0:04.184',-7.146
'0:04.188',-18.727
'0:04.191',1.232
'0:04.195',9.61
'0:04.199',27.351
'0:04.203',56.756
'0:04.207',58.892
'0:04.211',33.019
'0:04.215',14.949
'0:04.219',16.592
'0:04.223',24.148
'0:04.227',52.978
'0:04.230',105.299
'0:04.234',122.794
'0:04.238',85.586
'0:04.242',35.154
'0:04.246',-34.908
'0:04.250',-23.08
'0:04.254',18.234
'0:04.258',44.107
'0:04.262',33.019
'0:04.266',32.526
'0:04.270',42.711
'0:04.273',80.165
'0:04.277',166.983
'0:04.281',264.889
'0:04.285',329.284
'0:04.289',223.657
'0:04.293',86.161
'0:04.297',74.826
'0:04.301',101.52
'0:04.305',56.756
'0:04.309',8.214
'0:04.313',70.473
'0:04.316',165.094
'0:04.320',188.585
'0:04.324',152.198
'0:04.328',80.986
'0:04.332',17.906
'0:04.336',-49.446
'0:04.340',-18.973
'0:04.344',57.003
'0:04.348',139.221
'0:04.352',183.492
'0:04.355',213.636
'0:04.359',186.449
'0:04.363',145.956
'0:04.367',185.874
'0:04.371',253.801
'0:04.375',193.431
'0:04.379',87.229
'0:04.383',79.426
'0:04.387',84.765
'0:04.391',95.032
'0:04.395',14.702
'0:04.398',-92.567
'0:04.402',-87.229
'0:04.406',9.856
'0:04.410',10.349
'0:04.414',-37.618
'0:04.418',14.127
'0:04.422',106.366
'0:04.426',128.215
'0:04.430',56.51
'0:04.434',37.043
'0:04.438',54.867
'0:04.441',-3.368
'0:04.445',-62.424
'0:04.449',-10.678
'0:04.453',148.913
'0:04.457',244.684
'0:04.461',174.047
'0:04.465',55.935
'0:04.469',101.52
'0:04.473',49.2
'0:04.477',-92.896
'0:04.480',-182.096
'0:04.484',-133.882
'0:04.488',-46.489
'0:04.492',26.859
'0:04.496',91.007
'0:04.500',95.278
'0:04.504',39.261
'0:04.508',14.456
'0:04.512',-32.197
'0:04.516',7.392
'0:04.520',100.945
'0:04.523',155.402
'0:04.527',93.389
'0:04.531',-17.084
'0:04.535',-56.181
'0:04.539',-72.116
'0:04.543',-30.637
'0:04.547',61.849
'0:04.551',175.114
'0:04.555',193.677
'0:04.559',38.933
'0:04.563',-97.496
'0:04.566',-99.056
'0:04.570',-108.009
'0:04.574',-96.921
'0:04.578',-50.267
'0:04.582',-35.729
'0:04.586',-33.265
'0:04.590',-40
'0:04.594',-0.411
'0:04.598',41.643
'0:04.602',26.859
'0:04.605',-26.53
'0:04.609',-47.064
'0:04.613',-0.657
'0:04.617',93.964
'0:04.621',142.753
'0:04.625',117.373
'0:04.629',92.321
'0:04.633',181.603
'0:04.637',338.976
'0:04.641',459.798
'0:04.645',571.422
'0:04.648',546.863
'0:04.652',365.67
'0:04.656',210.433
'0:04.660',138.399
'0:04.664',50.021
'0:04.668',33.594
'0:04.672',48.132
'0:04.676',57.249
'0:04.680',54.621
'0:04.684',65.134
'0:04.688',94.457
'0:04.691',93.389
'0:04.695',60.534
'0:04.699',30.062
'0:04.703',20.123
'0:04.707',26.284
'0:04.711',24.148
'0:04.715',27.105
'0:04.719',15.77
'0:04.723',5.503
'0:04.727',-21.438
'0:04.730',-8.789
'0:04.734',-6.324
'0:04.738',14.127
'0:04.742',35.483
'0:04.746',40.329
'0:04.750',39.261
'0:04.754',44.354
'0:04.758',33.265
'0:04.762',52.156
'0:04.766',69.159
'0:04.770',83.204
'0:04.773',76.469
'0:04.777',69.405
'0:04.781',55.688
'0:04.785',68.337
'0:04.789',63.491
'0:04.793',74.251
'0:04.797',85.832
'0:04.801',103.656
'0:04.805',99.056
'0:04.809',110.391
'0:04.813',121.972
'0:04.816',118.769
'0:04.820',121.151
'0:04.824',146.285
'0:04.828',200.741
'0:04.832',243.287
'0:04.836',230.392
'0:04.840',208.297
'0:04.844',200.741
'0:04.848',200.412
'0:04.852',206.901
'0:04.855',211.254
'0:04.859',207.722
'0:04.863',201.234
'0:04.867',184.56
'0:04.871',189.899
'0:04.875',193.184
'0:04.879',189.899
'0:04.883',184.806
'0:04.887',168.626
'0:04.891',173.225
'0:04.895',159.755
'0:04.898',157.291
'0:04.902',183.164
'0:04.906',165.669
'0:04.910',171.829
'0:04.914',160.576
'0:04.918',173.472
'0:04.922',150.556
'0:04.926',134.128
'0:04.930',123.861
'0:04.934',127.147
'0:04.938',107.681
'0:04.941',102.342
'0:04.945',116.633
'0:04.949',104.97
'0:04.953',109.898
'0:04.957',92.896
'0:04.961',87.475
'0:04.965',68.912
'0:04.969',102.835
'0:04.973',120.904
'0:04.977',137.332
'0:04.980',120.658
'0:04.984',89.364
'0:04.988',89.939
'0:04.992',119.015
'0:04.996',162.465
'0:05.000',147.845
'0:05.004',108.748
'0:05.008',96.921
'0:05.012',120.083
'0:05.016',140.617
'0:05.020',126.818
'0:05.023',109.57
'0:05.027',54.292
'0:05.031',14.456
'0:05.035',44.846
'0:05.039',85.34
'0:05.043',175.607
'0:05.047',237.374
'0:05.051',254.869
'0:05.055',229.817
'0:05.059',207.476
'0:05.063',179.96
'0:05.066',157.044
'0:05.070',110.966
'0:05.074',87.229
'0:05.078',93.389
'0:05.082',124.436
'0:05.086',133.061
'0:05.090',94.785
'0:05.094',61.849
'0:05.098',65.955
'0:05.102',103.656
'0:05.105',170.268
'0:05.109',182.917
'0:05.113',160.576
'0:05.117',77.783
'0:05.121',4.189
'0:05.125',-18.234
'0:05.129',14.702
'0:05.133',35.729
'0:05.137',55.113
'0:05.141',68.337
'0:05.145',95.032
'0:05.148',110.145
'0:05.152',130.925
'0:05.156',120.083
'0:05.160',150.309
'0:05.164',359.51
'0:05.168',629.656
'0:05.172',809.452
'0:05.176',916.722
'0:05.180',875.49
'0:05.184',697.829
'0:05.188',502.92
'0:05.191',330.105
'0:05.195',223.328
'0:05.199',123.861
'0:05.203',91.253
'0:05.207',105.545
'0:05.211',77.537
'0:05.215',56.51
'0:05.219',43.286
'0:05.223',59.138
'0:05.227',-5.832
'0:05.230',-16.017
'0:05.234',37.372
'0:05.238',80.74
'0:05.242',85.34
'0:05.246',78.851
'0:05.250',55.113
'0:05.254',40.575
'0:05.258',63.245
'0:05.262',142.753
'0:05.266',213.39
'0:05.270',210.926
'0:05.273',221.193
'0:05.277',198.852
'0:05.281',72.116
'0:05.285',-91.253
'0:05.289',-99.878
'0:05.293',-62.67
'0:05.297',-15.77
'0:05.301',26.53
'0:05.305',82.383
'0:05.309',48.378
'0:05.313',10.924
'0:05.316',8.214
'0:05.320',40.575
'0:05.324',43.532
'0:05.328',61.602
'0:05.332',121.972
'0:05.336',148.913
'0:05.340',120.658
'0:05.344',129.036
'0:05.348',129.529
'0:05.352',121.972
'0:05.355',147.352
'0:05.359',180.453
'0:05.363',219.304
'0:05.367',285.341
'0:05.371',312.035
'0:05.375',247.312
'0:05.379',160.576
'0:05.383',56.181
'0:05.387',2.546
'0:05.391',2.546
'0:05.395',10.678
'0:05.398',-9.856
'0:05.402',-9.856
'0:05.406',34.908
'0:05.410',1.725
'0:05.414',-50.514
'0:05.418',-22.505
'0:05.422',95.032
'0:05.426',180.453
'0:05.430',234.663
'0:05.434',272.446
'0:05.438',272.446
'0:05.441',185.628
'0:05.445',99.385
'0:05.449',97.988
'0:05.453',73.43
'0:05.457',69.159
'0:05.461',99.385
'0:05.465',142.999
'0:05.469',35.154
'0:05.473',-105.299
'0:05.477',-188.01
'0:05.480',-188.831
'0:05.484',-143.574
'0:05.488',-108.748
'0:05.492',-35.483
'0:05.496',61.602
'0:05.500',144.067
'0:05.504',86.407
'0:05.508',-41.643
'0:05.512',-3.943
'0:05.516',102.342
'0:05.520',202.301
'0:05.523',173.225
'0:05.527',82.875
'0:05.531',-14.949
'0:05.535',-45.668
'0:05.539',-42.218
'0:05.543',-1.478
'0:05.547',36.797
'0:05.551',-1.725
'0:05.555',-97.742
'0:05.559',-154.088
'0:05.563',-143.328
'0:05.566',-104.724
'0:05.570',-33.594
'0:05.574',38.686
'0:05.578',86.161
'0:05.582',54.867
'0:05.586',32.197
'0:05.590',5.503
'0:05.594',9.281
'0:05.598',206.08
'0:05.602',384.808
'0:05.605',322.302
'0:05.609',61.027
'0:05.613',-228.503
'0:05.617',-383.74
'0:05.621',-375.691
'0:05.625',-309.9
'0:05.629',-172.157
'0:05.633',-25.462
'0:05.637',-27.105
'0:05.641',-112.034
'0:05.645',-190.72
'0:05.648',-152.445
'0:05.652',-70.801
'0:05.656',-52.978
'0:05.660',-106.859
'0:05.664',-147.352
'0:05.668',-72.116
'0:05.672',44.354
'0:05.676',96.099
'0:05.680',73.183
'0:05.684',-20.37
'0:05.688',-58.892
'0:05.691',12.813
'0:05.695',253.801
'0:05.699',506.123
'0:05.703',583.496
'0:05.707',482.714
'0:05.711',310.475
'0:05.715',102.835
'0:05.719',9.61
'0:05.723',53.553
'0:05.727',156.798
'0:05.730',156.798
'0:05.734',15.77
'0:05.738',-105.545
'0:05.742',-94.785
'0:05.746',-53.224
'0:05.750',4.435
'0:05.754',24.148
'0:05.758',-47.064
'0:05.762',-157.291
'0:05.766',-157.044
'0:05.770',-55.113
'0:05.773',35.729
'0:05.777',25.709
'0:05.781',-95.032
'0:05.785',-153.02
'0:05.789',-176.429
'0:05.793',-178.893
'0:05.797',-174.047
'0:05.801',-163.533
'0:05.805',-140.289
'0:05.809',-114.416
'0:05.813',-98.235
'0:05.816',-91.253
'0:05.820',-111.787
'0:05.824',-105.545
'0:05.828',-82.629
'0:05.832',-68.337
'0:05.836',-105.791
'0:05.840',-122.547
'0:05.844',-103.409
'0:05.848',-39.754
'0:05.852',-26.859
'0:05.855',-10.349
'0:05.859',-6.324
'0:05.863',-19.302
'0:05.867',-67.023
'0:05.871',-70.226
'0:05.875',-43.532
'0:05.879',2.053
'0:05.883',6.899
'0:05.887',14.127
'0:05.891',-0.986
'0:05.895',-37.865
'0:05.898',-119.837
'0:05.902',-163.533
'0:05.906',-147.024
'0:05.910',-75.319
'0:05.914',-34.415
'0:05.918',-27.926
'0:05.922',-30.308
'0:05.926',-58.645
'0:05.930',-84.272
'0:05.934',-79.919
'0:05.938',-94.785
'0:05.941',-82.054
'0:05.945',-91.253
'0:05.949',-129.036
'0:05.953',-170.515
'0:05.957',-156.798
'0:05.961',-120.083
'0:05.965',-114.169
'0:05.969',-128.461
'0:05.973',-132.814
'0:05.977',-137.66
'0:05.980',-151.952
'0:05.984',-130.925
'0:05.988',-129.529
'0:05.992',-132.486
'0:05.996',-104.724
'0:06.000',-104.477
'0:06.004',-114.416
'0:06.008',-157.044
'0:06.012',-159.18
'0:06.016',-105.791
'0:06.020',-33.84
'0:06.023',4.435
'0:06.027',19.302
'0:06.031',9.035
'0:06.035',-47.31
'0:06.039',-73.758
'0:06.043',-59.467
'0:06.047',-20.616
'0:06.051',32.197
'0:06.055',30.308
'0:06.059',-34.908
'0:06.063',-110.966
'0:06.066',-171.583
'0:06.070',-114.169
'0:06.074',-1.232
'0:06.078',105.791
'0:06.082',121.479
'0:06.086',94.457
'0:06.090',-29.487
'0:06.094',-186.942
'0:06.098',-127.393
'0:06.102',20.123
'0:06.105',110.637
'0:06.109',274.828
'0:06.113',311.543
'0:06.117',194.006
'0:06.121',48.625
'0:06.125',2.053
'0:06.129',13.306
'0:06.133',53.224
'0:06.137',-9.035
'0:06.141',-399.1
'0:06.145',-879.022
'0:06.148',-681.648
'0:06.152',-210.433
'0:06.156',135.443
'0:06.160',261.932
'0:06.164',348.75
'0:06.168',375.445
'0:06.172',260.865
'0:06.176',171.829
'0:06.180',163.533
'0:06.184',80.74
'0:06.188',-20.616
'0:06.191',-60.534
'0:06.195',-85.832
'0:06.199',-4.189
'0:06.203',87.475
'0:06.207',101.767
'0:06.211',21.93
'0:06.215',90.678
'0:06.219',361.892
'0:06.223',574.625
'0:06.227',615.118
'0:06.230',362.467
'0:06.234',-222.836
'0:06.238',-570.6
'0:06.242',-222.836
'0:06.246',263.493
'0:06.250',434.418
'0:06.254',367.888
'0:06.258',239.838
'0:06.262',131.664
'0:06.266',56.756
'0:06.270',10.103
'0:06.273',13.06
'0:06.277',32.197
'0:06.281',16.592
'0:06.285',-31.951
'0:06.289',-79.426
'0:06.293',-55.442
'0:06.297',4.435
'0:06.301',-5.257
'0:06.305',-40.575
'0:06.309',-69.98
'0:06.313',-56.181
'0:06.316',-35.729
'0:06.320',-9.281
'0:06.324',-21.191
'0:06.328',-48.378
'0:06.332',-116.633
'0:06.336',-160.823
'0:06.340',-58.892
'0:06.344',62.424
'0:06.348',82.054
'0:06.352',75.072
'0:06.355',57.824
'0:06.359',2.053
'0:06.363',-115.483
'0:06.367',-458.156
'0:06.371',-502.099
'0:06.375',-141.931
'0:06.379',211.501
'0:06.383',260.29
'0:06.387',248.133
'0:06.391',195.566
'0:06.395',111.459
'0:06.398',64.559
'0:06.402',65.38
'0:06.406',103.656
'0:06.410',117.126
'0:06.414',111.212
'0:06.418',89.939
'0:06.422',71.048
'0:06.426',83.204
'0:06.430',-61.027
'0:06.434',-102.835
'0:06.438',13.881
'0:06.441',85.832
'0:06.445',64.805
'0:06.449',113.923
'0:06.453',97.988
'0:06.457',27.351
'0:06.461',-13.881
'0:06.465',-1.478
'0:06.469',34.333
'0:06.473',25.462
'0:06.477',-13.06
'0:06.480',-3.614
'0:06.484',42.218
'0:06.488',99.056
'0:06.492',67.516
'0:06.496',-76.715
'0:06.500',-155.402
'0:06.504',-114.169
'0:06.508',-67.023
'0:06.512',-17.906
'0:06.516',1.232
'0:06.520',-16.017
'0:06.523',-55.442
'0:06.527',-80.165
'0:06.531',-131.664
'0:06.535',-264.889
'0:06.539',-461.441
'0:06.543',-289.448
'0:06.547',135.443
'0:06.551',428.505
'0:06.555',512.612
'0:06.559',394.254
'0:06.563',127.393
'0:06.566',-73.43
'0:06.570',-126.325
'0:06.574',-16.592
'0:06.578',20.616
'0:06.582',-72.116
'0:06.586',-134.375
'0:06.590',-145.71
'0:06.594',-136.839
'0:06.598',-104.724
'0:06.602',-61.602
'0:06.605',-68.091
'0:06.609',-76.469
'0:06.613',-54.867
'0:06.617',48.625
'0:06.621',74.826
'0:06.625',62.916
'0:06.629',-15.195
'0:06.633',-136.51
'0:06.637',-152.445
'0:06.641',-122.547
'0:06.645',-16.592
'0:06.648',33.84
'0:06.652',66.202
'0:06.656',30.062
'0:06.660',-27.598
'0:06.664',-144.642
'0:06.668',-89.118
'0:06.672',48.953
'0:06.676',178.564
'0:06.680',108.748
'0:06.684',-86.161
'0:06.688',-274.828
'0:06.691',-334.459
'0:06.695',-363.042
'0:06.699',-285.095
'0:06.703',-234.17
'0:06.707',-216.1
'0:06.711',-215.525
'0:06.715',-210.679
'0:06.719',-202.876
'0:06.723',-140.289
'0:06.727',-91.828
'0:06.730',-40.822
'0:06.734',-17.084
'0:06.738',38.686
'0:06.742',222.261
'0:06.746',329.284
'0:06.750',403.207
'0:06.754',423.412
'0:06.758',311.214
'0:06.762',179.385
'0:06.766',120.904
'0:06.770',96.674
'0:06.773',11.171
'0:06.777',-16.017
'0:06.781',-0.986
'0:06.785',-12.567
'0:06.789',-64.559
'0:06.793',-97.742
'0:06.797',-96.674
'0:06.801',-100.945
'0:06.805',-140.864
'0:06.809',-156.798
'0:06.813',-145.71
'0:06.816',-118.769
'0:06.820',-121.726
'0:06.824',-153.266
'0:06.828',-196.388
'0:06.832',-205.012
'0:06.836',-201.562
'0:06.840',-129.282
'0:06.844',-65.38
'0:06.848',-55.113
'0:06.852',-117.373
'0:06.855',-140.864
'0:06.859',-155.155
'0:06.863',-131.664
'0:06.867',-139.796
'0:06.871',-120.083
'0:06.875',-109.898
'0:06.879',-106.12
'0:06.883',-112.855
'0:06.887',-104.97
'0:06.891',-104.231
'0:06.895',-79.672
'0:06.898',-75.072
'0:06.902',-94.457
'0:06.906',-116.058
'0:06.910',-101.767
'0:06.914',-82.875
'0:06.918',-47.885
'0:06.922',-32.526
'0:06.926',-80.493
'0:06.930',-94.457
'0:06.934',-48.625
'0:06.938',-22.013
'0:06.941',9.61
'0:06.945',30.883
'0:06.949',20.37
'0:06.953',20.123
'0:06.957',-1.478
'0:06.961',-4.682
'0:06.965',-2.3
'0:06.969',-13.306
'0:06.973',-58.399
'0:06.977',-123.615
'0:06.980',-174.868
'0:06.984',-224.725
'0:06.988',-147.352
'0:06.992',-10.678
'0:06.996',98.235
'0:07.000',93.389
'0:07.004',46.489
'0:07.008',-14.949
'0:07.012',-93.389
'0:07.016',-138.399
'0:07.020',-105.299
'0:07.023',-62.916
'0:07.027',-40.575
'0:07.031',-29.24
'0:07.035',-52.731
'0:07.039',-52.403
'0:07.043',-46.243
'0:07.047',-57.577
'0:07.051',-106.613
'0:07.055',-127.393
'0:07.059',-131.418
'0:07.063',-114.744
'0:07.066',-79.672
'0:07.070',-77.537
'0:07.074',-123.861
'0:07.078',-186.121
'0:07.082',-219.057
'0:07.086',-239.263
'0:07.090',-195.566
'0:07.094',-71.869
'0:07.098',39.261
'0:07.102',32.526
'0:07.105',-17.659
'0:07.109',-125.504
'0:07.113',-153.513
'0:07.117',-108.009
'0:07.121',-47.885
'0:07.125',-15.195
'0:07.129',-13.635
'0:07.133',-32.197
'0:07.137',-66.202
'0:07.141',-91.253
'0:07.145',-112.28
'0:07.148',-143.328
'0:07.152',-174.539
'0:07.156',-175.936
'0:07.160',-112.034
'0:07.164',-44.107
'0:07.168',-38.686
'0:07.172',-102.835
'0:07.176',-205.012
'0:07.180',-334.705
'0:07.184',-436.307
'0:07.188',-273.76
'0:07.191',-101.274
'0:07.195',8.46
'0:07.199',-28.419
'0:07.203',-91.5
'0:07.207',-184.806
'0:07.211',-278.935
'0:07.215',-247.887
'0:07.219',-141.11
'0:07.223',-96.099
'0:07.227',-93.389
'0:07.230',-91.828
'0:07.234',-92.896
'0:07.238',-90.186
'0:07.242',-97.496
'0:07.246',-125.258
'0:07.250',-120.412
'0:07.254',-45.421
'0:07.258',137.085
'0:07.262',343.904
'0:07.266',436.307
'0:07.270',479.758
'0:07.273',396.143
'0:07.277',153.02
'0:07.281',17.413
'0:07.285',-10.103
'0:07.289',9.61
'0:07.293',-24.394
'0:07.297',-43.532
'0:07.301',-45.421
'0:07.305',-59.467
'0:07.309',-25.709
'0:07.313',3.943
'0:07.316',79.097
'0:07.320',141.11
'0:07.324',193.677
'0:07.328',138.974
'0:07.332',-72.937
'0:07.336',-291.83
'0:07.340',-416.677
'0:07.344',-453.885
'0:07.348',-259.468
'0:07.352',-126.325
'0:07.355',-194.006
'0:07.359',-267.025
'0:07.363',-312.61
'0:07.367',-299.961
'0:07.371',-326.902
'0:07.375',-268.093
'0:07.379',-102.013
'0:07.383',58.07
'0:07.387',79.919
'0:07.391',115.483
'0:07.395',113.102
'0:07.398',99.385
'0:07.402',159.755
'0:07.406',205.258
'0:07.410',19.302
'0:07.414',-219.057
'0:07.418',-369.449
'0:07.422',-348.422
'0:07.426',-345.465
'0:07.430',-280.824
'0:07.434',-190.227
'0:07.438',-196.141
'0:07.441',-221.439
'0:07.445',-185.381
'0:07.449',-108.502
'0:07.453',30.883
'0:07.457',157.866
'0:07.461',167.311
'0:07.465',92.321
'0:07.469',-21.438
'0:07.473',-102.342
'0:07.477',-100.699
'0:07.480',-65.955
'0:07.484',-60.534
'0:07.488',-89.364
'0:07.492',36.222
'0:07.496',20.123
'0:07.500',-182.917
'0:07.504',-318.278
'0:07.508',-238.441
'0:07.512',-103.656
'0:07.516',32.772
'0:07.520',0.903
'0:07.523',-87.721
'0:07.527',-192.609
'0:07.531',-265.136
'0:07.535',-323.124
'0:07.539',-282.384
'0:07.543',-243.862
'0:07.547',-215.033
'0:07.551',-185.628
'0:07.555',-162.465
'0:07.559',-138.399
'0:07.563',-82.383
'0:07.566',-22.259
'0:07.570',-102.342
'0:07.574',-244.93
'0:07.578',-282.631
'0:07.582',-226.285
'0:07.586',-227.435
'0:07.590',-207.722
'0:07.594',-183.739
'0:07.598',-155.155
'0:07.602',-143.328
'0:07.605',-171.829
'0:07.609',-201.234
'0:07.613',-214.211
'0:07.617',-205.258
'0:07.621',-192.363
'0:07.625',-202.301
'0:07.629',-199.92
'0:07.633',-168.626
'0:07.637',-144.888
'0:07.641',-143.328
'0:07.645',-271.624
'0:07.648',-298.565
'0:07.652',-171.583
'0:07.656',-39.754
'0:07.660',-61.602
'0:07.664',-83.943
'0:07.668',-88.05
'0:07.672',-116.305
'0:07.676',-166.736
'0:07.680',-157.044
'0:07.684',-166.244
'0:07.688',-139.221
'0:07.691',-41.643
'0:07.695',1.232
'0:07.699',-76.715
'0:07.703',-150.309
'0:07.707',-202.63
'0:07.711',-260.536
'0:07.715',-290.516
'0:07.719',-292.076
'0:07.723',-162.137
'0:07.727',-118.523
'0:07.730',-179.139
'0:07.734',-227.107
'0:07.738',-186.449
'0:07.742',-12.813
'0:07.746',148.174
'0:07.750',116.88
'0:07.754',-77.208
'0:07.758',-275.403
'0:07.762',-341.194
'0:07.766',-370.27
'0:07.770',-353.843
'0:07.773',-290.516
'0:07.777',-161.644
'0:07.781',32.772
'0:07.785',259.468
'0:07.789',343.329
'0:07.793',372.98
'0:07.797',278.36
'0:07.801',67.27
'0:07.805',-78.851
'0:07.809',-116.88
'0:07.813',-114.991
'0:07.816',-98.81
'0:07.820',-100.124
'0:07.824',-166.983
'0:07.828',-203.698
'0:07.832',-180.782
'0:07.836',-111.787
'0:07.840',-77.783
'0:07.844',-83.45
'0:07.848',-82.383
'0:07.852',-143.328
'0:07.855',-172.979
'0:07.859',-186.696
'0:07.863',-239.838
'0:07.867',-271.378
'0:07.871',-211.747
'0:07.875',-138.974
'0:07.879',-116.305
'0:07.883',-168.379
'0:07.887',-237.949
'0:07.891',-280.495
'0:07.895',-269.489
'0:07.898',-237.949
'0:07.902',-237.949
'0:07.906',-251.09
'0:07.910',-259.468
'0:07.914',-236.799
'0:07.918',-224.725
'0:07.922',-222.014
'0:07.926',-261.932
'0:07.930',-269.16
'0:07.934',-221.193
'0:07.938',-168.133
'0:07.941',-116.305
'0:07.945',-100.945
'0:07.949',-102.835
'0:07.953',-102.588
'0:07.957',-85.093
'0:07.961',-53.553
'0:07.965',-54.292
'0:07.969',-68.584
'0:07.973',-97.167
'0:07.977',-97.496
'0:07.980',-101.767
'0:07.984',-88.871
'0:07.988',-86.982
'0:07.992',-66.448
'0:07.996',-50.021
'0:08.000',-68.337
'0:08.004',-116.058
'0:08.008',-129.282
'0:08.012',-98.81
'0:08.016',-56.756
'0:08.020',-42.464
'0:08.023',-35.729
'0:08.027',-29.24
'0:08.031',-46.489
'0:08.035',-68.912
'0:08.039',-102.835
'0:08.043',-99.385
'0:08.047',-142.178
'0:08.051',-203.944
'0:08.055',-147.024
'0:08.059',-63.738
'0:08.063',14.127
'0:08.066',28.419
'0:08.070',12.238
'0:08.074',-36.797
'0:08.078',-84.272
'0:08.082',-79.672
'0:08.086',-74.251
'0:08.090',-59.467
'0:08.094',-70.226
'0:08.098',-64.805
'0:08.102',-77.208
'0:08.105',-105.545
'0:08.109',-153.02
'0:08.113',-193.431
'0:08.117',-190.474
'0:08.121',-130.597
'0:08.125',-54.046
'0:08.129',-49.446
'0:08.133',-60.534
'0:08.137',-50.842
'0:08.141',-44.929
'0:08.145',-55.113
'0:08.148',-51.91
'0:08.152',-29.815
'0:08.156',-33.84
'0:08.160',-72.362
'0:08.164',-98.235
'0:08.168',-100.124
'0:08.172',-66.695
'0:08.176',-69.405
'0:08.180',-147.845
'0:08.184',-216.347
'0:08.188',-146.285
'0:08.191',-33.265
'0:08.195',10.924
'0:08.199',27.351
'0:08.203',18.234
'0:08.207',6.899
'0:08.211',-42.711
'0:08.215',-95.278
'0:08.219',-98.563
'0:08.223',-113.594
'0:08.227',-171.829
'0:08.230',-199.92
'0:08.234',-128.215
'0:08.238',-76.715
'0:08.242',-58.399
'0:08.246',-27.105
'0:08.250',-80.493
'0:08.254',-225.217
'0:08.258',-299.633
'0:08.262',-218.811
'0:08.266',-36.551
'0:08.270',82.629
'0:08.273',88.789
'0:08.277',24.394
'0:08.281',-48.378
'0:08.285',-102.342
'0:08.289',-126.572
'0:08.293',-66.448
'0:08.297',117.701
'0:08.301',329.613
'0:08.305',367.067
'0:08.309',380.537
'0:08.313',400.743
'0:08.316',292.651
'0:08.320',137.907
'0:08.324',45.175
'0:08.328',25.462
'0:08.332',31.376
'0:08.336',37.618
'0:08.340',51.91
'0:08.344',44.6
'0:08.348',-34.661
'0:08.352',-58.399
'0:08.355',-41.397
'0:08.359',-34.415
'0:08.363',-24.969
'0:08.367',41.397
'0:08.371',49.446
'0:08.375',-37.372
'0:08.379',-177.496
'0:08.383',-310.146
'0:08.387',-384.315
'0:08.391',-283.206
'0:08.395',-129.529
'0:08.398',-57.249
'0:08.402',-8.214
'0:08.406',-2.3
'0:08.410',-58.892
'0:08.414',-162.465
'0:08.418',-207.147
'0:08.422',-171.09
'0:08.426',-127.147
'0:08.430',-70.226
'0:08.434',-7.392
'0:08.438',31.951
'0:08.441',71.048
'0:08.445',54.867
'0:08.449',-43.039
'0:08.453',-152.691
'0:08.457',-153.02
'0:08.461',-98.235
'0:08.465',-88.871
'0:08.469',-112.28
'0:08.473',-146.285
'0:08.477',-161.315
'0:08.480',-160.248
'0:08.484',-171.09
'0:08.488',-163.533
'0:08.492',-117.701
'0:08.496',-53.799
'0:08.500',-65.38
'0:08.504',-54.621
'0:08.508',14.702
'0:08.512',84.765
'0:08.516',117.701
'0:08.520',83.943
'0:08.523',-55.113
'0:08.527',-20.616
'0:08.531',170.761
'0:08.535',482.139
'0:08.539',550.887
'0:08.543',312.61
'0:08.547',-72.937
'0:08.551',-316.06
'0:08.555',-404.274
'0:08.559',-396.471
'0:08.563',-325.259
'0:08.566',-214.458
'0:08.570',-115.483
'0:08.574',-108.009
'0:08.578',-142.999
'0:08.582',-95.278
'0:08.586',-27.105
'0:08.590',24.641
'0:08.594',-82.383
'0:08.598',-219.057
'0:08.602',-274.828
'0:08.605',-194.499
'0:08.609',-121.972
'0:08.613',-108.502
'0:08.617',-58.399
'0:08.621',27.598
'0:08.625',-50.267
'0:08.629',-261.604
'0:08.633',-288.627
'0:08.637',-203.698
'0:08.641',-160.576
'0:08.645',-133.882
'0:08.648',-130.35
'0:08.652',-116.305
'0:08.656',-146.531
'0:08.660',-158.359
'0:08.664',-107.188
'0:08.668',-57.824
'0:08.672',-6.324
'0:08.676',63.491
'0:08.680',80.986
'0:08.684',53.553
'0:08.688',61.027
'0:08.691',-289.119
'0:08.695',-663.907
'0:08.699',-1341.941
'0:08.703',-1892.172
'0:08.707',-2018.579
'0:08.711',-1986.464
'0:08.715',-1960.345
'0:08.719',-2012.09
'0:08.723',-2169.299
'0:08.727',-2322.155
'0:08.730',-2421.129
'0:08.734',-2464.497
'0:08.738',-2455.051
'0:08.742',-2374.968
'0:08.746',-2323.797
'0:08.750',-2341.046
'0:08.754',-2452.915
'0:08.758',-2511.15
'0:08.762',-2277.39
'0:08.766',-1947.696
'0:08.770',-1846.34
'0:08.773',-2010.776
'0:08.777',-2335.379
'0:08.781',-2676.654
'0:08.785',-2931.687
'0:08.789',-3024.419
'0:08.793',-2330.779
'0:08.797',-1341.613
'0:08.801',-650.683
'0:08.805',-264.314
'0:08.809',-107.188
'0:08.813',-27.598
'0:08.816',150.802
'0:08.820',438.197
'0:08.824',673.024
'0:08.828',738.569
'0:08.832',630.724
'0:08.836',345.793
'0:08.840',246.819
'0:08.844',280.495
'0:08.848',382.919
'0:08.852',473.515
'0:08.855',575.446
'0:08.859',628.588
'0:08.863',557.376
'0:08.867',246.573
'0:08.871',30.637
'0:08.875',-1.232
'0:08.879',-3.368
'0:08.883',55.36
'0:08.887',140.864
'0:08.891',167.804
'0:08.895',90.432
'0:08.898',-14.702
'0:08.902',-16.345
'0:08.906',110.145
'0:08.910',223.903
'0:08.914',272.446
'0:08.918',280.742
'0:08.922',358.935
'0:08.926',426.862
'0:08.930',336.019
'0:08.934',132.814
'0:08.938',50.267
'0:08.941',55.688
'0:08.945',99.056
'0:08.949',167.804
'0:08.953',218.236
'0:08.957',228.174
'0:08.961',208.297
'0:08.965',201.48
'0:08.969',230.392
'0:08.973',260.29
'0:08.977',257.579
'0:08.980',243.616
'0:08.984',251.912
'0:08.988',259.715
'0:08.992',287.559
'0:08.996',287.559
'0:09.000',292.405
'0:09.004',284.848
'0:09.008',290.516
'0:09.012',300.701
'0:09.016',240.084
'0:09.020',140.042
'0:09.023',162.712
'0:09.027',248.133
'0:09.031',343.576
'0:09.035',402.632
'0:09.039',398.361
'0:09.043',397.539
'0:09.047',354.089
'0:09.051',300.701
'0:09.055',275.403
'0:09.059',282.138
'0:09.063',294.294
'0:09.066',269.489
'0:09.070',283.206
'0:09.074',304.232
'0:09.078',325.259
'0:09.082',308.586
'0:09.086',257.579
'0:09.090',271.049
'0:09.094',300.208
'0:09.098',301.276
'0:09.102',289.941
'0:09.105',245.505
'0:09.109',211.747
'0:09.113',143.328
'0:09.117',78.851
'0:09.121',95.607
'0:09.125',201.234
'0:09.129',320.167
'0:09.133',385.958
'0:09.137',354.089
'0:09.141',272.692
'0:09.145',219.057
'0:09.148',243.616
'0:09.152',262.179
'0:09.156',245.752
'0:09.160',269.489
'0:09.164',299.386
'0:09.168',306.943
'0:09.172',262.754
'0:09.176',170.761
'0:09.180',193.431
'0:09.184',215.525
'0:09.188',203.123
'0:09.191',195.32
'0:09.195',154.909
'0:09.199',84.765
'0:09.203',31.13
'0:09.207',-31.705
'0:09.211',90.678
'0:09.215',272.692
'0:09.219',302.097
'0:09.223',338.237
'0:09.227',370.024
'0:09.230',371.913
'0:09.234',338.237
'0:09.238',334.705
'0:09.242',291.584
'0:09.246',215.279
'0:09.250',185.381
'0:09.254',174.293
'0:09.258',194.499
'0:09.262',202.055
'0:09.266',136.839
'0:09.270',36.551
'0:09.273',37.372
'0:09.277',57.824
'0:09.281',91.007
'0:09.285',36.551
'0:09.289',12.567
'0:09.293',88.05
'0:09.297',220.371
'0:09.301',265.711
'0:09.305',306.697
'0:09.309',342.262
'0:09.313',306.368
'0:09.316',244.93
'0:09.320',207.476
'0:09.324',285.916
'0:09.328',468.176
'0:09.332',666.289
'0:09.336',665.221
'0:09.340',712.942
'0:09.344',795.161
'0:09.348',684.605
'0:09.352',444.685
'0:09.355',304.807
'0:09.359',281.316
'0:09.363',215.033
'0:09.367',188.585
'0:09.371',242.795
'0:09.375',260.29
'0:09.379',272.692
'0:09.383',295.033
'0:09.387',379.962
'0:09.391',474.911
'0:09.395',353.843
'0:09.398',224.725
'0:09.402',124.683
'0:09.406',35.483
'0:09.410',3.368
'0:09.414',3.121
'0:09.418',140.289
'0:09.422',187.517
'0:09.426',85.832
'0:09.430',8.214
'0:09.434',0.411
'0:09.438',35.976
'0:09.441',76.14
'0:09.445',110.391
'0:09.449',120.658
'0:09.453',131.664
'0:09.457',226.86
'0:09.461',292.651
'0:09.465',360.003
'0:09.469',393.761
'0:09.473',239.509
'0:09.477',88.789
'0:09.480',129.282
'0:09.484',262.754
'0:09.488',238.441
'0:09.492',79.097
'0:09.496',14.949
'0:09.500',-95.032
'0:09.504',-168.379
'0:09.508',-0.657
'0:09.512',189.16
'0:09.516',243.862
'0:09.520',170.761
'0:09.523',104.477
'0:09.527',113.594
'0:09.531',226.285
'0:09.535',361.646
'0:09.539',411.256
'0:09.543',338.483
'0:09.547',174.047
'0:09.551',-3.614
'0:09.555',-48.132
'0:09.559',9.61
'0:09.563',57.003
'0:09.566',111.212
'0:09.570',199.673
'0:09.574',298.811
'0:09.578',419.059
'0:09.582',255.444
'0:09.586',29.24
'0:09.590',-88.296
'0:09.594',-99.056
'0:09.598',-85.34
'0:09.602',5.257
'0:09.605',107.434
'0:09.609',207.722
'0:09.613',131.172
'0:09.617',15.524
'0:09.621',-70.473
'0:09.625',-34.415
'0:09.629',1.232
'0:09.633',21.438
'0:09.637',58.07
'0:09.641',73.183
'0:09.645',49.2
'0:09.648',40.329
'0:09.652',10.678
'0:09.656',25.216
'0:09.660',36.222
'0:09.664',45.175
'0:09.668',25.462
'0:09.672',30.062
'0:09.676',10.103
'0:09.680',18.481
'0:09.684',11.745
'0:09.688',25.216
'0:09.691',29.815
'0:09.695',40.822
'0:09.699',64.066
'0:09.703',58.645
'0:09.707',43.779
'0:09.711',34.333
'0:09.715',57.249
'0:09.719',59.713
'0:09.723',71.294
'0:09.727',60.781
'0:09.730',84.518
'0:09.734',57.824
'0:09.738',59.959
'0:09.742',85.586
'0:09.746',105.545
'0:09.750',83.943
'0:09.754',62.177
'0:09.758',16.345
'0:09.762',22.505
'0:09.766',68.912
'0:09.770',76.962
'0:09.773',29.487
'0:09.777',-8.789
'0:09.781',-20.123
'0:09.785',-43.532
'0:09.789',-68.912
'0:09.793',-83.697
'0:09.797',-59.713
'0:09.801',-56.181
'0:09.805',-45.175
'0:09.809',-51.335
'0:09.813',-34.908
'0:09.816',-13.306
'0:09.820',21.438
'0:09.824',49.446
'0:09.828',61.027
'0:09.832',32.197
'0:09.836',54.621
'0:09.840',162.137
'0:09.844',338.73
'0:09.848',460.291
'0:09.852',539.306
'0:09.855',498.074
'0:09.859',331.748
'0:09.863',221.439
'0:09.867',149.488
'0:09.871',142.999
'0:09.875',127.393
'0:09.879',128.707
'0:09.883',138.728
'0:09.887',117.948
'0:09.891',79.672
'0:09.895',48.625
'0:09.898',33.019
'0:09.902',10.678
'0:09.906',-25.462
'0:09.910',-33.019
'0:09.914',-20.37
'0:09.918',-5.01
'0:09.922',-6.571
'0:09.926',-22.013
'0:09.930',-30.308
'0:09.934',-21.438
'0:09.938',7.392
'0:09.941',7.392
'0:09.945',-3.614
'0:09.949',-10.924
'0:09.953',-5.257
'0:09.957',4.682
'0:09.961',6.324
'0:09.965',-2.053
'0:09.969',-8.789
'0:09.973',-5.503
'0:09.977',2.793
'0:09.980',5.257
'0:09.984',14.456
'0:09.988',23.327
'0:09.992',-5.503
'0:09.996',-26.53
'0:10.000',-24.148
'0:10.004',12.567
'0:10.008',79.919
'0:10.012',114.744
'0:10.016',131.418
'0:10.020',141.11
'0:10.023',116.058
'0:10.027',86.161
'0:10.031',84.518
'0:10.035',95.607
'0:10.039',88.543
'0:10.043',99.631
'0:10.047',87.229
'0:10.051',53.553
'0:10.055',17.413
'0:10.059',-20.616
'0:10.063',-11.745
'0:10.066',-43.286
'0:10.070',-61.027
'0:10.074',-17.906
'0:10.078',67.516
'0:10.082',108.009
'0:10.086',147.845
'0:10.090',135.771
'0:10.094',147.599
'0:10.098',104.724
'0:10.102',66.202
'0:10.105',85.832
'0:10.109',97.988
'0:10.113',123.369
'0:10.117',133.553
'0:10.121',100.945
'0:10.125',14.456
'0:10.129',-68.091
'0:10.133',-51.089
'0:10.137',25.462
'0:10.141',68.912
'0:10.145',88.05
'0:10.148',80.74
'0:10.152',37.618
'0:10.156',16.838
'0:10.160',-23.573
'0:10.164',-56.181
'0:10.168',-19.302
'0:10.172',14.127
'0:10.176',42.464
'0:10.180',71.048
'0:10.184',27.105
'0:10.188',-150.802
'0:10.191',-223.903
'0:10.195',-147.845
'0:10.199',14.456
'0:10.203',125.258
'0:10.207',206.08
'0:10.211',202.055
'0:10.215',114.744
'0:10.219',52.156
'0:10.223',20.123
'0:10.227',21.191
'0:10.230',76.962
'0:10.234',122.301
'0:10.238',99.631
'0:10.242',74.005
'0:10.246',42.218
'0:10.250',30.308
'0:10.254',56.756
'0:10.258',95.278
'0:10.262',38.44
'0:10.266',-33.265
'0:10.270',-88.543
'0:10.273',-52.403
'0:10.277',6.078
'0:10.281',71.869
'0:10.285',147.024
'0:10.289',134.95
'0:10.293',73.183
'0:10.297',24.394
'0:10.301',13.635
'0:10.305',41.15
'0:10.309',74.005
'0:10.313',69.651
'0:10.316',47.064
'0:10.320',20.863
'0:10.324',9.281
'0:10.328',-71.541
'0:10.332',-164.026
'0:10.336',-199.673
'0:10.340',-50.021
'0:10.344',62.916
'0:10.348',84.765
'0:10.352',128.707
'0:10.355',306.368
'0:10.359',471.955
'0:10.363',562.469
'0:10.367',626.371
'0:10.371',557.951
'0:10.375',274.828
'0:10.379',48.378
'0:10.383',107.188
'0:10.387',280.742
'0:10.391',378.648
'0:10.395',296.676
'0:10.398',128.461
'0:10.402',-32.772
'0:10.406',-48.132
'0:10.410',18.234
'0:10.414',59.467
'0:10.418',-98.235
'0:10.422',-263
'0:10.426',-315.321
'0:10.430',-217.661
'0:10.434',-302.343
'0:10.438',-157.619
'0:10.441',79.919
'0:10.445',181.028
'0:10.449',103.656
'0:10.453',104.724
'0:10.457',99.878
'0:10.461',54.867
'0:10.465',-21.438
'0:10.469',22.505
'0:10.473',136.264
'0:10.477',240.577
'0:10.480',228.174
'0:10.484',123.861
'0:10.488',-3.943
'0:10.492',-200.412
'0:10.496',-218.482
'0:10.500',-89.939
'0:10.504',29.487
'0:10.508',-53.799
'0:10.512',-139.796
'0:10.516',-102.342
'0:10.520',-39.754
'0:10.523',-75.647
'0:10.527',-58.892
'0:10.531',0.657
'0:10.535',8.214
'0:10.539',-31.13
'0:10.543',-33.019
'0:10.547',32.772
'0:10.551',112.527
'0:10.555',129.036
'0:10.559',107.188
'0:10.563',47.064
'0:10.566',23.08
'0:10.570',42.464
'0:10.574',102.835
'0:10.578',164.847
'0:10.582',220.7
'0:10.586',291.255
'0:10.590',310.475
'0:10.594',175.114
'0:10.598',29.815
'0:10.602',-123.861
'0:10.605',-217.168
'0:10.609',-202.055
'0:10.613',-91.007
'0:10.617',-53.553
'0:10.621',-75.647
'0:10.625',-139.549
'0:10.629',-113.594
'0:10.633',-33.265
'0:10.637',-15.195
'0:10.641',-119.262
'0:10.645',-155.73
'0:10.648',-93.717
'0:10.652',15.77
'0:10.656',18.481
'0:10.660',27.351
'0:10.664',15.195
'0:10.668',-36.797
'0:10.672',-74.251
'0:10.676',-60.534
'0:10.680',3.121
'0:10.684',5.832
'0:10.688',10.349
'0:10.691',-4.435
'0:10.695',-23.327
'0:10.699',-73.183
'0:10.703',-72.116
'0:10.707',-40.822
'0:10.711',19.302
'0:10.715',3.368
'0:10.719',-21.191
'0:10.723',-16.838
'0:10.727',-22.505
'0:10.730',-29.815
'0:10.734',-29.487
'0:10.738',-22.505
'0:10.742',-64.559
'0:10.746',-190.227
'0:10.750',-149.734
'0:10.754',23.327
'0:10.758',111.705
'0:10.762',86.161
'0:10.766',50.021
'0:10.770',30.062
'0:10.773',14.456
'0:10.777',-3.121
'0:10.781',30.883
'0:10.785',43.039
'0:10.789',14.702
'0:10.793',-55.935
'0:10.797',-59.713
'0:10.801',-69.159
'0:10.805',-61.356
'0:10.809',-52.403
'0:10.813',-69.405
'0:10.816',-72.937
'0:10.820',-85.34
'0:10.824',-64.313
'0:10.828',-69.98
'0:10.832',-82.629
'0:10.836',-85.34
'0:10.840',-85.832
'0:10.844',-52.731
'0:10.848',-40.822
'0:10.852',-17.659
'0:10.855',12.238
'0:10.859',9.856
'0:10.863',26.859
'0:10.867',102.013
'0:10.871',278.113
'0:10.875',444.685
'0:10.879',558.198
'0:10.883',605.344
'0:10.887',520.169
'0:10.891',339.551
'0:10.895',199.098
'0:10.898',115.483
'0:10.902',77.783
'0:10.906',69.159
'0:10.910',87.721
'0:10.914',66.695
'0:10.918',20.123
'0:10.922',-15.77
'0:10.926',-11.499
'0:10.930',-26.859
'0:10.934',-76.715
'0:10.938',-89.118
'0:10.941',-97.742
'0:10.945',-81.315
'0:10.949',-77.783
'0:10.953',-75.647
'0:10.957',-102.835
'0:10.961',-96.674
'0:10.965',-82.875
'0:10.969',-79.426
'0:10.973',-89.939
'0:10.977',-99.631
'0:10.980',-142.506
'0:10.984',-145.217
'0:10.988',-81.808
'0:10.992',-17.659
'0:10.996',5.832
'0:11.000',3.121
'0:11.004',20.863
'0:11.008',19.548
'0:11.012',-13.306
'0:11.016',-22.752
'0:11.020',-14.127
'0:11.023',0.164
'0:11.027',1.478
'0:11.031',-10.924
'0:11.035',-4.435
'0:11.039',0.411
'0:11.043',28.748
'0:11.047',16.592
'0:11.051',8.46
'0:11.055',14.456
'0:11.059',15.195
'0:11.063',-5.01
'0:11.066',-44.6
'0:11.070',-50.842
'0:11.074',-34.087
'0:11.078',8.214
'0:11.082',81.561
'0:11.086',125.504
'0:11.090',96.346
'0:11.094',42.218
'0:11.098',-11.992
'0:11.102',-12.238
'0:11.105',-9.035
'0:11.109',24.394
'0:11.113',-8.789
'0:11.117',-40.329
'0:11.121',6.324
'0:11.125',65.134
'0:11.129',95.607
'0:11.133',86.654
'0:11.137',47.885
'0:11.141',0.164
'0:11.145',-40.822
'0:11.148',-48.953
'0:11.152',-78.029
'0:11.156',-68.584
'0:11.160',-66.448
'0:11.164',-58.399
'0:11.168',-34.415
'0:11.172',-31.705
'0:11.176',-5.832
'0:11.180',-1.725
'0:11.184',-23.08
'0:11.188',-76.469
'0:11.191',-121.726
'0:11.195',-116.88
'0:11.199',-87.229
'0:11.203',-31.705
'0:11.207',-2.546
'0:11.211',5.832
'0:11.215',-15.524
'0:11.219',-62.424
'0:11.223',-103.656
'0:11.227',-96.921
'0:11.230',-49.775
'0:11.234',-9.856
'0:11.238',-2.3
'0:11.242',-3.121
'0:11.246',-57.003
'0:11.250',-121.479
'0:11.254',-118.194
'0:11.258',-25.709
'0:11.262',-15.77
'0:11.266',-43.039
'0:11.270',-95.607
'0:11.273',-185.874
'0:11.277',-195.32
'0:11.281',-86.982
'0:11.285',31.951
'0:11.289',111.459
'0:11.293',88.543
'0:11.297',31.705
'0:11.301',-19.548
'0:11.305',-56.756
'0:11.309',-84.765
'0:11.313',-78.851
'0:11.316',-100.124
'0:11.320',-114.169
'0:11.324',-134.128
'0:11.328',-149.488
'0:11.332',-99.631
'0:11.336',-43.039
'0:11.340',-21.684
'0:11.344',-50.021
'0:11.348',-123.861
'0:11.352',-139.549
'0:11.355',-30.062
'0:11.359',44.354
'0:11.363',68.091
'0:11.367',102.013
'0:11.371',199.673
'0:11.375',333.637
'0:11.379',467.848
'0:11.383',604.605
'0:11.387',737.501
'0:11.391',700.786
'0:11.395',379.716
'0:11.398',114.744
'0:11.402',3.943
'0:11.406',43.286
'0:11.410',20.863
'0:11.414',-9.035
'0:11.418',-43.286
'0:11.422',-68.337
'0:11.426',-68.584
'0:11.430',-112.28
'0:11.434',-62.916
'0:11.438',60.781
'0:11.441',130.35
'0:11.445',91.828
'0:11.449',74.58
'0:11.453',119.59
'0:11.457',138.728
'0:11.461',129.775
'0:11.465',34.087
'0:11.469',-13.881
'0:11.473',-23.327
'0:11.477',-87.721
'0:11.480',-264.314
'0:11.484',-276.47
'0:11.488',-152.445
'0:11.492',-35.976
'0:11.496',37.865
'0:11.500',28.994
'0:11.504',-34.087
'0:11.508',-71.541
'0:11.512',-93.964
'0:11.516',-63.491
'0:11.520',-28.419
'0:11.523',68.912
'0:11.527',145.135
'0:11.531',191.542
'0:11.535',212.568
'0:11.539',141.931
'0:11.543',35.976
'0:11.547',-33.594
'0:11.551',-78.358
'0:11.555',-22.259
'0:11.559',-1.725
'0:11.563',-65.955
'0:11.566',-89.611
'0:11.570',-117.701
'0:11.574',-72.362
'0:11.578',-12.813
'0:11.582',20.123
'0:11.586',37.372
'0:11.590',33.84
'0:11.594',31.13
'0:11.598',21.93
'0:11.602',34.087
'0:11.605',65.627
'0:11.609',64.559
'0:11.613',50.021
'0:11.617',26.037
'0:11.621',18.973
'0:11.625',46.735
'0:11.629',30.062
'0:11.633',19.302
'0:11.637',-2.793
'0:11.641',2.793
'0:11.645',11.745
'0:11.648',-3.368
'0:11.652',-41.643
'0:11.656',-93.389
'0:11.660',-106.613
'0:11.664',-41.643
'0:11.668',32.772
'0:11.672',30.883
'0:11.676',-8.214
'0:11.680',-62.177
'0:11.684',-65.627
'0:11.688',-18.234
'0:11.691',20.37
'0:11.695',47.557
'0:11.699',96.346
'0:11.703',66.448
'0:11.707',-7.967
'0:11.711',-95.032
'0:11.715',-107.681
'0:11.719',-56.181
'0:11.723',3.943
'0:11.727',46.489
'0:11.730',33.84
'0:11.734',-18.973
'0:11.738',-45.996
'0:11.742',-55.688
'0:11.746',-37.043
'0:11.750',-52.403
'0:11.754',-7.146
'0:11.758',46.489
'0:11.762',69.651
'0:11.766',-31.705
'0:11.770',-40.575
'0:11.773',-4.682
'0:11.777',-9.035
'0:11.781',16.592
'0:11.785',155.155
'0:11.789',235.731
'0:11.793',169.447
'0:11.797',-3.614
'0:11.801',-130.597
'0:11.805',-216.922
'0:11.809',-222.014
'0:11.813',-171.336
'0:11.816',-118.769
'0:11.820',-74.58
'0:11.824',-68.912
'0:11.828',-85.34
'0:11.832',-85.586
'0:11.836',-70.473
'0:11.840',-75.894
'0:11.844',-67.27
'0:11.848',-82.629
'0:11.852',-84.765
'0:11.855',-72.116
'0:11.859',-61.849
'0:11.863',-51.335
'0:11.867',-48.953
'0:11.871',-5.832
'0:11.875',4.435
'0:11.879',17.413
'0:11.883',124.436
'0:11.887',278.606
'0:11.891',411.831
'0:11.895',478.115
'0:11.898',443.618
'0:11.902',277.785
'0:11.906',146.777
'0:11.910',86.407
'0:11.914',142.506
'0:11.918',100.124
'0:11.922',93.142
'0:11.926',102.342
'0:11.930',73.183
'0:11.934',30.308
'0:11.938',3.943
'0:11.941',-4.189
'0:11.945',-26.284
'0:11.949',-68.584
'0:11.953',-80.986
'0:11.957',-65.134
'0:11.961',-43.286
'0:11.965',-90.186
'0:11.969',-124.683
'0:11.973',-108.502
'0:11.977',-102.588
'0:11.980',-82.629
'0:11.984',-105.791
'0:11.988',-103.081
'0:11.992',-89.939
'0:11.996',-135.771
'0:12.000',-114.991
'0:12.004',-59.467
'0:12.008',-42.711
'0:12.012',-42.218
'0:12.016',-52.156
'0:12.020',-48.625
'0:12.023',-57.577
'0:12.027',-56.181
'0:12.031',-72.691
'0:12.035',-69.159
'0:12.039',-82.383
'0:12.043',-57.824
'0:12.047',-40.329
'0:12.051',-10.349
'0:12.055',-38.44
'0:12.059',-17.084
'0:12.063',-8.214
'0:12.066',-6.571
'0:12.070',-24.148
'0:12.074',-6.078
'0:12.078',-4.189
'0:12.082',-9.035
'0:12.086',-50.021
'0:12.090',-97.496
'0:12.094',-84.765
'0:12.098',2.793
'0:12.102',42.464
'0:12.105',28.173
'0:12.109',-22.505
'0:12.113',-26.53
'0:12.117',17.659
'0:12.121',18.727
'0:12.125',40.329
'0:12.129',89.118
'0:12.133',100.453
'0:12.137',83.204
'0:12.141',56.51
'0:12.145',14.127
'0:12.148',11.745
'0:12.152',18.234
'0:12.156',-31.951
'0:12.160',-85.586
'0:12.164',-109.57
'0:12.168',-100.945
'0:12.172',-52.978
'0:12.176',-71.048
'0:12.180',-101.274
'0:12.184',-103.656
'0:12.188',-97.742
'0:12.191',-55.688
'0:12.195',17.084
'0:12.199',66.202
'0:12.203',87.229
'0:12.207',24.641
'0:12.211',-117.126
'0:12.215',-191.295
'0:12.219',-67.023
'0:12.223',60.288
'0:12.227',114.744
'0:12.230',109.57
'0:12.234',35.154
'0:12.238',-33.019
'0:12.242',-59.959
'0:12.246',-50.267
'0:12.250',-14.127
'0:12.254',-20.37
'0:12.258',-78.358
'0:12.262',-83.45
'0:12.266',12.567
'0:12.270',99.631
'0:12.273',143.574
'0:12.277',117.373
'0:12.281',-1.725
'0:12.285',-156.469
'0:12.289',-145.956
'0:12.293',29.24
'0:12.297',146.777
'0:12.301',220.125
'0:12.305',220.371
'0:12.309',101.52
'0:12.313',-57.577
'0:12.316',-157.619
'0:12.320',-75.319
'0:12.324',18.234
'0:12.328',64.313
'0:12.332',53.553
'0:12.336',-0.657
'0:12.340',-76.962
'0:12.344',-132.239
'0:12.348',-128.215
'0:12.352',-69.405
'0:12.355',-61.356
'0:12.359',-140.864
'0:12.363',-229.817
'0:12.367',-275.156
'0:12.371',-108.502
'0:12.375',147.599
'0:12.379',260.865
'0:12.383',251.665
'0:12.387',249.201
'0:12.391',312.61
'0:12.395',478.115
'0:12.398',638.034
'0:12.402',792.779
'0:12.406',826.454
'0:12.410',611.833
'0:12.414',375.937
'0:12.418',169.693
'0:12.422',38.686
'0:12.426',-25.216
'0:12.430',-47.885
'0:12.434',-116.88
'0:12.438',-93.717
'0:12.441',10.349
'0:12.445',71.048
'0:12.449',91.5
'0:12.453',53.553
'0:12.457',-30.883
'0:12.461',1.725
'0:12.465',110.391
'0:12.469',201.234
'0:12.473',267.025
'0:12.477',183.985
'0:12.480',8.46
'0:12.484',-120.083
'0:12.488',-189.652
'0:12.492',-146.531
'0:12.496',-49.775
'0:12.500',-42.711
'0:12.504',-70.801
'0:12.508',-140.864
'0:12.512',-150.063
'0:12.516',-85.832
'0:12.520',-10.678
'0:12.523',-1.232
'0:12.527',-22.752
'0:12.531',-55.688
'0:12.535',-61.849
'0:12.539',-45.996
'0:12.543',-9.61
'0:12.547',66.448
'0:12.551',178.893
'0:12.555',237.374
'0:12.559',103.902
'0:12.563',-20.123
'0:12.566',3.368
'0:12.570',153.02
'0:12.574',288.298
'0:12.578',278.113
'0:12.582',166.736
'0:12.586',33.594
'0:12.590',-16.345
'0:12.594',-2.793
'0:12.598',-31.13
'0:12.602',-87.229
'0:12.605',-183.985
'0:12.609',-193.677
'0:12.613',-162.137
'0:12.617',-113.102
'0:12.621',-74.251
'0:12.625',34.087
'0:12.629',99.385
'0:12.633',133.307
'0:12.637',192.117
'0:12.641',269.982
'0:12.645',255.69
'0:12.648',102.835
'0:12.652',-89.939
'0:12.656',-160.576
'0:12.660',-161.89
'0:12.664',-92.321
'0:12.668',-40.822
'0:12.672',-41.15
'0:12.676',-73.183
'0:12.680',-171.09
'0:12.684',-229.324
'0:12.688',-134.703
'0:12.691',10.349
'0:12.695',98.235
'0:12.699',107.681
'0:12.703',53.799
'0:12.707',16.017
'0:12.711',-20.123
'0:12.715',-14.127
'0:12.719',58.645
'0:12.723',161.315
'0:12.727',78.276
'0:12.730',-198.03
'0:12.734',-329.284
'0:12.738',-261.604
'0:12.742',-164.026
'0:12.746',-96.674
'0:12.750',-55.442
'0:12.754',-44.929
'0:12.758',-76.469
'0:12.762',-188.338
'0:12.766',-230.638
'0:12.770',-10.103
'0:12.773',185.381
'0:12.777',220.125
'0:12.781',185.053
'0:12.785',54.046
'0:12.789',-228.996
'0:12.793',-299.386
'0:12.797',-53.224
'0:12.801',374.623
'0:12.805',447.149
'0:12.809',177.004
'0:12.813',-247.887
'0:12.816',-404.521
'0:12.820',-309.079
'0:12.824',-129.529
'0:12.828',134.375
'0:12.832',215.525
'0:12.836',9.035
'0:12.840',-254.622
'0:12.844',-320.66
'0:12.848',-263.821
'0:12.852',-202.055
'0:12.855',-183.739
'0:12.859',-203.123
'0:12.863',-216.593
'0:12.867',-150.802
'0:12.871',-80.493
'0:12.875',-75.072
'0:12.879',-116.058
'0:12.883',-110.966
'0:12.887',-39.261
'0:12.891',23.08
'0:12.895',63.245
'0:12.898',139.796
'0:12.902',346.861
'0:12.906',506.123
'0:12.910',591.873
'0:12.914',571.093
'0:12.918',422.016
'0:12.922',262.754
'0:12.926',107.434
'0:12.930',15.77
'0:12.934',-49.446
'0:12.938',-73.43
'0:12.941',-38.933
'0:12.945',-76.962
'0:12.949',-143.328
'0:12.953',-140.289
'0:12.957',-76.962
'0:12.961',-65.134
'0:12.965',-94.785
'0:12.969',-104.477
'0:12.973',-149.734
'0:12.977',-185.053
'0:12.980',-145.463
'0:12.984',-117.948
'0:12.988',-111.212
'0:12.992',-85.586
'0:12.996',-85.586
'0:13.000',-93.717
'0:13.004',-98.563
'0:13.008',-109.898
'0:13.012',-132.814
'0:13.016',-131.664
'0:13.020',-155.977
'0:13.023',-177.496
'0:13.027',-189.406
'0:13.031',-166.49
'0:13.035',-181.85
'0:13.039',-171.583
'0:13.043',-160.823
'0:13.047',-173.472
'0:13.051',-165.669
'0:13.055',-117.701
'0:13.059',-47.885
'0:13.063',-37.043
'0:13.066',-27.351
'0:13.070',-31.376
'0:13.074',-32.197
'0:13.078',-44.354
'0:13.082',-36.222
'0:13.086',-14.456
'0:13.090',-2.793
'0:13.094',-0.164
'0:13.098',-24.394
'0:13.102',-47.557
'0:13.105',-107.188
'0:13.109',-97.742
'0:13.113',-52.403
'0:13.117',30.062
'0:13.121',40.822
'0:13.125',38.686
'0:13.129',22.259
'0:13.133',3.368
'0:13.137',-13.881
'0:13.141',-23.573
'0:13.145',17.413
'0:13.148',16.345
'0:13.152',-27.105
'0:13.156',-53.799
'0:13.160',-35.976
'0:13.164',25.462
'0:13.168',69.159
'0:13.172',50.514
'0:13.176',-11.499
'0:13.180',-55.113
'0:13.184',-82.054
'0:13.188',-49.2
'0:13.191',-38.933
'0:13.195',-62.67
'0:13.199',-66.695
'0:13.203',-62.424
'0:13.207',-66.695
'0:13.211',-42.218
'0:13.215',-2.053
'0:13.219',-19.302
'0:13.223',-57.003
'0:13.227',-106.613
'0:13.230',-72.362
'0:13.234',-10.103
'0:13.238',34.333
'0:13.242',5.503
'0:13.246',-33.594
'0:13.250',-47.064
'0:13.254',-55.688
'0:13.258',-48.953
'0:13.262',-62.177
'0:13.266',-5.01
'0:13.270',13.306
'0:13.273',-38.111
'0:13.277',-41.643
'0:13.281',-27.105
'0:13.285',-86.654
'0:13.289',-112.28
'0:13.293',-53.224
'0:13.297',90.678
'0:13.301',179.385
'0:13.305',196.141
'0:13.309',202.055
'0:13.313',92.896
'0:13.316',-18.727
'0:13.320',-51.335
'0:13.324',-5.503
'0:13.328',38.44
'0:13.332',18.973
'0:13.336',-28.419
'0:13.340',-41.15
'0:13.344',-36.222
'0:13.348',-47.31
'0:13.352',-94.785
'0:13.355',-135.196
'0:13.359',-117.373
'0:13.363',-58.399
'0:13.367',-11.171
'0:13.371',-51.089
'0:13.375',-109.077
'0:13.379',-73.43
'0:13.383',-12.567
'0:13.387',8.789
'0:13.391',69.159
'0:13.395',160.248
'0:13.398',152.691
'0:13.402',125.504
'0:13.406',37.618
'0:13.410',165.669
'0:13.414',457.088
'0:13.418',725.591
'0:13.422',797.871
'0:13.426',621.525
'0:13.430',390.229
'0:13.434',193.184
'0:13.438',94.785
'0:13.441',12.238
'0:13.445',-27.598
'0:13.449',-12.813
'0:13.453',38.933
'0:13.457',11.992
'0:13.461',-1.725
'0:13.465',96.346
'0:13.469',197.455
'0:13.473',177.004
'0:13.477',91.253
'0:13.480',49.775
'0:13.484',50.514
'0:13.488',104.477
'0:13.492',102.588
'0:13.496',46.243
'0:13.500',-34.415
'0:13.504',-131.664
'0:13.508',-73.758
'0:13.512',7.146
'0:13.516',-61.356
'0:13.520',-92.321
'0:13.523',-43.532
'0:13.527',-30.308
'0:13.531',0.411
'0:13.535',17.906
'0:13.539',52.403
'0:13.543',22.259
'0:13.547',-8.214
'0:13.551',5.257
'0:13.555',0.657
'0:13.559',0.903
'0:13.563',5.01
'0:13.566',54.046
'0:13.570',96.674
'0:13.574',202.301
'0:13.578',235.484
'0:13.582',154.088
'0:13.586',24.969
'0:13.590',-90.678
'0:13.594',-66.202
'0:13.598',-67.844
'0:13.602',-55.113
'0:13.605',-91.828
'0:13.609',-85.586
'0:13.613',-16.592
'0:13.617',67.762
'0:13.621',78.604
'0:13.625',85.093
'0:13.629',99.878
'0:13.633',72.691
'0:13.637',41.15
'0:13.641',76.715
'0:13.645',200.412
'0:13.648',262.179
'0:13.652',310.968
'0:13.656',259.222
'0:13.660',31.376
'0:13.664',41.397
'0:13.668',97.988
'0:13.672',99.385
'0:13.676',-50.021
'0:13.680',-223.903
'0:13.684',-186.942
'0:13.688',-136.51
'0:13.691',-127.886
'0:13.695',-107.434
'0:13.699',-65.955
'0:13.703',-42.464
'0:13.707',-80.986
'0:13.711',-85.832
'0:13.715',-74.58
'0:13.719',-26.53
'0:13.723',30.062
'0:13.727',78.604
'0:13.730',93.717
'0:13.734',-18.973
'0:13.738',-79.426
'0:13.742',-29.24
'0:13.746',-8.214
'0:13.750',-10.349
'0:13.754',56.181
'0:13.758',229.324
'0:13.762',309.653
'0:13.766',221.768
'0:13.770',-42.218
'0:13.773',-259.222
'0:13.777',-241.973
'0:13.781',-179.96
'0:13.785',-130.35
'0:13.789',-73.43
'0:13.793',-20.616
'0:13.797',-13.306
'0:13.801',-26.53
'0:13.805',-41.643
'0:13.809',-39.261
'0:13.813',-23.819
'0:13.816',-31.376
'0:13.820',-40
'0:13.824',-54.046
'0:13.828',-24.148
'0:13.832',18.234
'0:13.836',105.299
'0:13.840',85.832
'0:13.844',-104.477
'0:13.848',-223.903
'0:13.852',-227.435
'0:13.855',-196.963
'0:13.859',-112.034
'0:13.863',-54.867
'0:13.867',-80.986
'0:13.871',-134.703
'0:13.875',-165.094
'0:13.879',-171.336
'0:13.883',-111.212
'0:13.887',-15.195
'0:13.891',47.31
'0:13.895',91.828
'0:13.898',216.593
'0:13.902',286.163
'0:13.906',287.23
'0:13.910',187.763
'0:13.914',174.293
'0:13.918',298.565
'0:13.922',348.422
'0:13.926',229.571
'0:13.930',184.231
'0:13.934',157.044
'0:13.938',109.077
'0:13.941',41.15
'0:13.945',-14.949
'0:13.949',17.084
'0:13.953',53.553
'0:13.957',-4.189
'0:13.961',-64.559
'0:13.965',-75.894
'0:13.969',-22.259
'0:13.973',-18.481
'0:13.977',-65.134
'0:13.980',-103.902
'0:13.984',-91.007
'0:13.988',-46.735
'0:13.992',-55.688
'0:13.996',-61.027
'0:14.000',-81.808
'0:14.004',-59.467
'0:14.008',-20.616
'0:14.012',-26.53
'0:14.016',-71.048
'0:14.020',-89.118
'0:14.023',-121.151
'0:14.027',-104.724
'0:14.031',-79.672
'0:14.035',-42.711
'0:14.039',-42.218
'0:14.043',-24.394
'0:14.047',-8.46
'0:14.051',-14.127
'0:14.055',-37.865
'0:14.059',-83.45
'0:14.063',-147.599
'0:14.066',-151.623
'0:14.070',-115.237
'0:14.074',-78.029
'0:14.078',-41.397
'0:14.082',-5.832
'0:14.086',39.754
'0:14.090',61.849
'0:14.094',54.621
'0:14.098',45.175
'0:14.102',45.421
'0:14.105',23.573
'0:14.109',-0.986
'0:14.113',-22.259
'0:14.117',-18.481
'0:14.121',8.789
'0:14.125',48.132
'0:14.129',58.645
'0:14.133',59.959
'0:14.137',35.729
'0:14.141',28.994
'0:14.145',31.705
'0:14.148',8.789
'0:14.152',-3.368
'0:14.156',-25.709
'0:14.160',-18.973
'0:14.164',-4.189
'0:14.168',-11.171
'0:14.172',-19.302
'0:14.176',-22.752
'0:14.180',-48.378
'0:14.184',-35.976
'0:14.188',-30.062
'0:14.191',24.148
'0:14.195',22.505
'0:14.199',2.3
'0:14.203',1.232
'0:14.207',-27.351
'0:14.211',-39.261
'0:14.215',-41.15
'0:14.219',-31.376
'0:14.223',-18.234
'0:14.227',1.725
'0:14.230',23.08
'0:14.234',7.967
'0:14.238',-10.924
'0:14.242',-14.456
'0:14.246',-14.456
'0:14.250',-11.499
'0:14.254',-9.281
'0:14.258',-10.678
'0:14.262',1.725
'0:14.266',31.705
'0:14.270',49.446
'0:14.273',53.799
'0:14.277',9.281
'0:14.281',-53.799
'0:14.285',-74.005
'0:14.289',-49.2
'0:14.293',-4.189
'0:14.297',32.197
'0:14.301',71.048
'0:14.305',87.721
'0:14.309',114.169
'0:14.313',79.426
'0:14.316',53.224
'0:14.320',43.039
'0:14.324',24.148
'0:14.328',16.592
'0:14.332',-1.725
'0:14.336',-11.992
'0:14.340',-6.324
'0:14.344',-9.035
'0:14.348',-15.77
'0:14.352',-33.019
'0:14.355',-27.598
'0:14.359',-8.214
'0:14.363',-10.924
'0:14.367',-45.996
'0:14.371',-91.828
'0:14.375',-181.028
'0:14.379',-195.895
'0:14.383',-81.808
'0:14.387',76.962
'0:14.391',145.463
'0:14.395',155.977
'0:14.398',156.223
'0:14.402',203.123
'0:14.406',268.668
'0:14.410',328.216
'0:14.414',450.106
'0:14.418',487.807
'0:14.422',343.083
'0:14.426',230.638
'0:14.430',167.804
'0:14.434',169.447
'0:14.438',135.196
'0:14.441',96.674
'0:14.445',72.116
'0:14.449',25.462
'0:14.453',22.752
'0:14.457',-28.419
'0:14.461',-48.378
'0:14.465',-39.508
'0:14.469',-87.475
'0:14.473',-121.151
'0:14.477',-124.19
'0:14.480',-115.237
'0:14.484',-106.859
'0:14.488',-119.59
'0:14.492',-104.97
'0:14.496',-93.717
'0:14.500',-69.159
'0:14.504',-27.598
'0:14.508',38.111
'0:14.512',98.235
'0:14.516',112.28
'0:14.520',50.267
'0:14.523',-43.286
'0:14.527',-169.447
'0:14.531',-199.92
'0:14.535',-169.94
'0:14.539',-112.28
'0:14.543',-71.869
'0:14.547',-42.464
'0:14.551',-19.548
'0:14.555',-22.013
'0:14.559',-28.994
'0:14.563',-20.863
'0:14.566',-9.281
'0:14.570',11.417
'0:14.574',8.789
'0:14.578',34.087
'0:14.582',42.711
'0:14.586',55.688
'0:14.590',76.469
'0:14.594',72.691
'0:14.598',97.167
'0:14.602',90.678
'0:14.605',104.97
'0:14.609',94.21
'0:14.613',58.645
'0:14.617',35.154
'0:14.621',-3.368
'0:14.625',24.148
'0:14.629',41.397
'0:14.633',68.091
'0:14.637',79.426
'0:14.641',31.13
'0:14.645',0.411
'0:14.648',-16.345
'0:14.652',-13.881
'0:14.656',7.967
'0:14.660',24.969
'0:14.664',31.13
'0:14.668',19.548
'0:14.672',6.324
'0:14.676',8.214
'0:14.680',-9.035
'0:14.684',-1.232
'0:14.688',4.189
'0:14.691',5.832
'0:14.695',37.372
'0:14.699',20.37
'0:14.703',31.705
'0:14.707',23.819
'0:14.711',-7.146
'0:14.715',5.832
'0:14.719',17.084
'0:14.723',27.598
'0:14.727',24.394
'0:14.730',-3.121
'0:14.734',7.967
'0:14.738',14.702
'0:14.742',39.508
'0:14.746',54.621
'0:14.750',46.243
'0:14.754',42.464
'0:14.758',47.557
'0:14.762',69.651
'0:14.766',84.272
'0:14.770',62.67
'0:14.773',76.715
'0:14.777',64.066
'0:14.781',68.912
'0:14.785',68.091
'0:14.789',78.604
'0:14.793',106.366
'0:14.797',124.683
'0:14.801',131.172
'0:14.805',118.523
'0:14.809',129.775
'0:14.813',76.715
'0:14.816',47.557
'0:14.820',51.91
'0:14.824',20.123
'0:14.828',-14.949
'0:14.832',12.567
'0:14.836',11.171
'0:14.840',0.164
'0:14.844',4.682
'0:14.848',-13.06
'0:14.852',-2.793
'0:14.855',9.61
'0:14.859',28.748
'0:14.863',19.302
'0:14.867',21.438
'0:14.871',77.537
'0:14.875',132.239
'0:14.879',181.85
'0:14.883',178.564
'0:14.887',171.829
'0:14.891',180.453
'0:14.895',212.815
'0:14.898',302.097
'0:14.902',375.445
'0:14.906',453.063
'0:14.910',393.432
'0:14.914',247.312
'0:14.918',177.496
'0:14.922',138.399
'0:14.926',136.264
'0:14.930',109.077
'0:14.934',52.403
'0:14.938',20.616
'0:14.941',57.577
'0:14.945',110.391
'0:14.949',114.991
'0:14.953',130.925
'0:14.957',75.072
'0:14.961',4.189
'0:14.965',-26.037
'0:14.969',-31.376
'0:14.973',-37.865
'0:14.977',-57.577
'0:14.980',-58.892
'0:14.984',-72.362
'0:14.988',-79.919
'0:14.992',-103.081
'0:14.996',-105.545
'0:15.000',-121.726
'0:15.004',-57.577
'0:15.008',-37.618
'0:15.012',-11.992
'0:15.016',-8.789
'0:15.020',-19.795
'0:15.023',-50.267
'0:15.027',-18.727
'0:15.031',-31.951
'0:15.035',2.3
'0:15.039',10.924
'0:15.043',15.77
'0:15.047',0.657
'0:15.051',-13.881
'0:15.055',-29.487
'0:15.059',-5.503
'0:15.063',-1.478
'0:15.066',-46.735
'0:15.070',-43.286
'0:15.074',-14.949
'0:15.078',5.257
'0:15.082',12.813
'0:15.086',34.908
'0:15.090',36.797
'0:15.094',48.625
'0:15.098',54.292
'0:15.102',78.029
'0:15.105',113.348
'0:15.109',114.169
'0:15.113',127.886
'0:15.117',120.904
'0:15.121',98.235
'0:15.125',38.686
'0:15.129',21.191
'0:15.133',44.354
'0:15.137',49.446
'0:15.141',46.735
'0:15.145',9.61
'0:15.148',8.789
'0:15.152',-3.943
'0:15.156',14.702
'0:15.160',-3.121
'0:15.164',-5.832
'0:15.168',-6.571
'0:15.172',-4.682
'0:15.176',-2.793
'0:15.180',-3.121
'0:15.184',-5.257
'0:15.188',-6.324
'0:15.191',-20.37
'0:15.195',-33.594
'0:15.199',-18.727
'0:15.203',-22.752
'0:15.207',7.392
'0:15.211',9.61
'0:15.215',-16.592
'0:15.219',-61.027
'0:15.223',-34.661
'0:15.227',-12.567
'0:15.230',2.793
'0:15.234',-2.546
'0:15.238',36.551
'0:15.242',45.996
'0:15.246',82.629
'0:15.250',82.054
'0:15.254',93.964
'0:15.258',86.654
'0:15.262',81.315
'0:15.266',84.518
'0:15.270',65.38
'0:15.273',75.894
'0:15.277',7.721
'0:15.281',-117.701
'0:15.285',-145.217
'0:15.289',-83.204
'0:15.293',38.111
'0:15.297',130.925
'0:15.301',134.95
'0:15.305',124.108
'0:15.309',92.896
'0:15.313',92.896
'0:15.316',95.607
'0:15.320',66.448
'0:15.324',29.815
'0:15.328',33.265
'0:15.332',43.286
'0:15.336',56.756
'0:15.340',107.434
'0:15.344',137.66
'0:15.348',100.124
'0:15.352',6.899
'0:15.355',-28.748
'0:15.359',-6.571
'0:15.363',76.14
'0:15.367',180.782
'0:15.371',176.429
'0:15.375',76.962
'0:15.379',58.645
'0:15.383',143.574
'0:15.387',337.908
'0:15.391',532.818
'0:15.395',683.537
'0:15.398',718.035
'0:15.402',570.025
'0:15.406',375.937
'0:15.410',253.554
'0:15.414',183.739
'0:15.418',122.794
'0:15.422',91.5
'0:15.426',65.955
'0:15.430',26.53
'0:15.434',35.483
'0:15.438',20.37
'0:15.441',23.327
'0:15.445',3.121
'0:15.449',13.306
'0:15.453',48.378
'0:15.457',107.681
'0:15.461',159.426
'0:15.465',163.78
'0:15.469',118.523
'0:15.473',75.072
'0:15.477',32.197
'0:15.480',13.881
'0:15.484',31.376
'0:15.488',33.84
'0:15.492',55.113
'0:15.496',61.027
'0:15.500',91.828
'0:15.504',79.919
'0:15.508',54.621
'0:15.512',28.419
'0:15.516',29.815
'0:15.520',54.867
'0:15.523',90.186
'0:15.527',99.878
'0:15.531',93.964
'0:15.535',50.267
'0:15.539',27.598
'0:15.543',12.238
'0:15.547',18.234
'0:15.551',25.462
'0:15.555',30.062
'0:15.559',26.037
'0:15.563',29.487
'0:15.566',35.729
'0:15.570',41.15
'0:15.574',44.354
'0:15.578',102.835
'0:15.582',106.613
'0:15.586',116.633
'0:15.590',109.323
'0:15.594',110.391
'0:15.598',133.307
'0:15.602',151.952
'0:15.605',162.958
'0:15.609',158.112
'0:15.613',128.707
'0:15.617',73.43
'0:15.621',-17.413
'0:15.625',-40
'0:15.629',-22.259
'0:15.633',20.123
'0:15.637',77.208
'0:15.641',105.545
'0:15.645',91.5
'0:15.648',20.616
'0:15.652',13.635
'0:15.656',27.926
'0:15.660',17.906
'0:15.664',-6.899
'0:15.668',-39.261
'0:15.672',-47.31
'0:15.676',-22.505
'0:15.680',10.924
'0:15.684',35.483
'0:15.688',9.856
'0:15.691',-23.819
'0:15.695',-16.592
'0:15.699',-6.899
'0:15.703',13.306
'0:15.707',37.865
'0:15.711',55.688
'0:15.715',33.84
'0:15.719',13.881
'0:15.723',0.411
'0:15.727',20.616
'0:15.730',35.483
'0:15.734',31.705
'0:15.738',46.243
'0:15.742',64.313
'0:15.746',51.91
'0:15.750',37.865
'0:15.754',19.548
'0:15.758',30.883
'0:15.762',60.288
'0:15.766',94.21
'0:15.770',129.775
'0:15.773',116.058
'0:15.777',69.405
'0:15.781',20.863
'0:15.785',2.3
'0:15.789',14.127
'0:15.793',28.748
'0:15.797',32.197
'0:15.801',36.551
'0:15.805',35.976
'0:15.809',16.345
'0:15.813',14.456
'0:15.816',0.411
'0:15.820',3.368
'0:15.824',2.793
'0:15.828',-0.411
'0:15.832',-2.053
'0:15.836',15.524
'0:15.840',17.659
'0:15.844',18.481
'0:15.848',-13.881
'0:15.852',-30.062
'0:15.855',-31.376
'0:15.859',-1.478
'0:15.863',-2.053
'0:15.867',47.31
'0:15.871',79.426
'0:15.875',95.607
'0:15.879',50.267
'0:15.883',37.618
'0:15.887',142.999
'0:15.891',365.67
'0:15.895',534.46
'0:15.898',662.757
'0:15.902',640.17
'0:15.906',383.74
'0:15.910',136.839
'0:15.914',29.815
'0:15.918',23.573
'0:15.922',46.243
'0:15.926',117.701
'0:15.930',142.753
'0:15.934',20.863
'0:15.938',-116.305
'0:15.941',-133.061
'0:15.945',-83.943
'0:15.949',-68.091
'0:15.953',-51.664
'0:15.957',-50.267
'0:15.961',-49.446
'0:15.965',-34.415
'0:15.969',-35.976
'0:15.973',-35.154
'0:15.977',-33.265
'0:15.980',-17.413
'0:15.984',-3.614
'0:15.988',10.924
'0:15.992',-2.546
'0:15.996',-45.421
'0:16.000',-29.24
'0:16.004',-5.257
'0:16.008',51.91
'0:16.012',55.935
'0:16.016',5.832
'0:16.020',-65.627
'0:16.023',-137.332
'0:16.027',-153.266
'0:16.031',-128.215
'0:16.035',-87.229
'0:16.039',-42.711
'0:16.043',-26.037
'0:16.047',-20.37
'0:16.051',-26.859
'0:16.055',-20.863
'0:16.059',4.435
'0:16.063',35.729
'0:16.066',27.351
'0:16.070',8.214
'0:16.074',-47.31
'0:16.078',-425.548
'0:16.082',-744.236
'0:16.086',-969.289
'0:16.090',-1148.1
'0:16.094',-1285.267
'0:16.098',-1387.198
'0:16.102',-1473.195
'0:16.105',-1576.194
'0:16.109',-1638.453
'0:16.113',-1684.285
'0:16.117',-1664.572
'0:16.121',-1669.172
'0:16.125',-1760.014
'0:16.129',-1873.28
'0:16.133',-1967.901
'0:16.137',-1993.774
'0:16.141',-1930.94
'0:16.145',-1771.678
'0:16.148',-1596.974
'0:16.152',-1305.473
'0:16.156',-733.394
'0:16.160',-402.878
'0:16.164',-182.671
'0:16.168',-52.403
'0:16.172',34.087
'0:16.176',62.177
'0:16.180',61.602
'0:16.184',97.496
'0:16.188',125.751
'0:16.191',116.058
'0:16.195',114.416
'0:16.199',127.147
'0:16.203',172.65
'0:16.207',200.166
'0:16.211',196.388
'0:16.215',183.739
'0:16.219',163.533
'0:16.223',172.157
'0:16.227',180.782
'0:16.230',193.431
'0:16.234',198.523
'0:16.238',179.385
'0:16.242',172.65
'0:16.246',195.895
'0:16.250',222.261
'0:16.254',258.4
'0:16.258',287.805
'0:16.262',298.565
'0:16.266',293.719
'0:16.270',274.828
'0:16.273',262.179
'0:16.277',239.838
'0:16.281',231.706
'0:16.285',257.333
'0:16.289',239.509
'0:16.293',214.704
'0:16.297',194.252
'0:16.301',213.883
'0:16.305',234.91
'0:16.309',296.922
'0:16.313',337.087
'0:16.316',351.954
'0:16.320',298.072
'0:16.324',228.996
'0:16.328',146.777
'0:16.332',116.633
'0:16.336',120.904
'0:16.340',125.997
'0:16.344',155.73
'0:16.348',206.08
'0:16.352',210.679
'0:16.355',187.517
'0:16.359',178.318
'0:16.363',142.178
'0:16.367',142.999
'0:16.371',207.147
'0:16.375',273.267
'0:16.379',296.922
'0:16.383',302.343
'0:16.387',340.619
'0:16.391',431.215
'0:16.395',489.696
'0:16.398',483.782
'0:16.402',389.736
'0:16.406',293.473
'0:16.410',328.463
'0:16.414',367.067
'0:16.418',368.956
'0:16.422',334.13
'0:16.426',330.927
'0:16.430',226.614
'0:16.434',59.713
'0:16.438',84.518
'0:16.441',248.708
'0:16.445',408.053
'0:16.449',420.127
'0:16.453',270.228
'0:16.457',131.993
'0:16.461',88.789
'0:16.465',110.966
'0:16.469',113.594
'0:16.473',145.71
'0:16.477',189.652
'0:16.480',182.671
'0:16.484',209.858
'0:16.488',197.209
'0:16.492',194.745
'0:16.496',142.753
'0:16.500',29.487
'0:16.504',-5.503
'0:16.508',35.154
'0:16.512',129.282
'0:16.516',249.53
'0:16.520',291.009
'0:16.523',242.466
'0:16.527',199.098
'0:16.531',174.293
'0:16.535',198.03
'0:16.539',245.998
'0:16.543',295.855
'0:16.547',262.754
'0:16.551',200.412
'0:16.555',144.395
'0:16.559',150.309
'0:16.563',205.258
'0:16.566',235.238
'0:16.570',259.468
'0:16.574',226.86
'0:16.578',142.178
'0:16.582',102.342
'0:16.586',93.142
'0:16.590',108.256
'0:16.594',136.51
'0:16.598',181.603
'0:16.602',194.499
'0:16.605',192.117
'0:16.609',162.958
'0:16.613',187.271
'0:16.617',193.431
'0:16.621',251.912
'0:16.625',283.452
'0:16.629',305.875
'0:16.633',316.635
'0:16.637',245.752
'0:16.641',164.601
'0:16.645',131.418
'0:16.648',112.855
'0:16.652',100.124
'0:16.656',62.916
'0:16.660',65.955
'0:16.664',112.527
'0:16.668',124.108
'0:16.672',98.563
'0:16.676',96.921
'0:16.680',68.091
'0:16.684',66.695
'0:16.688',61.027
'0:16.691',79.426
'0:16.695',106.366
'0:16.699',111.705
'0:16.703',100.699
'0:16.707',99.056
'0:16.711',128.215
'0:16.715',179.139
'0:16.719',184.56
'0:16.723',104.97
'0:16.727',49.2
'0:16.730',40
'0:16.734',59.959
'0:16.738',75.647
'0:16.742',82.875
'0:16.746',160.576
'0:16.750',260.043
'0:16.754',246.573
'0:16.758',207.476
'0:16.762',128.215
'0:16.766',77.208
'0:16.770',71.294
'0:16.773',16.345
'0:16.777',22.505
'0:16.781',87.229
'0:16.785',210.679
'0:16.789',317.21
'0:16.793',317.21
'0:16.797',223.903
'0:16.801',107.681
'0:16.805',83.204
'0:16.809',45.996
'0:16.813',-58.645
'0:16.816',-117.126
'0:16.820',19.302
'0:16.824',114.416
'0:16.828',100.945
'0:16.832',-16.345
'0:16.836',-68.912
'0:16.840',-24.969
'0:16.844',-20.37
'0:16.848',-109.323
'0:16.852',-93.717
'0:16.855',-27.105
'0:16.859',88.543
'0:16.863',163.205
'0:16.867',119.59
'0:16.871',79.097
'0:16.875',124.108
'0:16.879',118.523
'0:16.883',52.403
'0:16.887',61.849
'0:16.891',184.56
'0:16.895',450.106
'0:16.898',696.515
'0:16.902',732.655
'0:16.906',568.957
'0:16.910',312.035
'0:16.914',164.355
'0:16.918',120.658
'0:16.922',53.799
'0:16.926',-10.924
'0:16.930',14.702
'0:16.934',59.713
'0:16.938',49.775
'0:16.941',-24.148
'0:16.945',-21.191
'0:16.949',136.264
'0:16.953',172.65
'0:16.957',81.561
'0:16.961',-51.91
'0:16.965',-145.463
'0:16.969',-149.488
'0:16.973',-96.346
'0:16.977',-48.378
'0:16.980',-30.883
'0:16.984',-63.491
'0:16.988',-105.299
'0:16.992',-148.42
'0:16.996',-142.506
'0:17.000',-134.95
'0:17.004',-89.118
'0:17.008',-92.075
'0:17.012',-110.145
'0:17.016',-72.691
'0:17.020',-27.105
'0:17.023',29.487
'0:17.027',49.446
'0:17.031',25.709
'0:17.035',2.3
'0:17.039',9.035
'0:17.043',39.754
'0:17.047',74.005
'0:17.051',57.249
'0:17.055',25.216
'0:17.059',14.949
'0:17.063',-8.46
'0:17.066',6.571
'0:17.070',7.146
'0:17.074',9.035
'0:17.078',45.421
'0:17.082',67.023
'0:17.086',98.563
'0:17.090',119.59
'0:17.094',108.748
'0:17.098',82.629
'0:17.102',85.586
'0:17.105',96.346
'0:17.109',100.124
'0:17.113',92.896
'0:17.117',84.272
'0:17.121',85.586
'0:17.125',63.245
'0:17.129',37.372
'0:17.133',31.376
'0:17.137',50.842
'0:17.141',79.426
'0:17.145',104.97
'0:17.148',100.453
'0:17.152',53.224
'0:17.156',-3.614
'0:17.160',-43.039
'0:17.164',-26.037
'0:17.168',26.037
'0:17.172',28.419
'0:17.176',28.173
'0:17.180',10.349
'0:17.184',40.329
'0:17.188',39.754
'0:17.191',27.351
'0:17.195',-0.657
'0:17.199',-17.659
'0:17.203',-38.44
'0:17.207',-10.349
'0:17.211',52.156
'0:17.215',87.229
'0:17.219',92.896
'0:17.223',110.637
'0:17.227',106.12
'0:17.230',102.342
'0:17.234',88.296
'0:17.238',62.424
'0:17.242',1.725
'0:17.246',-64.313
'0:17.250',-117.701
'0:17.254',-91.007
'0:17.258',31.951
'0:17.262',111.705
'0:17.266',136.839
'0:17.270',100.124
'0:17.273',37.865
'0:17.277',42.218
'0:17.281',107.188
'0:17.285',185.874
'0:17.289',232.528
'0:17.293',215.525
'0:17.297',197.455
'0:17.301',134.621
'0:17.305',33.265
'0:17.309',-66.202
'0:17.313',-87.721
'0:17.316',-82.054
'0:17.320',-37.618
'0:17.324',-24.969
'0:17.328',24.641
'0:17.332',8.789
'0:17.336',-57.249
'0:17.340',-120.904
'0:17.344',-85.34
'0:17.348',-34.908
'0:17.352',26.53
'0:17.355',142.999
'0:17.359',227.435
'0:17.363',189.652
'0:17.367',107.681
'0:17.371',59.467
'0:17.375',52.156
'0:17.379',61.356
'0:17.383',68.337
'0:17.387',131.172
'0:17.391',257.333
'0:17.395',455.199
'0:17.398',562.469
'0:17.402',705.386
'0:17.406',851.506
'0:17.410',776.269
'0:17.414',562.222
'0:17.418',329.038
'0:17.422',242.795
'0:17.426',103.409
'0:17.430',21.438
'0:17.434',97.496
'0:17.438',133.882
'0:17.441',195.073
'0:17.445',241.727
'0:17.449',214.458
'0:17.453',154.334
'0:17.457',99.385
'0:17.461',27.105
'0:17.465',-15.195
'0:17.469',13.881
'0:17.473',30.637
'0:17.477',-16.592
'0:17.480',-61.849
'0:17.484',-88.871
'0:17.488',-69.405
'0:17.492',-42.218
'0:17.496',-22.259
'0:17.500',-13.635
'0:17.504',9.281
'0:17.508',10.924
'0:17.512',-9.281
'0:17.516',-18.234
'0:17.520',-41.397
'0:17.523',-22.259
'0:17.527',21.684
'0:17.531',62.916
'0:17.535',105.299
'0:17.539',104.724
'0:17.543',80.74
'0:17.547',14.127
'0:17.551',19.302
'0:17.555',83.943
'0:17.559',110.391
'0:17.563',77.537
'0:17.566',52.978
'0:17.570',72.362
'0:17.574',-26.284
'0:17.578',-107.188
'0:17.582',-93.964
'0:17.586',-67.27
'0:17.590',-52.156
'0:17.594',-0.164
'0:17.598',65.627
'0:17.602',95.607
'0:17.605',126.325
'0:17.609',128.461
'0:17.613',101.52
'0:17.617',102.588
'0:17.621',66.448
'0:17.625',31.705
'0:17.629',17.084
'0:17.633',50.021
'0:17.637',63.738
'0:17.641',47.557
'0:17.645',34.661
'0:17.648',35.976
'0:17.652',33.594
'0:17.656',-0.411
'0:17.660',-30.062
'0:17.664',-74.251
'0:17.668',-90.678
'0:17.672',-50.021
'0:17.676',6.571
'0:17.680',-5.01
'0:17.684',-54.292
'0:17.688',-79.919
'0:17.691',-45.996
'0:17.695',30.308
'0:17.699',78.604
'0:17.703',100.699
'0:17.707',70.473
'0:17.711',-30.883
'0:17.715',-114.169
'0:17.719',-202.876
'0:17.723',-192.856
'0:17.727',-104.477
'0:17.730',14.949
'0:17.734',35.729
'0:17.738',-19.795
'0:17.742',-64.313
'0:17.746',-46.489
'0:17.750',-4.189
'0:17.754',11.171
'0:17.758',-7.392
'0:17.762',-90.186
'0:17.766',-99.878
'0:17.770',-96.674
'0:17.773',32.526
'0:17.777',148.174
'0:17.781',154.334
'0:17.785',26.284
'0:17.789',-112.527
'0:17.793',-217.415
'0:17.797',-146.285
'0:17.801',-4.189
'0:17.805',47.064
'0:17.809',-14.702
'0:17.813',-3.614
'0:17.816',-6.571
'0:17.820',-55.113
'0:17.824',-129.529
'0:17.828',-276.224
'0:17.832',-326.574
'0:17.836',-310.968
'0:17.840',-233.842
'0:17.844',-106.366
'0:17.848',-33.265
'0:17.852',-62.916
'0:17.855',-81.808
'0:17.859',-77.208
'0:17.863',-77.537
'0:17.867',-102.342
'0:17.871',-45.421
'0:17.875',-1.725
'0:17.879',-15.77
'0:17.883',32.197
'0:17.887',117.373
'0:17.891',266.532
'0:17.895',406.656
'0:17.898',538.485
'0:17.902',513.433
'0:17.906',360.003
'0:17.910',202.63
'0:17.914',62.916
'0:17.918',-5.503
'0:17.922',-18.727
'0:17.926',-15.524
'0:17.930',29.815
'0:17.934',30.637
'0:17.938',-78.029
'0:17.941',-153.266
'0:17.945',-142.753
'0:17.949',-122.547
'0:17.953',-119.262
'0:17.957',-140.864
'0:17.961',-106.366
'0:17.965',-84.765
'0:17.969',-138.399
'0:17.973',-202.301
'0:17.977',-224.725
'0:17.980',-205.833
'0:17.984',-116.305
'0:17.988',-71.048
'0:17.992',-103.656
'0:17.996',-160.823
'0:18.000',-193.184
'0:18.004',-166.244
'0:18.008',-129.282
'0:18.012',-124.683
'0:18.016',-140.617
'0:18.020',-139.221
'0:18.023',-134.128
'0:18.027',-116.305
'0:18.031',-109.57
'0:18.035',-105.791
'0:18.039',-89.118
'0:18.043',-86.982
'0:18.047',-85.34
'0:18.051',-91.253
'0:18.055',-86.161
'0:18.059',-87.475
'0:18.063',-72.691
'0:18.066',-56.756
'0:18.070',-44.354
'0:18.074',-51.089
'0:18.078',-66.695
'0:18.082',-85.832
'0:18.086',-73.43
'0:18.090',-47.557
'0:18.094',-37.372
'0:18.098',-49.446
'0:18.102',-51.089
'0:18.105',-56.756
'0:18.109',-63.491
'0:18.113',-52.403
'0:18.117',-33.84
'0:18.121',-22.013
'0:18.125',-26.284
'0:18.129',-14.127
'0:18.133',-17.659
'0:18.137',-31.13
'0:18.141',-36.551
'0:18.145',-27.598
'0:18.148',-16.838
'0:18.152',-18.234
'0:18.156',-28.748
'0:18.160',-50.021
'0:18.164',-43.286
'0:18.168',-50.267
'0:18.172',-50.514
'0:18.176',-59.467
'0:18.180',-49.775
'0:18.184',-29.815
'0:18.188',-36.551
'0:18.191',-33.265
'0:18.195',-55.688
'0:18.199',-62.916
'0:18.203',-62.177
'0:18.207',-39.508
'0:18.211',-5.01
'0:18.215',21.93
'0:18.219',2.3
'0:18.223',-24.969
'0:18.227',-96.099
'0:18.230',-80.493
'0:18.234',-45.996
'0:18.238',-38.44
'0:18.242',1.725
'0:18.246',30.637
'0:18.250',32.772
'0:18.254',-7.721
'0:18.258',-30.883
'0:18.262',-59.467
'0:18.266',-36.222
'0:18.270',26.037
'0:18.273',64.805
'0:18.277',63.245
'0:18.281',72.362
'0:18.285',49.2
'0:18.289',46.243
'0:18.293',96.346
'0:18.297',105.545
'0:18.301',54.621
'0:18.305',-6.899
'0:18.309',-71.294
'0:18.313',-199.673
'0:18.316',-304.807
'0:18.320',-284.52
'0:18.324',-292.651
'0:18.328',-290.187
'0:18.332',-265.711
'0:18.336',-241.398
'0:18.340',-99.056
'0:18.344',-14.949
'0:18.348',149.734
'0:18.352',228.996
'0:18.355',245.998
'0:18.359',188.831
'0:18.363',85.093
'0:18.367',-11.171
'0:18.371',53.799
'0:18.375',178.564
'0:18.379',229.324
'0:18.383',239.016
'0:18.387',332.241
'0:18.391',516.144
'0:18.395',583.249
'0:18.398',641.237
'0:18.402',600.251
'0:18.406',417.17
'0:18.410',255.444
'0:18.414',211.501
'0:18.418',254.869
'0:18.422',188.831
'0:18.426',168.379
'0:18.430',164.601
'0:18.434',165.669
'0:18.438',122.794
'0:18.441',135.196
'0:18.445',223.903
'0:18.449',269.16
'0:18.453',185.381
'0:18.457',58.645
'0:18.461',-12.567
'0:18.465',-18.234
'0:18.469',-12.813
'0:18.473',-60.781
'0:18.477',-86.161
'0:18.480',-48.132
'0:18.484',-10.103
'0:18.488',-15.77
'0:18.492',-38.933
'0:18.496',-33.019
'0:18.500',-3.121
'0:18.504',46.735
'0:18.508',76.962
'0:18.512',75.894
'0:18.516',52.403
'0:18.520',64.066
'0:18.523',62.177
'0:18.527',76.14
'0:18.531',107.188
'0:18.535',129.282
'0:18.539',140.289
'0:18.543',111.459
'0:18.547',5.832
'0:18.551',-9.856
'0:18.555',-14.949
'0:18.559',-60.534
'0:18.563',-54.292
'0:18.566',17.906
'0:18.570',63.491
'0:18.574',92.896
'0:18.578',100.453
'0:18.582',62.67
'0:18.586',-19.795
'0:18.590',-37.865
'0:18.594',26.53
'0:18.598',99.385
'0:18.602',143.328
'0:18.605',202.055
'0:18.609',178.564
'0:18.613',119.59
'0:18.617',77.208
'0:18.621',93.964
'0:18.625',51.089
'0:18.629',-12.238
'0:18.633',-33.84
'0:18.637',41.397
'0:18.641',93.964
'0:18.645',166.244
'0:18.648',117.701
'0:18.652',14.949
'0:18.656',24.641
'0:18.660',27.351
'0:18.664',-20.863
'0:18.668',-44.107
'0:18.672',62.916
'0:18.676',157.866
'0:18.680',114.416
'0:18.684',4.189
'0:18.688',-41.643
'0:18.691',-41.15
'0:18.695',-86.161
'0:18.699',-130.925
'0:18.703',-113.102
'0:18.707',-126.572
'0:18.711',-120.658
'0:18.715',-99.056
'0:18.719',-39.508
'0:18.723',81.561
'0:18.727',134.95
'0:18.730',47.557
'0:18.734',-103.902
'0:18.738',-145.956
'0:18.742',-23.327
'0:18.746',119.837
'0:18.750',185.874
'0:18.754',80.74
'0:18.758',-83.45
'0:18.762',-127.64
'0:18.766',-45.996
'0:18.770',0.903
'0:18.773',-13.635
'0:18.777',-60.534
'0:18.781',-67.023
'0:18.785',-12.238
'0:18.789',23.327
'0:18.793',-66.202
'0:18.797',-114.744
'0:18.801',-119.837
'0:18.805',-124.436
'0:18.809',-81.561
'0:18.813',-44.929
'0:18.816',-40
'0:18.820',-65.134
'0:18.824',-126.818
'0:18.828',-168.872
'0:18.832',-113.348
'0:18.836',-69.651
'0:18.840',-25.709
'0:18.844',65.134
'0:18.848',103.081
'0:18.852',17.906
'0:18.855',-87.229
'0:18.859',-198.852
'0:18.863',-276.224
'0:18.867',-191.788
'0:18.871',-40.822
'0:18.875',29.24
'0:18.879',-38.686
'0:18.883',-12.813
'0:18.887',215.525
'0:18.891',444.932
'0:18.895',653.64
'0:18.898',770.602
'0:18.902',699.225
'0:18.906',467.848
'0:18.910',276.717
'0:18.914',289.448
'0:18.918',308.832
'0:18.922',134.375
'0:18.926',-77.208
'0:18.930',-134.375
'0:18.934',-181.85
'0:18.938',-118.769
'0:18.941',-34.087
'0:18.945',-68.912
'0:18.949',-153.266
'0:18.953',-211.254
'0:18.957',-211.747
'0:18.961',-173.718
'0:18.965',-158.934
'0:18.969',-153.266
'0:18.973',-173.472
'0:18.977',-160.823
'0:18.980',-144.067
'0:18.984',-129.282
'0:18.988',-150.556
'0:18.992',-151.623
'0:18.996',-142.999
'0:19.000',-131.418
'0:19.004',-116.058
'0:19.008',-101.274
'0:19.012',-116.305
'0:19.016',-123.861
'0:19.020',-99.385
'0:19.023',-86.982
'0:19.027',-70.226
'0:19.031',-81.315
'0:19.035',-103.656
'0:19.039',-97.496
'0:19.043',-72.691
'0:19.047',-72.691
'0:19.051',-79.919
'0:19.055',-69.159
'0:19.059',-65.955
'0:19.063',-73.43
'0:19.066',-71.048
'0:19.070',-77.783
'0:19.074',-68.912
'0:19.078',-36.222
'0:19.082',-13.306
'0:19.086',-7.967
'0:19.090',-25.709
'0:19.094',-31.705
'0:19.098',-18.973
'0:19.102',-16.017
'0:19.105',-10.103
'0:19.109',-9.035
'0:19.113',-13.881
'0:19.117',-2.546
'0:19.121',-0.986
'0:19.125',5.01
'0:19.129',7.392
'0:19.133',-11.992
'0:19.137',-16.345
'0:19.141',-16.838
'0:19.145',-13.06
'0:19.148',-25.709
'0:19.152',-42.218
'0:19.156',-61.602
'0:19.160',-79.426
'0:19.164',-62.424
'0:19.168',-45.421
'0:19.172',-60.288
'0:19.176',-44.354
'0:19.180',-30.637
'0:19.184',-16.017
'0:19.188',-14.127
'0:19.191',-10.924
'0:19.195',-26.037
'0:19.199',-43.779
'0:19.203',-46.243
'0:19.207',-31.376
'0:19.211',-14.702
'0:19.215',3.368
'0:19.219',-11.171
'0:19.223',-26.53
'0:19.227',-28.173
'0:19.230',-45.996
'0:19.234',-30.062
'0:19.238',-13.635
'0:19.242',18.234
'0:19.246',18.234
'0:19.250',19.795
'0:19.254',36.222
'0:19.258',50.267
'0:19.262',49.2
'0:19.266',20.37
'0:19.270',7.721
'0:19.273',-9.61
'0:19.277',-45.175
'0:19.281',-46.735
'0:19.285',0.411
'0:19.289',16.592
'0:19.293',19.548
'0:19.297',-8.789
'0:19.301',-55.442
'0:19.305',-59.138
'0:19.309',-18.481
'0:19.313',-4.435
'0:19.316',2.793
'0:19.320',-20.616
'0:19.324',-21.684
'0:19.328',-16.345
'0:19.332',-22.013
'0:19.336',0.164
'0:19.340',-36.797
'0:19.344',-50.021
'0:19.348',-44.929
'0:19.352',-55.113
'0:19.355',10.678
'0:19.359',67.27
'0:19.363',74.005
'0:19.367',56.756
'0:19.371',49.775
'0:19.375',153.841
'0:19.379',385.629
'0:19.383',577.089
'0:19.387',654.708
'0:19.391',594.584
'0:19.395',411.831
'0:19.398',272.692
'0:19.402',140.617
'0:19.406',86.161
'0:19.410',33.84
'0:19.414',60.781
'0:19.418',116.058
'0:19.422',146.777
'0:19.426',99.878
'0:19.430',72.362
'0:19.434',51.664
'0:19.438',-8.214
'0:19.441',-74.005
'0:19.445',-107.188
'0:19.449',-108.748
'0:19.453',-84.518
'0:19.457',-46.489
'0:19.461',-29.24
'0:19.465',-11.992
'0:19.469',-27.105
'0:19.473',-16.592
'0:19.477',-57.249
'0:19.480',-88.05
'0:19.484',-90.678
'0:19.488',-95.032
'0:19.492',-100.124
'0:19.496',-89.118
'0:19.500',-87.475
'0:19.504',-91.5
'0:19.508',-64.559
'0:19.512',-38.44
'0:19.516',-41.15
'0:19.520',-35.976
'0:19.523',-25.216
'0:19.527',-2.3
'0:19.531',23.08
'0:19.535',-7.721
'0:19.539',-45.421
'0:19.543',-51.664
'0:19.547',-67.27
'0:19.551',-61.027
'0:19.555',-27.105
'0:19.559',14.702
'0:19.563',25.462
'0:19.566',-0.657
'0:19.570',-22.505
'0:19.574',-68.584
'0:19.578',-139.796
'0:19.582',-132.486
'0:19.586',-72.362
'0:19.590',-4.682
'0:19.594',50.267
'0:19.598',38.44
'0:19.602',-55.688
'0:19.605',-104.97
'0:19.609',-126.818
'0:19.613',-146.777
'0:19.617',-113.594
'0:19.621',-78.851
'0:19.625',-61.602
'0:19.629',-46.243
'0:19.633',-16.345
'0:19.637',29.815
'0:19.641',47.31
'0:19.645',5.503
'0:19.648',-83.45
'0:19.652',-101.767
'0:19.656',-52.156
'0:19.660',17.084
'0:19.664',10.678
'0:19.668',-16.345
'0:19.672',-73.43
'0:19.676',-121.479
'0:19.680',-140.289
'0:19.684',-139.221
'0:19.688',-167.311
'0:19.691',-201.234
'0:19.695',-196.634
'0:19.699',-172.979
'0:19.703',-130.597
'0:19.707',-94.785
'0:19.711',-27.926
'0:19.715',12.567
'0:19.719',7.967
'0:19.723',-27.351
'0:19.727',-71.294
'0:19.730',-87.475
'0:19.734',-82.629
'0:19.738',-13.306
'0:19.742',103.656
'0:19.746',155.402
'0:19.750',91.5
'0:19.754',-59.138
'0:19.758',-163.205
'0:19.762',-132.239
'0:19.766',-11.745
'0:19.770',78.276
'0:19.773',60.781
'0:19.777',13.306
'0:19.781',-62.67
'0:19.785',-144.888
'0:19.789',-117.126
'0:19.793',-79.919
'0:19.797',-168.872
'0:19.801',-244.355
'0:19.805',-246.819
'0:19.809',-188.585
'0:19.813',-113.348
'0:19.816',-51.335
'0:19.820',-34.661
'0:19.824',-106.613
'0:19.828',-203.944
'0:19.832',-199.92
'0:19.836',-153.513
'0:19.840',-127.64
'0:19.844',-96.921
'0:19.848',-28.994
'0:19.852',37.618
'0:19.855',53.799
'0:19.859',-7.392
'0:19.863',10.349
'0:19.867',175.936
'0:19.871',321.727
'0:19.875',498.649
'0:19.879',641.73
'0:19.883',595.159
'0:19.887',350.886
'0:19.891',46.735
'0:19.895',-113.594
'0:19.898',-151.952
'0:19.902',-111.212
'0:19.906',11.992
'0:19.910',74.005
'0:19.914',-15.195
'0:19.918',-144.642
'0:19.922',-171.09
'0:19.926',-150.802
'0:19.930',-134.128
'0:19.934',-74.826
'0:19.938',-52.403
'0:19.941',-40.822
'0:19.945',-141.685
'0:19.949',-231.953
'0:19.953',-273.76
'0:19.957',-263.247
'0:19.961',-227.928
'0:19.965',-153.266
'0:19.969',-80.986
'0:19.973',-129.282
'0:19.977',-216.1
'0:19.980',-257.579
'0:19.984',-245.505
'0:19.988',-219.55
'0:19.992',-111.212
'0:19.996',11.417
'0:20.000',26.53
'0:20.004',-117.948
'0:20.008',-270.557
'0:20.012',-301.522
'0:20.016',-267.846
'0:20.020',-233.103
'0:20.023',-179.714
'0:20.027',-131.172
'0:20.031',-92.321
'0:20.035',-101.767
'0:20.039',-112.527
'0:20.043',-110.966
'0:20.047',-114.991
'0:20.051',-124.19
'0:20.055',-146.531
'0:20.059',-142.178
'0:20.063',-144.067
'0:20.066',-134.128
'0:20.070',-125.504
'0:20.074',-113.594
'0:20.078',-139.549
'0:20.082',-141.11
'0:20.086',-102.835
'0:20.090',-81.808
'0:20.094',-82.629
'0:20.098',-102.835
'0:20.102',-104.231
'0:20.105',-86.654
'0:20.109',-84.272
'0:20.113',-83.204
'0:20.117',-84.765
'0:20.121',-102.013
'0:20.125',-101.274
'0:20.129',-100.124
'0:20.133',-115.483
'0:20.137',-115.812
'0:20.141',-117.373
'0:20.145',-117.701
'0:20.148',-116.305
'0:20.152',-130.597
'0:20.156',-130.35
'0:20.160',-116.88
'0:20.164',-103.409
'0:20.168',-101.767
'0:20.172',-97.742
'0:20.176',-96.346
'0:20.180',-83.697
'0:20.184',-71.541
'0:20.188',-54.867
'0:20.191',-50.021
'0:20.195',-62.424
'0:20.199',-79.672
'0:20.203',-84.518
'0:20.207',-71.541
'0:20.211',-53.553
'0:20.215',-48.625
'0:20.219',-62.177
'0:20.223',-80.165
'0:20.227',-69.159
'0:20.230',-40
'0:20.234',-37.043
'0:20.238',-30.637
'0:20.242',-29.487
'0:20.246',-18.973
'0:20.250',-8.214
'0:20.254',-6.078
'0:20.258',1.232
'0:20.262',3.614
'0:20.266',-1.478
'0:20.270',-37.618
'0:20.273',-51.089
'0:20.277',-77.783
'0:20.281',-108.009
'0:20.285',-128.215
'0:20.289',-118.769
'0:20.293',-103.902
'0:20.297',-113.348
'0:20.301',-168.872
'0:20.305',-200.741
'0:20.309',-195.073
'0:20.313',-188.01
'0:20.316',-183.164
'0:20.320',-109.323
'0:20.324',0.657
'0:20.328',23.573
'0:20.332',-6.571
'0:20.336',-26.284
'0:20.340',-21.438
'0:20.344',-15.524
'0:20.348',-26.53
'0:20.352',22.505
'0:20.355',172.157
'0:20.359',392.365
'0:20.363',544.152
'0:20.367',628.26
'0:20.371',582.756
'0:20.375',454.952
'0:20.379',306.697
'0:20.383',143.574
'0:20.387',52.156
'0:20.391',-5.832
'0:20.395',-9.856
'0:20.398',35.729
'0:20.402',68.584
'0:20.406',62.916
'0:20.410',90.678
'0:20.414',72.362
'0:20.418',-36.797
'0:20.422',-172.157
'0:20.426',-183.739
'0:20.430',-143.574
'0:20.434',-91.5
'0:20.438',-48.953
'0:20.441',-28.173
'0:20.445',-48.953
'0:20.449',-148.174
'0:20.453',-161.644
'0:20.457',-52.731
'0:20.461',-11.992
'0:20.465',-24.148
'0:20.469',-90.186
'0:20.473',-131.418
'0:20.477',-173.718
'0:20.480',-188.585
'0:20.484',-220.7
'0:20.488',-129.529
'0:20.492',30.637
'0:20.496',85.093
'0:20.500',70.226
'0:20.504',20.616
'0:20.508',-2.546
'0:20.512',-12.567
'0:20.516',-105.791
'0:20.520',-104.97
'0:20.523',-18.234
'0:20.527',46.735
'0:20.531',28.994
'0:20.535',14.456
'0:20.539',-45.421
'0:20.543',-44.6
'0:20.547',-4.189
'0:20.551',-25.462
'0:20.555',-35.154
'0:20.559',-11.499
'0:20.563',33.265
'0:20.566',40
'0:20.570',38.933
'0:20.574',47.557
'0:20.578',38.44
'0:20.582',35.154
'0:20.586',26.037
'0:20.590',7.392
'0:20.594',-16.345
'0:20.598',-40.329
'0:20.602',-43.779
'0:20.605',-24.148
'0:20.609',-13.306
'0:20.613',26.859
'0:20.617',68.337
'0:20.621',68.337
'0:20.625',-16.345
'0:20.629',-80.74
'0:20.633',-110.966
'0:20.637',-127.393
'0:20.641',-99.631
'0:20.645',-41.15
'0:20.648',-8.46
'0:20.652',-15.77
'0:20.656',-24.641
'0:20.660',-75.072
'0:20.664',-114.416
'0:20.668',-88.05
'0:20.672',-70.801
'0:20.676',-32.526
'0:20.680',-28.994
'0:20.684',15.524
'0:20.688',24.969
'0:20.691',-20.123
'0:20.695',-42.218
'0:20.699',-25.216
'0:20.703',-34.908
'0:20.707',-26.037
'0:20.711',-98.81
'0:20.715',-102.013
'0:20.719',-57.249
'0:20.723',-41.15
'0:20.727',-61.849
'0:20.730',-64.066
'0:20.734',-5.257
'0:20.738',34.661
'0:20.742',21.191
'0:20.746',-8.789
'0:20.750',-25.709
'0:20.754',-65.627
'0:20.758',-90.678
'0:20.762',-90.432
'0:20.766',-62.177
'0:20.770',-3.121
'0:20.773',39.754
'0:20.777',22.752
'0:20.781',-78.604
'0:20.785',-143.574
'0:20.789',-142.999
'0:20.793',-205.833
'0:20.797',-236.306
'0:20.801',-130.597
'0:20.805',-60.534
'0:20.809',-118.194
'0:20.813',-131.993
'0:20.816',-144.067
'0:20.820',-144.067
'0:20.824',-127.64
'0:20.828',-122.301
'0:20.832',-164.601
'0:20.836',-170.515
'0:20.840',-78.604
'0:20.844',145.135
'0:20.848',455.445
'0:20.852',704.564
'0:20.855',911.876
'0:20.859',932.657
'0:20.863',604.851
'0:20.867',302.918
'0:20.871',112.855
'0:20.875',-8.789
'0:20.879',-86.407
'0:20.883',-106.613
'0:20.887',-83.697
'0:20.891',-76.14
'0:20.895',-30.637
'0:20.898',-8.214
'0:20.902',-10.349
'0:20.906',-63.245
'0:20.910',-207.969
'0:20.914',-272.117
'0:20.918',-246.573
'0:20.922',-232.528
'0:20.926',-205.833
'0:20.930',-119.015
'0:20.934',-51.91
'0:20.938',-83.45
'0:20.941',-232.281
'0:20.945',-313.925
'0:20.949',-259.222
'0:20.953',-256.758
'0:20.957',-300.208
'0:20.961',-324.767
'0:20.965',-294.787
'0:20.969',-263
'0:20.973',-244.109
'0:20.977',-204.519
'0:20.980',-119.262
'0:20.984',-106.12
'0:20.988',-175.936
'0:20.992',-165.422
'0:20.996',-74.005
'0:21.000',-19.548
'0:21.004',-64.313
'0:21.008',-178.318
'0:21.012',-225.546
'0:21.016',-165.669
'0:21.020',-176.429
'0:21.023',-217.989
'0:21.027',-223.903
'0:21.031',-235.238
'0:21.035',-241.727
'0:21.039',-240.905
'0:21.043',-239.016
'0:21.047',-212.815
'0:21.051',-186.696
'0:21.055',-173.225
'0:21.059',-142.506
'0:21.063',-114.416
'0:21.066',-119.59
'0:21.070',-148.174
'0:21.074',-192.363
'0:21.078',-245.752
'0:21.082',-213.39
'0:21.086',-133.061
'0:21.090',-64.559
'0:21.094',-63.738
'0:21.098',-105.545
'0:21.102',-138.399
'0:21.105',-146.531
'0:21.109',-146.777
'0:21.113',-175.114
'0:21.117',-198.277
'0:21.121',-186.696
'0:21.125',-152.691
'0:21.129',-136.018
'0:21.133',-156.469
'0:21.137',-158.934
'0:21.141',-136.51
'0:21.145',-109.57
'0:21.148',-138.399
'0:21.152',-165.915
'0:21.156',-198.03
'0:21.160',-198.03
'0:21.164',-178.646
'0:21.168',-161.069
'0:21.172',-136.264
'0:21.176',-146.531
'0:21.180',-176.182
'0:21.184',-174.868
'0:21.188',-146.777
'0:21.191',-124.436
'0:21.195',-99.878
'0:21.199',-109.898
'0:21.203',-92.321
'0:21.207',-66.695
'0:21.211',-61.356
'0:21.215',-65.627
'0:21.219',-88.871
'0:21.223',-89.364
'0:21.227',-83.697
'0:21.230',-63.738
'0:21.234',-66.695
'0:21.238',-71.294
'0:21.242',-86.982
'0:21.246',-113.348
'0:21.250',-125.751
'0:21.254',-145.463
'0:21.258',-151.377
'0:21.262',-152.445
'0:21.266',-131.993
'0:21.270',-112.527
'0:21.273',-113.594
'0:21.277',-131.993
'0:21.281',-147.845
'0:21.285',-145.956
'0:21.289',-160.823
'0:21.293',-161.644
'0:21.297',-148.174
'0:21.301',-179.96
'0:21.305',-176.182
'0:21.309',-206.408
'0:21.313',-177.004
'0:21.316',-120.412
'0:21.320',-90.186
'0:21.324',-51.089
'0:21.328',33.84
'0:21.332',185.874
'0:21.336',317.703
'0:21.340',416.102
'0:21.344',449.778
'0:21.348',369.777
'0:21.352',210.433
'0:21.355',145.463
'0:21.359',96.346
'0:21.363',52.156
'0:21.367',7.392
'0:21.371',14.456
'0:21.375',29.24
'0:21.379',11.417
'0:21.383',2.053
'0:21.387',-23.819
'0:21.391',-31.376
'0:21.395',-94.457
'0:21.398',-174.293
'0:21.402',-295.855
'0:21.406',-309.9
'0:21.410',-216.922
'0:21.414',-128.707
'0:21.418',-75.647
'0:21.422',-55.935
'0:21.426',-30.308
'0:21.430',-78.029
'0:21.434',-147.599
'0:21.438',-225.217
'0:21.441',-169.447
'0:21.445',-62.177
'0:21.449',17.084
'0:21.453',41.15
'0:21.457',39.754
'0:21.461',16.838
'0:21.465',-22.259
'0:21.469',-57.003
'0:21.473',-99.631
'0:21.477',-105.299
'0:21.480',-100.124
'0:21.484',-91.828
'0:21.488',-75.319
'0:21.492',-36.551
'0:21.496',-11.499
'0:21.500',-5.257
'0:21.504',-55.442
'0:21.508',-82.629
'0:21.512',-79.426
'0:21.516',-16.592
'0:21.520',46.489
'0:21.523',80.493
'0:21.527',64.559
'0:21.531',43.779
'0:21.535',40
'0:21.539',30.637
'0:21.543',28.173
'0:21.547',-0.986
'0:21.551',-124.929
'0:21.555',-203.123
'0:21.559',-174.868
'0:21.563',-53.799
'0:21.566',54.292
'0:21.570',58.399
'0:21.574',2.546
'0:21.578',-72.937
'0:21.582',-59.467
'0:21.586',-33.019
'0:21.590',-18.234
'0:21.594',59.713
'0:21.598',101.192
'0:21.602',86.654
'0:21.605',38.933
'0:21.609',52.731
'0:21.613',74.58
'0:21.617',96.346
'0:21.621',84.765
'0:21.625',26.53
'0:21.629',-20.863
'0:21.633',-48.953
'0:21.637',-48.625
'0:21.641',-64.066
'0:21.645',-74.005
'0:21.648',-40.575
'0:21.652',10.924
'0:21.656',28.419
'0:21.660',17.906
'0:21.664',-5.257
'0:21.668',-20.37
'0:21.672',-18.973
'0:21.676',-19.548
'0:21.680',-0.657
'0:21.684',52.978
'0:21.688',116.058
'0:21.691',122.547
'0:21.695',68.337
'0:21.699',43.039
'0:21.703',86.982
'0:21.707',107.434
'0:21.711',85.093
'0:21.715',41.643
'0:21.719',18.973
'0:21.723',39.261
'0:21.727',98.563
'0:21.730',123.04
'0:21.734',42.711
'0:21.738',-0.164
'0:21.742',-46.489
'0:21.746',-46.735
'0:21.750',-30.062
'0:21.754',16.838
'0:21.758',72.691
'0:21.762',96.346
'0:21.766',85.34
'0:21.770',-20.616
'0:21.773',-83.45
'0:21.777',-97.988
'0:21.781',-100.699
'0:21.785',-68.584
'0:21.789',0.657
'0:21.793',51.664
'0:21.797',76.962
'0:21.801',51.664
'0:21.805',6.571
'0:21.809',37.043
'0:21.813',46.735
'0:21.816',86.161
'0:21.820',174.868
'0:21.824',364.603
'0:21.828',547.931
'0:21.832',674.913
'0:21.836',777.091
'0:21.840',673.27
'0:21.844',475.979
'0:21.848',336.594
'0:21.852',217.661
'0:21.855',171.829
'0:21.859',51.089
'0:21.863',-25.216
'0:21.867',42.464
'0:21.871',119.59
'0:21.875',121.972
'0:21.879',67.762
'0:21.883',51.664
'0:21.887',18.973
'0:21.891',-69.159
'0:21.895',-178.071
'0:21.898',-186.942
'0:21.902',-86.654
'0:21.906',16.592
'0:21.910',0.411
'0:21.914',3.121
'0:21.918',14.456
'0:21.922',60.534
'0:21.926',2.546
'0:21.930',-133.882
'0:21.934',-178.071
'0:21.938',-85.34
'0:21.941',24.969
'0:21.945',66.695
'0:21.949',-3.121
'0:21.953',-127.393
'0:21.957',-193.677
'0:21.961',-193.184
'0:21.965',-152.691
'0:21.969',-55.113
'0:21.973',31.705
'0:21.977',74.826
'0:21.980',74.005
'0:21.984',69.651
'0:21.988',0.411
'0:21.992',-29.487
'0:21.996',71.869
'0:22.000',159.18
'0:22.004',111.212
'0:22.008',25.216
'0:22.012',-47.31
'0:22.016',-65.627
'0:22.020',-97.988
'0:22.023',-117.126
'0:22.027',-125.504
'0:22.031',-10.103
'0:22.035',112.855
'0:22.039',75.072
'0:22.043',9.281
'0:22.047',-75.072
'0:22.051',-68.584
'0:22.055',-37.865
'0:22.059',-29.24
'0:22.063',19.795
'0:22.066',217.989
'0:22.070',422.837
'0:22.074',355.732
'0:22.078',-9.856
'0:22.082',-243.862
'0:22.086',-195.32
'0:22.090',-154.58
'0:22.094',-24.148
'0:22.098',93.964
'0:22.102',59.713
'0:22.105',-60.288
'0:22.109',-172.65
'0:22.113',-175.114
'0:22.117',-83.45
'0:22.121',34.333
'0:22.125',117.948
'0:22.129',150.309
'0:22.133',124.683
'0:22.137',72.937
'0:22.141',73.758
'0:22.145',101.192
'0:22.148',112.855
'0:22.152',12.567
'0:22.156',14.702
'0:22.160',103.409
'0:22.164',75.894
'0:22.168',2.3
'0:22.172',-40.575
'0:22.176',-15.195
'0:22.180',14.702
'0:22.184',20.616
'0:22.188',33.019
'0:22.191',71.294
'0:22.195',110.145
'0:22.199',125.258
'0:22.203',119.837
'0:22.207',132.814
'0:22.211',135.771
'0:22.215',156.469
'0:22.219',156.469
'0:22.223',152.691
'0:22.227',134.621
'0:22.230',136.51
'0:22.234',123.615
'0:22.238',123.369
'0:22.242',104.477
'0:22.246',102.588
'0:22.250',87.721
'0:22.254',74.826
'0:22.258',74.826
'0:22.262',86.654
'0:22.266',83.697
'0:22.270',86.407
'0:22.273',90.432
'0:22.277',75.319
'0:22.281',56.756
'0:22.285',37.865
'0:22.289',37.865
'0:22.293',55.113
'0:22.297',102.013
'0:22.301',116.058
'0:22.305',148.667
'0:22.309',182.096
'0:22.313',168.051
'0:22.316',200.412
'0:22.320',382.673
'0:22.324',654.133
'0:22.328',798.117
'0:22.332',886.25
'0:22.336',860.377
'0:22.340',669.246
'0:22.344',461.934
'0:22.348',288.298
'0:22.352',223.657
'0:22.355',166.983
'0:22.359',169.447
'0:22.363',176.757
'0:22.367',168.626
'0:22.371',156.469
'0:22.375',150.802
'0:22.379',153.266
'0:22.383',128.707
'0:22.387',90.186
'0:22.391',92.896
'0:22.395',83.697
'0:22.398',85.586
'0:22.402',64.313
'0:22.406',12.813
'0:22.410',-16.017
'0:22.414',-12.567
'0:22.418',46.735
'0:22.422',86.982
'0:22.426',57.824
'0:22.430',22.505
'0:22.434',73.43
'0:22.438',138.153
'0:22.441',189.16
'0:22.445',213.39
'0:22.449',171.336
'0:22.453',147.845
'0:22.457',145.71
'0:22.461',155.155
'0:22.465',188.831
'0:22.469',165.094
'0:22.473',134.375
'0:22.477',90.432
'0:22.480',79.672
'0:22.484',72.362
'0:22.488',138.728
'0:22.492',219.057
'0:22.496',275.895
'0:22.500',274.006
'0:22.504',256.019
'0:22.508',209.858
'0:22.512',129.775
'0:22.516',121.151
'0:22.520',142.753
'0:22.523',195.073
'0:22.527',228.749
'0:22.531',253.801
'0:22.535',269.16
'0:22.539',214.458
'0:22.543',170.268
'0:22.547',227.682
'0:22.551',258.975
'0:22.555',277.045
'0:22.559',310.968
'0:22.563',315.567
'0:22.566',307.189
'0:22.570',230.638
'0:22.574',188.831
'0:22.578',202.055
'0:22.582',212.076
'0:22.586',263
'0:22.590',270.228
'0:22.594',207.476
'0:22.598',119.262
'0:22.602',110.145
'0:22.605',128.461
'0:22.609',127.886
'0:22.613',151.623
'0:22.617',213.636
'0:22.621',236.306
'0:22.625',208.79
'0:22.629',210.926
'0:22.633',278.935
'0:22.637',289.119
'0:22.641',284.273
'0:22.645',260.865
'0:22.648',213.883
'0:22.652',184.806
'0:22.656',224.396
'0:22.660',261.111
'0:22.664',237.127
'0:22.668',213.39
'0:22.672',189.406
'0:22.676',195.895
'0:22.680',195.895
'0:22.684',199.92
'0:22.688',191.788
'0:22.691',203.369
'0:22.695',228.503
'0:22.699',259.222
'0:22.703',260.536
'0:22.707',314.746
'0:22.711',343.083
'0:22.715',341.687
'0:22.719',329.859
'0:22.723',281.891
'0:22.727',266.532
'0:22.730',244.355
'0:22.734',259.468
'0:22.738',217.168
'0:22.742',170.761
'0:22.746',169.201
'0:22.750',190.227
'0:22.754',189.652
'0:22.758',169.693
'0:22.762',172.404
'0:22.766',151.131
'0:22.770',186.449
'0:22.773',187.271
'0:22.777',185.874
'0:22.781',173.718
'0:22.785',182.096
'0:22.789',183.164
'0:22.793',170.761
'0:22.797',172.157
'0:22.801',235.238
'0:22.805',269.16
'0:22.809',288.873
'0:22.813',347.108
'0:22.816',551.216
'0:22.820',791.957
'0:22.824',921.322
'0:22.828',1007.893
'0:22.832',973.889
'0:22.836',819.966
'0:22.840',628.26
'0:22.844',425.055
'0:22.848',378.401
'0:22.852',282.959
'0:22.855',228.749
'0:22.859',204.519
'0:22.863',191.788
'0:22.867',221.439
'0:22.871',257.086
'0:22.875',303.658
'0:22.879',315.814
'0:22.883',290.516
'0:22.887',211.254
'0:22.891',152.691
'0:22.895',69.98
'0:22.898',14.127
'0:22.902',-2.053
'0:22.906',23.327
'0:22.910',105.791
'0:22.914',140.617
'0:22.918',65.955
'0:22.922',11.745
'0:22.926',45.668
'0:22.930',112.28
'0:22.934',144.067
'0:22.938',159.426
'0:22.941',175.936
'0:22.945',207.969
'0:22.949',285.095
'0:22.953',252.979
'0:22.957',228.174
'0:22.961',169.447
'0:22.965',41.397
'0:22.969',-27.598
'0:22.973',-20.863
'0:22.977',21.438
'0:22.980',150.063
'0:22.984',250.023
'0:22.988',287.805
'0:22.992',229.817
'0:22.996',137.332
'0:23.000',54.046
'0:23.004',-1.725
'0:23.008',-22.259
'0:23.012',10.678
'0:23.016',107.188
'0:23.020',169.447
'0:23.023',186.942
'0:23.027',161.315
'0:23.031',87.229
'0:23.035',53.224
'0:23.039',89.364
'0:23.043',158.934
'0:23.047',195.895
'0:23.051',242.466
'0:23.055',248.462
'0:23.059',301.522
'0:23.063',257.579
'0:23.066',108.256
'0:23.070',1.478
'0:23.074',-0.986
'0:23.078',64.559
'0:23.082',62.424
'0:23.086',5.503
'0:23.090',22.505
'0:23.094',80.986
'0:23.098',184.806
'0:23.102',227.928
'0:23.105',149.241
'0:23.109',23.08
'0:23.113',5.01
'0:23.117',-18.973
'0:23.121',-54.292
'0:23.125',37.865
'0:23.129',196.141
'0:23.133',326.081
'0:23.137',350.311
'0:23.141',250.844
'0:23.145',76.962
'0:23.148',-40.575
'0:23.152',-83.697
'0:23.156',-75.319
'0:23.160',-9.856
'0:23.164',54.867
'0:23.168',77.537
'0:23.172',52.978
'0:23.176',6.324
'0:23.180',-32.197
'0:23.184',16.592
'0:23.188',93.964
'0:23.191',170.515
'0:23.195',215.279
'0:23.199',183.164
'0:23.203',151.623
'0:23.207',161.069
'0:23.211',124.108
'0:23.215',30.062
'0:23.219',13.881
'0:23.223',-28.419
'0:23.227',52.156
'0:23.230',173.472
'0:23.234',120.412
'0:23.238',-35.976
'0:23.242',-179.714
'0:23.246',-163.533
'0:23.250',-97.496
'0:23.254',-28.994
'0:23.258',46.489
'0:23.262',72.691
'0:23.266',20.37
'0:23.270',-93.964
'0:23.273',-108.502
'0:23.277',-69.159
'0:23.281',-10.103
'0:23.285',53.224
'0:23.289',49.775
'0:23.293',45.996
'0:23.297',82.383
'0:23.301',98.81
'0:23.305',142.178
'0:23.309',191.295
'0:23.313',300.701
'0:23.316',428.012
'0:23.320',536.349
'0:23.324',601.319
'0:23.328',537.171
'0:23.332',312.364
'0:23.336',201.48
'0:23.340',141.685
'0:23.344',163.78
'0:23.348',160.823
'0:23.352',144.067
'0:23.355',156.223
'0:23.359',127.64
'0:23.363',97.988
'0:23.367',94.785
'0:23.371',94.21
'0:23.375',45.668
'0:23.379',4.435
'0:23.383',2.053
'0:23.387',23.08
'0:23.391',23.327
'0:23.395',14.702
'0:23.398',-22.259
'0:23.402',-58.399
'0:23.406',-27.105
'0:23.410',0.903
'0:23.414',10.349
'0:23.418',11.417
'0:23.422',-7.146
'0:23.426',5.832
'0:23.430',0.411
'0:23.434',-20.123
'0:23.438',-17.906
'0:23.441',-23.573
'0:23.445',1.725
'0:23.449',12.813
'0:23.453',12.238
'0:23.457',1.478
'0:23.461',10.678
'0:23.465',31.376
'0:23.469',41.397
'0:23.473',44.107
'0:23.477',52.156
'0:23.480',44.354
'0:23.484',62.67
'0:23.488',71.294
'0:23.492',44.354
'0:23.496',24.394
'0:23.500',15.77
'0:23.504',13.06
'0:23.508',19.302
'0:23.512',41.397
'0:23.516',54.621
'0:23.520',17.084
'0:23.523',1.478
'0:23.527',5.257
'0:23.531',37.618
'0:23.535',65.134
'0:23.539',62.916
'0:23.543',51.91
'0:23.547',25.709
'0:23.551',24.641
'0:23.555',-29.24
'0:23.559',-16.592
'0:23.563',46.489
'0:23.566',95.607
'0:23.570',99.878
'0:23.574',57.249
'0:23.578',-35.729
'0:23.582',-86.654
'0:23.586',-64.559
'0:23.590',6.899
'0:23.594',73.183
'0:23.598',101.192
'0:23.602',78.604
'0:23.605',-2.793
'0:23.609',-75.319
'0:23.613',-82.629
'0:23.617',-20.616
'0:23.621',46.489
'0:23.625',52.731
'0:23.629',26.037
'0:23.633',7.967
'0:23.637',-30.062
'0:23.641',-32.772
'0:23.645',0.411
'0:23.648',50.021
'0:23.652',82.054
'0:23.656',113.102
'0:23.660',129.282
'0:23.664',131.418
'0:23.668',117.701
'0:23.672',117.126
'0:23.676',98.563
'0:23.680',97.167
'0:23.684',67.023
'0:23.688',100.453
'0:23.691',144.067
'0:23.695',156.798
'0:23.699',160.248
'0:23.703',119.837
'0:23.707',44.354
'0:23.711',23.08
'0:23.715',42.464
'0:23.719',100.453
'0:23.723',124.436
'0:23.727',76.14
'0:23.730',33.265
'0:23.734',19.548
'0:23.738',19.302
'0:23.742',52.156
'0:23.746',83.697
'0:23.750',78.851
'0:23.754',41.397
'0:23.758',-19.302
'0:23.762',-39.261
'0:23.766',-32.197
'0:23.770',6.324
'0:23.773',34.908
'0:23.777',74.005
'0:23.781',72.937
'0:23.785',35.976
'0:23.789',-2.053
'0:23.793',-7.721
'0:23.797',-7.146
'0:23.801',-11.992
'0:23.805',30.637
'0:23.809',196.141
'0:23.813',375.691
'0:23.816',522.879
'0:23.820',625.878
'0:23.824',663.578
'0:23.828',504.809
'0:23.832',326.574
'0:23.836',194.006
'0:23.840',113.102
'0:23.844',85.34
'0:23.848',101.192
'0:23.852',74.826
'0:23.855',33.019
'0:23.859',-10.349
'0:23.863',-10.349
'0:23.867',-1.232
'0:23.871',-10.349
'0:23.875',-61.027
'0:23.879',-131.172
'0:23.883',-195.895
'0:23.887',-193.431
'0:23.891',-147.352
'0:23.895',-119.837
'0:23.898',-119.015
'0:23.902',-128.215
'0:23.906',-108.748
'0:23.910',-82.629
'0:23.914',-73.43
'0:23.918',-86.407
'0:23.922',-108.009
'0:23.926',-89.364
'0:23.930',-36.797
'0:23.934',-14.949
'0:23.938',37.618
'0:23.941',35.976
'0:23.945',-34.087
'0:23.949',-103.081
'0:23.953',-133.882
'0:23.957',-141.685
'0:23.961',-117.948
'0:23.965',-105.791
'0:23.969',-119.59
'0:23.973',-129.282
'0:23.977',-137.907
'0:23.980',-119.262
'0:23.984',-93.717
'0:23.988',-74.005
'0:23.992',-125.751
'0:23.996',-192.363
'0:24.000',-207.722
'0:24.004',-99.385
'0:24.008',20.123
'0:24.012',38.111
'0:24.016',-24.641
'0:24.020',-106.859
'0:24.023',-86.161
'0:24.027',-2.3
'0:24.031',-55.442
'0:24.035',-150.802
'0:24.039',-157.866
'0:24.043',-68.584
'0:24.047',-15.524
'0:24.051',-33.019
'0:24.055',-113.594
'0:24.059',-220.7
'0:24.063',-214.458
'0:24.066',-224.971
'0:24.070',-268.421
'0:24.074',-250.351
'0:24.078',-208.297
'0:24.082',-135.771
'0:24.086',-128.215
'0:24.090',-215.772
'0:24.094',-242.795
'0:24.098',-173.718
'0:24.102',-109.077
'0:24.105',-85.34
'0:24.109',-88.543
'0:24.113',-97.167
'0:24.117',-150.556
'0:24.121',-207.147
'0:24.125',-219.879
'0:24.129',-129.775
'0:24.133',-86.161
'0:24.137',-125.258
'0:24.141',-205.258
'0:24.145',-230.638
'0:24.148',-255.444
'0:24.152',-258.154
'0:24.156',-231.46
'0:24.160',-221.439
'0:24.164',-269.982
'0:24.168',-295.033
'0:24.172',-230.063
'0:24.176',-119.015
'0:24.180',-117.373
'0:24.184',-177.25
'0:24.188',-212.076
'0:24.191',-209.858
'0:24.195',-176.182
'0:24.199',-109.898
'0:24.203',-98.235
'0:24.207',-79.672
'0:24.211',-94.21
'0:24.215',-110.145
'0:24.219',-121.972
'0:24.223',-186.696
'0:24.227',-263.247
'0:24.230',-298.811
'0:24.234',-215.033
'0:24.238',-91.828
'0:24.242',-85.093
'0:24.246',-204.191
'0:24.250',-291.83
'0:24.254',-345.465
'0:24.258',-350.311
'0:24.262',-334.459
'0:24.266',-309.079
'0:24.270',-281.563
'0:24.273',-250.844
'0:24.277',-250.844
'0:24.281',-278.935
'0:24.285',-270.803
'0:24.289',-203.698
'0:24.293',-116.305
'0:24.297',-65.38
'0:24.301',-82.383
'0:24.305',-83.45
'0:24.309',24.394
'0:24.313',207.147
'0:24.316',332.816
'0:24.320',408.874
'0:24.324',346.861
'0:24.328',164.601
'0:24.332',27.926
'0:24.336',-72.116
'0:24.340',-159.18
'0:24.344',-195.073
'0:24.348',-168.133
'0:24.352',-143.328
'0:24.355',-157.291
'0:24.359',-188.831
'0:24.363',-191.049
'0:24.367',-198.852
'0:24.371',-222.261
'0:24.375',-234.992
'0:24.379',-236.552
'0:24.383',-225.792
'0:24.387',-232.281
'0:24.391',-220.371
'0:24.395',-247.641
'0:24.398',-250.023
'0:24.402',-257.086
'0:24.406',-248.708
'0:24.410',-251.912
'0:24.414',-261.357
'0:24.418',-264.314
'0:24.422',-257.086
'0:24.426',-249.53
'0:24.430',-250.844
'0:24.434',-258.4
'0:24.438',-246.244
'0:24.441',-241.398
'0:24.445',-249.201
'0:24.449',-247.887
'0:24.453',-239.509
'0:24.457',-230.063
'0:24.461',-210.926
'0:24.465',-186.449
'0:24.469',-183.164
'0:24.473',-187.763
'0:24.477',-193.677
'0:24.480',-192.856
'0:24.484',-202.301
'0:24.488',-198.277
'0:24.492',-202.301
'0:24.496',-208.297
'0:24.500',-208.297
'0:24.504',-217.661
'0:24.508',-213.39
'0:24.512',-201.562
'0:24.516',-161.644
'0:24.520',-131.418
'0:24.523',-123.04
'0:24.527',-129.775
'0:24.531',-146.777
'0:24.535',-156.469
'0:24.539',-162.465
'0:24.543',-157.044
'0:24.547',-163.205
'0:24.551',-161.644
'0:24.555',-169.94
'0:24.559',-176.757
'0:24.563',-173.225
'0:24.566',-148.913
'0:24.570',-162.465
'0:24.574',-182.671
'0:24.578',-203.698
'0:24.582',-249.53
'0:24.586',-259.468
'0:24.590',-243.616
'0:24.594',-203.369
'0:24.598',-176.757
'0:24.602',-155.402
'0:24.605',-191.542
'0:24.609',-280.495
'0:24.613',-303.74
'0:24.617',-272.117
'0:24.621',-184.231
'0:24.625',-110.391
'0:24.629',-108.009
'0:24.633',-133.061
'0:24.637',-207.722
'0:24.641',-283.781
'0:24.645',-268.421
'0:24.648',-167.804
'0:24.652',-117.126
'0:24.656',-115.483
'0:24.660',-99.056
'0:24.664',-100.453
'0:24.668',-85.34
'0:24.672',-130.925
'0:24.676',-204.766
'0:24.680',-266.203
'0:24.684',-227.107
'0:24.688',-191.295
'0:24.691',-111.787
'0:24.695',-67.844
'0:24.699',-56.181
'0:24.703',-73.758
'0:24.707',-116.058
'0:24.711',-121.726
'0:24.715',-102.013
'0:24.719',-124.929
'0:24.723',-214.211
'0:24.727',-280.824
'0:24.730',-215.279
'0:24.734',-147.599
'0:24.738',-108.256
'0:24.742',-103.656
'0:24.746',-126.572
'0:24.750',-171.09
'0:24.754',-188.338
'0:24.758',-158.359
'0:24.762',-113.102
'0:24.766',-116.058
'0:24.770',-149.488
'0:24.773',-178.071
'0:24.777',-186.121
'0:24.781',-195.566
'0:24.785',-214.458
'0:24.789',-197.209
'0:24.793',-162.958
'0:24.797',-157.291
'0:24.801',-102.342
'0:24.805',20.123
'0:24.809',253.801
'0:24.813',413.72
'0:24.816',480.25
'0:24.820',534.46
'0:24.824',471.38
'0:24.828',293.144
'0:24.832',87.475
'0:24.836',-34.415
'0:24.840',-97.988
'0:24.844',-93.389
'0:24.848',-62.424
'0:24.852',-67.27
'0:24.855',-99.056
'0:24.859',-124.929
'0:24.863',-153.266
'0:24.867',-172.979
'0:24.871',-164.601
'0:24.875',-197.455
'0:24.879',-297.744
'0:24.883',-352.2
'0:24.887',-345.218
'0:24.891',-300.701
'0:24.895',-273.267
'0:24.898',-224.15
'0:24.902',-223.082
'0:24.906',-256.511
'0:24.910',-273.76
'0:24.914',-269.16
'0:24.918',-229.324
'0:24.922',-182.096
'0:24.926',-193.431
'0:24.930',-171.829
'0:24.934',-198.852
'0:24.938',-225.792
'0:24.941',-243.287
'0:24.945',-270.557
'0:24.949',-235.484
'0:24.953',-172.157
'0:24.957',-122.794
'0:24.961',-133.882
'0:24.965',-242.795
'0:24.969',-296.676
'0:24.973',-338.483
'0:24.977',-367.067
'0:24.980',-305.054
'0:24.984',-223.082
