'0:00.000',2.17
'0:00.004',2.05
'0:00.008',1.85
'0:00.012',1.71
'0:00.016',1.42
'0:00.020',0.61
'0:00.023',-0.12
'0:00.027',-0.73
'0:00.031',-0.98
'0:00.035',-1.22
'0:00.039',-1.81
'0:00.043',-2.55
'0:00.047',-2.61
'0:00.051',-1.93
'0:00.055',-1.5
'0:00.059',-1.6
'0:00.063',-1.59
'0:00.066',-1.28
'0:00.070',-0.41
'0:00.074',0.28
'0:00.078',0.3
'0:00.082',0.35
'0:00.086',0.4
'0:00.090',0.51
'0:00.094',0.44
'0:00.098',0.2
'0:00.102',-0.61
'0:00.105',-1.71
'0:00.109',-2.51
'0:00.113',-2.84
'0:00.117',-2.74
'0:00.121',-2.26
'0:00.125',-1.96
'0:00.129',-2.11
'0:00.133',-2.46
'0:00.137',-2.74
'0:00.141',-2.8
'0:00.145',-2.93
'0:00.148',-3.29
'0:00.152',-3.71
'0:00.156',-3.83
'0:00.160',-3.56
'0:00.164',-2.67
'0:00.168',-0.57
'0:00.172',2.8
'0:00.176',6.58
'0:00.180',9.91
'0:00.184',11.76
'0:00.188',10.57
'0:00.191',6.56
'0:00.195',1.16
'0:00.199',-3.29
'0:00.203',-6.03
'0:00.207',-7.72
'0:00.211',-8.11
'0:00.215',-7.03
'0:00.219',-5.91
'0:00.223',-4.48
'0:00.227',-3.86
'0:00.230',-4.03
'0:00.234',-3.82
'0:00.238',-3.2
'0:00.242',-2.73
'0:00.246',-2.77
'0:00.250',-2.57
'0:00.254',-2.18
'0:00.258',-2.05
'0:00.262',-0.81
'0:00.266',0.94
'0:00.270',0.87
'0:00.273',0.52
'0:00.277',0.73
'0:00.281',1.77
'0:00.285',2.89
'0:00.289',2.49
'0:00.293',2.27
'0:00.297',2.61
'0:00.301',4.21
'0:00.305',5.16
'0:00.309',3.56
'0:00.313',3.5
'0:00.316',2.66
'0:00.320',1.7
'0:00.324',1.81
'0:00.328',1.33
'0:00.332',0.81
'0:00.336',0.21
'0:00.340',0.45
'0:00.344',1.33
'0:00.348',1.78
'0:00.352',0.67
'0:00.355',-0.24
'0:00.359',0.69
'0:00.363',1.72
'0:00.367',1.97
'0:00.371',2.14
'0:00.375',2.33
'0:00.379',2.42
'0:00.383',2.62
'0:00.387',3.23
'0:00.391',3.56
'0:00.395',3.22
'0:00.398',3.04
'0:00.402',2.98
'0:00.406',2.39
'0:00.410',1.23
'0:00.414',0.09
'0:00.418',-0.79
'0:00.422',-0.97
'0:00.426',-0.72
'0:00.430',-0.27
'0:00.434',0.23
'0:00.438',0.38
'0:00.441',0.03
'0:00.445',-0.55
'0:00.449',-0.89
'0:00.453',-1.11
'0:00.457',-1.14
'0:00.461',-0.99
'0:00.465',-0.49
'0:00.469',1.25
'0:00.473',4.21
'0:00.477',7.64
'0:00.480',10.49
'0:00.484',10.94
'0:00.488',8.31
'0:00.492',3.95
'0:00.496',-0.53
'0:00.500',-4.15
'0:00.504',-6.06
'0:00.508',-6.67
'0:00.512',-6.35
'0:00.516',-4.91
'0:00.520',-3.41
'0:00.523',-2.59
'0:00.527',-2.05
'0:00.531',-1.78
'0:00.535',-1.6
'0:00.539',-1.12
'0:00.543',-0.67
'0:00.547',-0.38
'0:00.551',0.19
'0:00.555',0.9
'0:00.559',1.36
'0:00.563',1.36
'0:00.566',1.8
'0:00.570',2.39
'0:00.574',2.67
'0:00.578',2.65
'0:00.582',3.05
'0:00.586',3.47
'0:00.590',3.88
'0:00.594',4.38
'0:00.598',4.83
'0:00.602',4.79
'0:00.605',4.63
'0:00.609',4.72
'0:00.613',4.51
'0:00.617',3.9
'0:00.621',2.98
'0:00.625',2.2
'0:00.629',1.59
'0:00.633',0.95
'0:00.637',0.6
'0:00.641',0.09
'0:00.645',-0.57
'0:00.648',-0.82
'0:00.652',-0.74
'0:00.656',-0.52
'0:00.660',-0.51
'0:00.664',-0.6
'0:00.668',-0.29
'0:00.672',-0.04
'0:00.676',0.25
'0:00.680',0.69
'0:00.684',1.05
'0:00.688',1.66
'0:00.691',1.78
'0:00.695',1.69
'0:00.699',1.56
'0:00.703',1.15
'0:00.707',-0.22
'0:00.711',-1.74
'0:00.715',-2.92
'0:00.719',-3.65
'0:00.723',-3.74
'0:00.727',-4.12
'0:00.730',-4.38
'0:00.734',-4.7
'0:00.738',-4.68
'0:00.742',-4.68
'0:00.746',-4.58
'0:00.750',-4.09
'0:00.754',-4.18
'0:00.758',-4.61
'0:00.762',-4.77
'0:00.766',-4.45
'0:00.770',-3.28
'0:00.773',-0.7
'0:00.777',2.66
'0:00.781',6.11
'0:00.785',8.94
'0:00.789',9.3
'0:00.793',6.97
'0:00.797',2.52
'0:00.801',-2.2
'0:00.805',-6.52
'0:00.809',-9.17
'0:00.813',-9.68
'0:00.816',-9.42
'0:00.820',-8.97
'0:00.824',-8.22
'0:00.828',-6.99
'0:00.832',-5.61
'0:00.836',-4.8
'0:00.840',-4.43
'0:00.844',-3.74
'0:00.848',-3.05
'0:00.852',-2.69
'0:00.855',-2.41
'0:00.859',-1.94
'0:00.863',-1.8
'0:00.867',-1.94
'0:00.871',-1.52
'0:00.875',-0.9
'0:00.879',-0.31
'0:00.883',-0.12
'0:00.887',-0.05
'0:00.891',0.34
'0:00.895',1.01
'0:00.898',1.8
'0:00.902',2.33
'0:00.906',2.47
'0:00.910',2.75
'0:00.914',2.53
'0:00.918',1.94
'0:00.922',1.53
'0:00.926',1.21
'0:00.930',0.92
'0:00.934',0.51
'0:00.938',0.19
'0:00.941',0.05
'0:00.945',0.15
'0:00.949',0.39
'0:00.953',0.54
'0:00.957',0.76
'0:00.961',1.07
'0:00.965',0.85
'0:00.969',0.84
'0:00.973',1.07
'0:00.977',0.96
'0:00.980',1.06
'0:00.984',1.49
'0:00.988',1.89
'0:00.992',1.94
'0:00.996',1.46
'0:01.000',1.16
'0:01.004',1.01
'0:01.008',0.6
'0:01.012',-0.76
'0:01.016',-2.89
'0:01.020',-4.18
'0:01.023',-4.09
'0:01.027',-3.81
'0:01.031',-3.96
'0:01.035',-4.25
'0:01.039',-4.22
'0:01.043',-3.72
'0:01.047',-3.36
'0:01.051',-3.02
'0:01.055',-3.74
'0:01.059',-4.04
'0:01.063',-4.34
'0:01.066',-3.88
'0:01.070',-1.62
'0:01.074',0.84
'0:01.078',4.26
'0:01.082',7.56
'0:01.086',10.67
'0:01.090',12.66
'0:01.094',11.03
'0:01.098',5.17
'0:01.102',-1.11
'0:01.105',-5.74
'0:01.109',-7.77
'0:01.113',-7.61
'0:01.117',-6.71
'0:01.121',-6.32
'0:01.125',-5.92
'0:01.129',-4.95
'0:01.133',-3.55
'0:01.137',-1.99
'0:01.141',-1.32
'0:01.145',-1.13
'0:01.148',-0.6
'0:01.152',0.34
'0:01.156',1.1
'0:01.160',1.27
'0:01.164',1.37
'0:01.168',1.93
'0:01.172',2.01
'0:01.176',2.1
'0:01.180',2.99
'0:01.184',3.73
'0:01.188',3.88
'0:01.191',4.02
'0:01.195',4.31
'0:01.199',5.02
'0:01.203',5.53
'0:01.207',6.2
'0:01.211',6.71
'0:01.215',6.55
'0:01.219',5.63
'0:01.223',4.82
'0:01.227',4.33
'0:01.230',4.54
'0:01.234',4.47
'0:01.238',4.3
'0:01.242',4.1
'0:01.246',3.45
'0:01.250',2.71
'0:01.254',2.19
'0:01.258',2.01
'0:01.262',1.86
'0:01.266',2.03
'0:01.270',2.6
'0:01.273',3.12
'0:01.277',3.12
'0:01.281',2.87
'0:01.285',2.72
'0:01.289',2.69
'0:01.293',2.85
'0:01.297',2.56
'0:01.301',2.01
'0:01.305',1.56
'0:01.309',1.05
'0:01.313',0.56
'0:01.316',0.31
'0:01.320',-0.09
'0:01.324',-0.96
'0:01.328',-1.77
'0:01.332',-2.06
'0:01.336',-2.04
'0:01.340',-2.21
'0:01.344',-2.82
'0:01.348',-3.17
'0:01.352',-3.28
'0:01.355',-3.57
'0:01.359',-3.88
'0:01.363',-3.95
'0:01.367',-3.16
'0:01.371',-0.93
'0:01.375',2.47
'0:01.379',6.56
'0:01.383',10.6
'0:01.387',12.37
'0:01.391',10.18
'0:01.395',5.29
'0:01.398',-0.56
'0:01.402',-5.31
'0:01.406',-8.22
'0:01.410',-9.86
'0:01.414',-10.61
'0:01.418',-10.33
'0:01.422',-8.81
'0:01.426',-6.85
'0:01.430',-4.91
'0:01.434',-3.39
'0:01.438',-1.71
'0:01.441',-0.86
'0:01.445',-0.9
'0:01.449',-0.39
'0:01.453',0.25
'0:01.457',0.58
'0:01.461',0.28
'0:01.465',-0.35
'0:01.469',0.05
'0:01.473',1.14
'0:01.477',2.25
'0:01.480',2.58
'0:01.484',2.39
'0:01.488',2.1
'0:01.492',2.26
'0:01.496',2.55
'0:01.500',2.47
'0:01.504',2.6
'0:01.508',2.71
'0:01.512',2.73
'0:01.516',2.3
'0:01.520',1.62
'0:01.523',1.24
'0:01.527',0.62
'0:01.531',0.26
'0:01.535',-0.16
'0:01.539',-0.64
'0:01.543',-1.11
'0:01.547',-1.49
'0:01.551',-2.02
'0:01.555',-2.01
'0:01.559',-1.66
'0:01.563',-1.97
'0:01.566',-2.18
'0:01.570',-1.56
'0:01.574',-0.95
'0:01.578',-0.26
'0:01.582',-0.2
'0:01.586',-0.8
'0:01.590',-0.97
'0:01.594',-1.11
'0:01.598',-1.2
'0:01.602',-1.01
'0:01.605',-0.87
'0:01.609',-1.43
'0:01.613',-2.58
'0:01.617',-3.62
'0:01.621',-3.91
'0:01.625',-3.93
'0:01.629',-3.89
'0:01.633',-4.29
'0:01.637',-4.42
'0:01.641',-4.06
'0:01.645',-3.7
'0:01.648',-3.92
'0:01.652',-4.03
'0:01.656',-3.74
'0:01.660',-3.6
'0:01.664',-3.7
'0:01.668',-3.46
'0:01.672',-2.21
'0:01.676',0.33
'0:01.680',3.66
'0:01.684',6.87
'0:01.688',9.44
'0:01.691',9.99
'0:01.695',7.7
'0:01.699',3.4
'0:01.703',-1.62
'0:01.707',-5.2
'0:01.711',-7.56
'0:01.715',-8.71
'0:01.719',-8.93
'0:01.723',-7.99
'0:01.727',-6.33
'0:01.730',-4.94
'0:01.734',-3.99
'0:01.738',-3.22
'0:01.742',-2.49
'0:01.746',-1.35
'0:01.750',-1.36
'0:01.754',-1.51
'0:01.758',-1.29
'0:01.762',-1.45
'0:01.766',-1.68
'0:01.770',-1.99
'0:01.773',-1.39
'0:01.777',-1
'0:01.781',-0.92
'0:01.785',-1.24
'0:01.789',-0.61
'0:01.793',0.38
'0:01.797',1.06
'0:01.801',1.1
'0:01.805',0.57
'0:01.809',-0.21
'0:01.813',-0.07
'0:01.816',1.55
'0:01.820',2.09
'0:01.824',1.02
'0:01.828',0.59
'0:01.832',1.35
'0:01.836',1.21
'0:01.840',0.96
'0:01.844',0.55
'0:01.848',0.4
'0:01.852',0.76
'0:01.855',1.15
'0:01.859',1.62
'0:01.863',2.06
'0:01.867',1.92
'0:01.871',0.83
'0:01.875',0.31
'0:01.879',0.67
'0:01.883',2.06
'0:01.887',3.4
'0:01.891',3.68
'0:01.895',3.66
'0:01.898',3.65
'0:01.902',3.62
'0:01.906',3.43
'0:01.910',2.93
'0:01.914',2.34
'0:01.918',1.81
'0:01.922',1.14
'0:01.926',0.29
'0:01.930',0.02
'0:01.934',0.48
'0:01.938',0.76
'0:01.941',0.61
'0:01.945',0.74
'0:01.949',1.03
'0:01.953',1.03
'0:01.957',0.6
'0:01.961',0.12
'0:01.965',-0.21
'0:01.969',-0.4
'0:01.973',0.13
'0:01.977',1.66
'0:01.980',4.06
'0:01.984',6.96
'0:01.988',9.6
'0:01.992',11.01
'0:01.996',9.19
'0:02.000',5.07
'0:02.004',0.7
'0:02.008',-2.79
'0:02.012',-5.09
'0:02.016',-5.73
'0:02.020',-5.04
'0:02.023',-4.22
'0:02.027',-3.71
'0:02.031',-3.32
'0:02.035',-1.83
'0:02.039',-0.72
'0:02.043',-0.16
'0:02.047',-0.16
'0:02.051',-0.29
'0:02.055',-0.08
'0:02.059',0.24
'0:02.063',0.45
'0:02.066',1.04
'0:02.070',1.54
'0:02.074',2.21
'0:02.078',2.78
'0:02.082',3.6
'0:02.086',4.47
'0:02.090',5.01
'0:02.094',4.45
'0:02.098',3.32
'0:02.102',3.32
'0:02.105',4.16
'0:02.109',4.92
'0:02.113',5.1
'0:02.117',5.13
'0:02.121',4.72
'0:02.125',4.12
'0:02.129',3.62
'0:02.133',3.27
'0:02.137',2.59
'0:02.141',1.83
'0:02.145',1.27
'0:02.148',0.6
'0:02.152',-0.21
'0:02.156',-0.6
'0:02.160',-0.79
'0:02.164',-1.06
'0:02.168',-1.24
'0:02.172',-1.08
'0:02.176',-0.77
'0:02.180',-0.37
'0:02.184',-0.47
'0:02.188',-0.76
'0:02.191',-0.76
'0:02.195',-0.44
'0:02.199',-0.39
'0:02.203',0.16
'0:02.207',0.52
'0:02.211',-0.36
'0:02.215',-1.33
'0:02.219',-2.11
'0:02.223',-2.91
'0:02.227',-3.62
'0:02.230',-4.56
'0:02.234',-5.33
'0:02.238',-5.53
'0:02.242',-5.21
'0:02.246',-4.68
'0:02.250',-4.5
'0:02.254',-4.5
'0:02.258',-4.73
'0:02.262',-5.08
'0:02.266',-5.15
'0:02.270',-4.84
'0:02.273',-4.02
'0:02.277',-2.55
'0:02.281',0.03
'0:02.285',3.32
'0:02.289',6.95
'0:02.293',9.14
'0:02.297',8.72
'0:02.301',5.77
'0:02.305',1.17
'0:02.309',-3.52
'0:02.313',-7.1
'0:02.316',-9.34
'0:02.320',-10.19
'0:02.324',-9.71
'0:02.328',-8.3
'0:02.332',-6.49
'0:02.336',-4.97
'0:02.340',-3.8
'0:02.344',-2.6
'0:02.348',-1.65
'0:02.352',-1.41
'0:02.355',-1.34
'0:02.359',-1.26
'0:02.363',-1.29
'0:02.367',-1.17
'0:02.371',-0.77
'0:02.375',-0.19
'0:02.379',0.58
'0:02.383',0.99
'0:02.387',1.07
'0:02.391',1.46
'0:02.395',2.01
'0:02.398',2.64
'0:02.402',2.97
'0:02.406',3.26
'0:02.410',3.48
'0:02.414',3.33
'0:02.418',3.01
'0:02.422',2.81
'0:02.426',2.62
'0:02.430',2.38
'0:02.434',1.6
'0:02.438',1.06
'0:02.441',0.84
'0:02.445',0.6
'0:02.449',0.38
'0:02.453',-0.29
'0:02.457',-0.72
'0:02.461',-0.68
'0:02.465',-0.45
'0:02.469',0.1
'0:02.473',0.45
'0:02.477',0.44
'0:02.480',0.21
'0:02.484',0.18
'0:02.488',0.4
'0:02.492',0.65
'0:02.496',0.25
'0:02.500',-0.37
'0:02.504',-0.42
'0:02.508',-0.31
'0:02.512',-1.33
'0:02.516',-2.87
'0:02.520',-3.67
'0:02.523',-4.13
'0:02.527',-4.68
'0:02.531',-5.53
'0:02.535',-5.12
'0:02.539',-4.58
'0:02.543',-4.74
'0:02.547',-4.55
'0:02.551',-4.21
'0:02.555',-4.5
'0:02.559',-4.34
'0:02.563',-4.86
'0:02.566',-5.83
'0:02.570',-4.97
'0:02.574',-3.73
'0:02.578',-3.03
'0:02.582',-0.83
'0:02.586',3.47
'0:02.590',7.53
'0:02.594',9.98
'0:02.598',10.04
'0:02.602',7.42
'0:02.605',2.39
'0:02.609',-3.69
'0:02.613',-7.35
'0:02.617',-9.17
'0:02.621',-9.09
'0:02.625',-7.93
'0:02.629',-6.76
'0:02.633',-5.69
'0:02.637',-5.08
'0:02.641',-4.46
'0:02.645',-3.46
'0:02.648',-2.31
'0:02.652',-0.74
'0:02.656',0.38
'0:02.660',0.93
'0:02.664',1.39
'0:02.668',1.87
'0:02.672',2.38
'0:02.676',2.6
'0:02.680',2.82
'0:02.684',3.25
'0:02.688',3.67
'0:02.691',4.29
'0:02.695',5
'0:02.699',5.36
'0:02.703',5.69
'0:02.707',6.06
'0:02.711',6.3
'0:02.715',6.23
'0:02.719',5.31
'0:02.723',4.53
'0:02.727',4.6
'0:02.730',5.13
'0:02.734',5.21
'0:02.738',4.49
'0:02.742',3.45
'0:02.746',3
'0:02.750',3.16
'0:02.754',3.22
'0:02.758',2.66
'0:02.762',2.46
'0:02.766',2.55
'0:02.770',3.23
'0:02.773',3.85
'0:02.777',3.75
'0:02.781',3.3
'0:02.785',3.24
'0:02.789',3.69
'0:02.793',4.02
'0:02.797',3.87
'0:02.801',3.16
'0:02.805',2.69
'0:02.809',2.6
'0:02.813',1.86
'0:02.816',1.68
'0:02.820',1.76
'0:02.824',2.25
'0:02.828',1.94
'0:02.832',0.71
'0:02.836',0.34
'0:02.840',-0.11
'0:02.844',-1.29
'0:02.848',-2.5
'0:02.852',-2.43
'0:02.855',-1.78
'0:02.859',-2.23
'0:02.863',-2.81
'0:02.867',-2.54
'0:02.871',-2.16
'0:02.875',-1.49
'0:02.879',0.14
'0:02.883',2.26
'0:02.887',5
'0:02.891',7.65
'0:02.895',9.23
'0:02.898',8.6
'0:02.902',5.78
'0:02.906',1.06
'0:02.910',-3.96
'0:02.914',-7.65
'0:02.918',-9.82
'0:02.922',-9.99
'0:02.926',-8.52
'0:02.930',-7.26
'0:02.934',-6.34
'0:02.938',-4.87
'0:02.941',-3.36
'0:02.945',-1.31
'0:02.949',-0.09
'0:02.953',-0.76
'0:02.957',-0.97
'0:02.961',-1.18
'0:02.965',-1.41
'0:02.969',-0.52
'0:02.973',0.03
'0:02.977',0.13
'0:02.980',0.21
'0:02.984',0.11
'0:02.988',0.4
'0:02.992',0.63
'0:02.996',1.01
'0:03.000',1.55
'0:03.004',1.73
'0:03.008',1.82
'0:03.012',2.02
'0:03.016',1.82
'0:03.020',1.42
'0:03.023',1.37
'0:03.027',1.4
'0:03.031',1.38
'0:03.035',1.14
'0:03.039',0.78
'0:03.043',0.24
'0:03.047',-0.13
'0:03.051',-0.24
'0:03.055',-0.31
'0:03.059',-0.56
'0:03.063',-0.79
'0:03.066',-0.9
'0:03.070',-0.7
'0:03.074',-0.52
'0:03.078',-0.39
'0:03.082',-0.08
'0:03.086',0.1
'0:03.090',0.17
'0:03.094',0.22
'0:03.098',0.34
'0:03.102',0.23
'0:03.105',-0.01
'0:03.109',-0.38
'0:03.113',-0.76
'0:03.117',-1.01
'0:03.121',-1.49
'0:03.125',-1.95
'0:03.129',-2.21
'0:03.133',-2.05
'0:03.137',-2.33
'0:03.141',-2.81
'0:03.145',-3.17
'0:03.148',-3.41
'0:03.152',-3.43
'0:03.156',-3.17
'0:03.160',-2.92
'0:03.164',-3.09
'0:03.168',-3.17
'0:03.172',-2.56
'0:03.176',-1.3
'0:03.180',0.76
'0:03.184',3.91
'0:03.188',7.34
'0:03.191',10.56
'0:03.195',12.57
'0:03.199',11.94
'0:03.203',8.9
'0:03.207',3.99
'0:03.211',-1.08
'0:03.215',-4.82
'0:03.219',-6.88
'0:03.223',-7.52
'0:03.227',-6.7
'0:03.230',-5.23
'0:03.234',-3.97
'0:03.238',-3.04
'0:03.242',-2.38
'0:03.246',-2
'0:03.250',-1.42
'0:03.254',-0.96
'0:03.258',-0.92
'0:03.262',-0.92
'0:03.266',-0.83
'0:03.270',-0.69
'0:03.273',-0.54
'0:03.277',-0.34
'0:03.281',-0.21
'0:03.285',-0.21
'0:03.289',-0.31
'0:03.293',-0.19
'0:03.297',0.49
'0:03.301',0.69
'0:03.305',0.64
'0:03.309',1.37
'0:03.313',2.32
'0:03.316',1.95
'0:03.320',1.01
'0:03.324',0.37
'0:03.328',0.74
'0:03.332',0.94
'0:03.336',0.6
'0:03.340',0.12
'0:03.344',-0.83
'0:03.348',-0.78
'0:03.352',-1.29
'0:03.355',-2.18
'0:03.359',-2.67
'0:03.363',-2.7
'0:03.367',-2.75
'0:03.371',-3.33
'0:03.375',-3.07
'0:03.379',-2.37
'0:03.383',-1.91
'0:03.387',-1.44
'0:03.391',-1.25
'0:03.395',-1.19
'0:03.398',-1.29
'0:03.402',-1.34
'0:03.406',-0.58
'0:03.410',-0.19
'0:03.414',-0.61
'0:03.418',-1.84
'0:03.422',-2.67
'0:03.426',-2.54
'0:03.430',-2.01
'0:03.434',-1.74
'0:03.438',-2.01
'0:03.441',-2.02
'0:03.445',-1.59
'0:03.449',-1.34
'0:03.453',-1.53
'0:03.457',-1.68
'0:03.461',-1.56
'0:03.465',-1.34
'0:03.469',-1.12
'0:03.473',-0.93
'0:03.477',-0.47
'0:03.480',0.33
'0:03.484',1.98
'0:03.488',4.97
'0:03.492',8.46
'0:03.496',11.42
'0:03.500',12.87
'0:03.504',11.43
'0:03.508',7.17
'0:03.512',1.68
'0:03.516',-2.82
'0:03.520',-5.7
'0:03.523',-6.92
'0:03.527',-6.95
'0:03.531',-6.18
'0:03.535',-5.13
'0:03.539',-4.01
'0:03.543',-3.02
'0:03.547',-2.09
'0:03.551',-0.94
'0:03.555',-0.15
'0:03.559',-0.02
'0:03.563',-0.22
'0:03.566',-0.53
'0:03.570',-0.72
'0:03.574',-1.04
'0:03.578',-1.38
'0:03.582',-1.26
'0:03.586',-0.78
'0:03.590',0.16
'0:03.594',1.03
'0:03.598',1.51
'0:03.602',1.99
'0:03.605',3.16
'0:03.609',4.57
'0:03.613',5.33
'0:03.617',4.84
'0:03.621',4.01
'0:03.625',3.59
'0:03.629',3.24
'0:03.633',1.84
'0:03.637',-0.2
'0:03.641',-1.16
'0:03.645',-0.57
'0:03.648',0.33
'0:03.652',0.97
'0:03.656',1.1
'0:03.660',1.22
'0:03.664',1.21
'0:03.668',1.43
'0:03.672',1.78
'0:03.676',1.64
'0:03.680',1.45
'0:03.684',1.78
'0:03.688',1.72
'0:03.691',1.13
'0:03.695',0.58
'0:03.699',0.21
'0:03.703',0.43
'0:03.707',1.08
'0:03.711',1.63
'0:03.715',1.23
'0:03.719',0.6
'0:03.723',0.3
'0:03.727',-0.1
'0:03.730',-0.26
'0:03.734',-0.43
'0:03.738',-0.65
'0:03.742',-0.77
'0:03.746',-1.39
'0:03.750',-2.1
'0:03.754',-2.69
'0:03.758',-2.8
'0:03.762',-2.89
'0:03.766',-3.34
'0:03.770',-3.34
'0:03.773',-3.05
'0:03.777',-2.68
'0:03.781',-1.89
'0:03.785',0.26
'0:03.789',3.39
'0:03.793',6.85
'0:03.797',9.42
'0:03.801',9.23
'0:03.805',6.16
'0:03.809',1.85
'0:03.813',-2.3
'0:03.816',-5.53
'0:03.820',-7.37
'0:03.824',-7.96
'0:03.828',-7.91
'0:03.832',-6.81
'0:03.836',-5.36
'0:03.840',-4.08
'0:03.844',-3.12
'0:03.848',-2.4
'0:03.852',-1.95
'0:03.855',-1.68
'0:03.859',-1.37
'0:03.863',-0.9
'0:03.867',-0.49
'0:03.871',0
'0:03.875',0.46
'0:03.879',0.78
'0:03.883',1.07
'0:03.887',1.61
'0:03.891',2.45
'0:03.895',3.05
'0:03.898',3.32
'0:03.902',3.37
'0:03.906',3.65
'0:03.910',4.07
'0:03.914',4.09
'0:03.918',4.07
'0:03.922',4.19
'0:03.926',4.24
'0:03.930',3.99
'0:03.934',3.37
'0:03.938',2.67
'0:03.941',2.18
'0:03.945',1.61
'0:03.949',1.12
'0:03.953',0.78
'0:03.957',0.61
'0:03.961',0.54
'0:03.965',0.47
'0:03.969',0.37
'0:03.973',0.49
'0:03.977',1.03
'0:03.980',1.53
'0:03.984',1.74
'0:03.988',1.76
'0:03.992',1.66
'0:03.996',1.42
'0:04.000',1.27
'0:04.004',1.22
'0:04.008',1.08
'0:04.012',0.98
'0:04.016',0.69
'0:04.020',0.24
'0:04.023',-0.35
'0:04.027',-1.08
'0:04.031',-1.77
'0:04.035',-1.94
'0:04.039',-1.71
'0:04.043',-1.7
'0:04.047',-2.39
'0:04.051',-3.44
'0:04.055',-4.42
'0:04.059',-4.7
'0:04.063',-4.51
'0:04.066',-4.46
'0:04.070',-4.53
'0:04.074',-4.89
'0:04.078',-4.99
'0:04.082',-4.17
'0:04.086',-2.14
'0:04.090',0.99
'0:04.094',4.74
'0:04.098',8.15
'0:04.102',9.09
'0:04.105',7.07
'0:04.109',2.5
'0:04.113',-3.25
'0:04.117',-7.74
'0:04.121',-9.85
'0:04.125',-10.56
'0:04.129',-10.13
'0:04.133',-8.91
'0:04.137',-7.32
'0:04.141',-5.67
'0:04.145',-4.44
'0:04.148',-3.61
'0:04.152',-3.43
'0:04.156',-2.92
'0:04.160',-2.44
'0:04.164',-2.12
'0:04.168',-1.8
'0:04.172',-1.54
'0:04.176',-1.71
'0:04.180',-1.7
'0:04.184',-1.1
'0:04.188',-0.46
'0:04.191',0.17
'0:04.195',0.9
'0:04.199',1.63
'0:04.203',2.1
'0:04.207',2.02
'0:04.211',1.64
'0:04.215',1.76
'0:04.219',2.76
'0:04.223',2.81
'0:04.227',2.24
'0:04.230',2.25
'0:04.234',2.31
'0:04.238',2.2
'0:04.242',2.48
'0:04.246',2.21
'0:04.250',1.12
'0:04.254',0.31
'0:04.258',-0.47
'0:04.262',-0.05
'0:04.266',0.77
'0:04.270',0.59
'0:04.273',-0.36
'0:04.277',-0.51
'0:04.281',0.12
'0:04.285',0.13
'0:04.289',0.01
'0:04.293',0.8
'0:04.297',1.69
'0:04.301',1.73
'0:04.305',1.35
'0:04.309',0.9
'0:04.313',0.54
'0:04.316',0.56
'0:04.320',0.33
'0:04.324',-0.41
'0:04.328',-0.99
'0:04.332',-1.34
'0:04.336',-1.5
'0:04.340',-1.93
'0:04.344',-2.31
'0:04.348',-2.49
'0:04.352',-2.62
'0:04.355',-2.5
'0:04.359',-2.92
'0:04.363',-3.67
'0:04.367',-3.94
'0:04.371',-3.29
'0:04.375',-2.41
'0:04.379',-1.05
'0:04.383',0.56
'0:04.387',1.47
'0:04.391',2.98
'0:04.395',5.81
'0:04.398',8.95
'0:04.402',10.9
'0:04.406',9.56
'0:04.410',5.97
'0:04.414',1.4
'0:04.418',-2.68
'0:04.422',-6.4
'0:04.426',-8.49
'0:04.430',-8.48
'0:04.434',-7.33
'0:04.438',-5.88
'0:04.441',-5.13
'0:04.445',-4.91
'0:04.449',-3.99
'0:04.453',-2.62
'0:04.457',-1.63
'0:04.461',-1.31
'0:04.465',-1.28
'0:04.469',-1.56
'0:04.473',-1.77
'0:04.477',-1.43
'0:04.480',-0.22
'0:04.484',0.83
'0:04.488',1.04
'0:04.492',0.86
'0:04.496',0.95
'0:04.500',1.25
'0:04.504',1.07
'0:04.508',1.12
'0:04.512',1.56
'0:04.516',1.99
'0:04.520',2.61
'0:04.523',3.04
'0:04.527',2.93
'0:04.531',2.68
'0:04.535',2.22
'0:04.539',2.27
'0:04.543',2.41
'0:04.547',1.97
'0:04.551',1.32
'0:04.555',1.37
'0:04.559',1.78
'0:04.563',1.64
'0:04.566',1.32
'0:04.570',1.29
'0:04.574',1.59
'0:04.578',1.81
'0:04.582',2.1
'0:04.586',2.52
'0:04.590',2.85
'0:04.594',2.91
'0:04.598',2.92
'0:04.602',3.14
'0:04.605',3.49
'0:04.609',3.74
'0:04.613',3.56
'0:04.617',3.02
'0:04.621',2.31
'0:04.625',1.35
'0:04.629',0.62
'0:04.633',0.33
'0:04.637',0.07
'0:04.641',-0.75
'0:04.645',-1.65
'0:04.648',-2.42
'0:04.652',-2.75
'0:04.656',-2.26
'0:04.660',-1.7
'0:04.664',-1.61
'0:04.668',-1.89
'0:04.672',-2.12
'0:04.676',-2.19
'0:04.680',-2.14
'0:04.684',-1.72
'0:04.688',-0.63
'0:04.691',1.44
'0:04.695',4.26
'0:04.699',7.33
'0:04.703',9.84
'0:04.707',10.33
'0:04.711',7.8
'0:04.715',3.16
'0:04.719',-1.72
'0:04.723',-5.2
'0:04.727',-6.79
'0:04.730',-6.98
'0:04.734',-6.33
'0:04.738',-5.26
'0:04.742',-4.19
'0:04.746',-3.22
'0:04.750',-2.51
'0:04.754',-2.07
'0:04.758',-1.7
'0:04.762',-1.17
'0:04.766',-0.73
'0:04.770',-0.46
'0:04.773',0
'0:04.777',0.25
'0:04.781',0.05
'0:04.785',-0.23
'0:04.789',-0.09
'0:04.793',0.27
'0:04.797',0.48
'0:04.801',0.74
'0:04.805',1.46
'0:04.809',2.31
'0:04.813',2.78
'0:04.816',2.94
'0:04.820',2.75
'0:04.824',2.62
'0:04.828',2.99
'0:04.832',3.54
'0:04.836',4
'0:04.840',4.19
'0:04.844',4.03
'0:04.848',3.51
'0:04.852',2.98
'0:04.855',2.54
'0:04.859',2.22
'0:04.863',2.12
'0:04.867',2.15
'0:04.871',2.35
'0:04.875',2.34
'0:04.879',1.93
'0:04.883',1.3
'0:04.887',1.13
'0:04.891',1.7
'0:04.895',2.1
'0:04.898',2.3
'0:04.902',2.58
'0:04.906',2.31
'0:04.910',1.68
'0:04.914',1.02
'0:04.918',0.3
'0:04.922',-0.58
'0:04.926',-1.65
'0:04.930',-2.41
'0:04.934',-3.1
'0:04.938',-3.74
'0:04.941',-4.03
'0:04.945',-4.21
'0:04.949',-4.07
'0:04.953',-3.4
'0:04.957',-2.92
'0:04.961',-3.02
'0:04.965',-3.54
'0:04.969',-4.09
'0:04.973',-4.64
'0:04.977',-4.57
'0:04.980',-3.89
'0:04.984',-2.62
'0:04.988',-0.22
'0:04.992',2.89
'0:04.996',6.27
'0:05.000',8.62
'0:05.004',8.09
'0:05.008',5.15
'0:05.012',-0.1
'0:05.016',-5.24
'0:05.020',-9.18
'0:05.023',-11.09
'0:05.027',-10.88
'0:05.031',-9.46
'0:05.035',-7.86
'0:05.039',-6.48
'0:05.043',-5.51
'0:05.047',-4.89
'0:05.051',-4.46
'0:05.055',-4.05
'0:05.059',-3.7
'0:05.063',-3.33
'0:05.066',-2.94
'0:05.070',-2.43
'0:05.074',-1.51
'0:05.078',-0.97
'0:05.082',-0.97
'0:05.086',-0.79
'0:05.090',-0.58
'0:05.094',-0.14
'0:05.098',0.46
'0:05.102',1.16
'0:05.105',1.83
'0:05.109',2.47
'0:05.113',3.1
'0:05.117',3.58
'0:05.121',3.95
'0:05.125',3.93
'0:05.129',3.79
'0:05.133',3.85
'0:05.137',3.98
'0:05.141',3.71
'0:05.145',3.17
'0:05.148',2.57
'0:05.152',2.04
'0:05.156',1.56
'0:05.160',1.22
'0:05.164',1.17
'0:05.168',1.17
'0:05.172',0.95
'0:05.176',0.63
'0:05.180',0.42
'0:05.184',0.4
'0:05.188',0.4
'0:05.191',0.47
'0:05.195',0.56
'0:05.199',0.49
'0:05.203',0.49
'0:05.207',0.56
'0:05.211',0.58
'0:05.215',0.44
'0:05.219',0.03
'0:05.223',-0.53
'0:05.227',-1.07
'0:05.230',-1.73
'0:05.234',-2.51
'0:05.238',-3.24
'0:05.242',-3.6
'0:05.246',-3.6
'0:05.250',-3.48
'0:05.254',-3.22
'0:05.258',-3.13
'0:05.262',-3.21
'0:05.266',-3.39
'0:05.270',-3.63
'0:05.273',-3.8
'0:05.277',-3.58
'0:05.281',-2.82
'0:05.285',-1.27
'0:05.289',1.68
'0:05.293',5.64
'0:05.297',9.9
'0:05.301',12.55
'0:05.305',11.84
'0:05.309',7.92
'0:05.313',1.91
'0:05.316',-3.38
'0:05.320',-6.62
'0:05.324',-8.16
'0:05.328',-8.22
'0:05.332',-6.96
'0:05.336',-5.49
'0:05.340',-4.28
'0:05.344',-3.28
'0:05.348',-2.25
'0:05.352',-1.43
'0:05.355',-0.98
'0:05.359',-0.86
'0:05.363',-0.97
'0:05.367',-0.97
'0:05.371',-0.58
'0:05.375',0.05
'0:05.379',0.33
'0:05.383',0.49
'0:05.387',0.83
'0:05.391',0.96
'0:05.395',1.11
'0:05.398',1.78
'0:05.402',2.79
'0:05.406',3.45
'0:05.410',3.68
'0:05.414',3.51
'0:05.418',3.27
'0:05.422',3.03
'0:05.426',2.93
'0:05.430',2.81
'0:05.434',2.71
'0:05.438',2.71
'0:05.441',2.85
'0:05.445',2.38
'0:05.449',1.5
'0:05.453',0.71
'0:05.457',0.4
'0:05.461',0.61
'0:05.465',1.29
'0:05.469',1.2
'0:05.473',1.02
'0:05.477',0.76
'0:05.480',0.42
'0:05.484',0.1
'0:05.488',-0.14
'0:05.492',-0.27
'0:05.496',0.31
'0:05.500',1.63
'0:05.504',2
'0:05.508',1.73
'0:05.512',1.34
'0:05.516',0.53
'0:05.520',-0.7
'0:05.523',-1.56
'0:05.527',-2.19
'0:05.531',-2.84
'0:05.535',-2.89
'0:05.539',-2.89
'0:05.543',-2.88
'0:05.547',-3.33
'0:05.551',-3.73
'0:05.555',-4.04
'0:05.559',-4.08
'0:05.563',-4.01
'0:05.566',-3.91
'0:05.570',-3.56
'0:05.574',-3.38
'0:05.578',-3.17
'0:05.582',-2.56
'0:05.586',-1.86
'0:05.590',-0.53
'0:05.594',1.35
'0:05.598',3.55
'0:05.602',6.25
'0:05.605',8.67
'0:05.609',8.42
'0:05.613',5.71
'0:05.617',1.2
'0:05.621',-3.14
'0:05.625',-5.99
'0:05.629',-7.28
'0:05.633',-7.45
'0:05.637',-6.79
'0:05.641',-5.67
'0:05.645',-4.43
'0:05.648',-3.34
'0:05.652',-2.43
'0:05.656',-1.63
'0:05.660',-1.01
'0:05.664',-0.63
'0:05.668',-0.48
'0:05.672',-0.36
'0:05.676',-0.16
'0:05.680',0.03
'0:05.684',0.32
'0:05.688',0.81
'0:05.691',1.39
'0:05.695',1.83
'0:05.699',1.99
'0:05.703',2.08
'0:05.707',2.28
'0:05.711',2.69
'0:05.715',3.05
'0:05.719',3.49
'0:05.723',3.97
'0:05.727',4.24
'0:05.730',4.15
'0:05.734',3.8
'0:05.738',3.55
'0:05.742',3.32
'0:05.746',3.05
'0:05.750',2.8
'0:05.754',2.46
'0:05.758',2.27
'0:05.762',2.17
'0:05.766',2.29
'0:05.770',2.34
'0:05.773',2.35
'0:05.777',2.49
'0:05.781',2.58
'0:05.785',2.41
'0:05.789',1.92
'0:05.793',1.58
'0:05.797',1.55
'0:05.801',1.44
'0:05.805',1.44
'0:05.809',1.52
'0:05.813',1.53
'0:05.816',1.39
'0:05.820',1.07
'0:05.824',0.4
'0:05.828',-0.33
'0:05.832',-0.76
'0:05.836',-0.97
'0:05.840',-1.65
'0:05.844',-2.26
'0:05.848',-2.49
'0:05.852',-2.71
'0:05.855',-2.85
'0:05.859',-2.82
'0:05.863',-2.68
'0:05.867',-3.01
'0:05.871',-3.34
'0:05.875',-3.55
'0:05.879',-3.55
'0:05.883',-3.38
'0:05.887',-3.35
'0:05.891',-2.41
'0:05.895',0.12
'0:05.898',3.33
'0:05.902',6.82
'0:05.906',9.22
'0:05.910',8.85
'0:05.914',6.07
'0:05.918',1.24
'0:05.922',-3.64
'0:05.926',-7.09
'0:05.930',-8.83
'0:05.934',-8.84
'0:05.938',-7.69
'0:05.941',-6.4
'0:05.945',-4.97
'0:05.949',-3.84
'0:05.953',-3.63
'0:05.957',-3.55
'0:05.961',-3.11
'0:05.965',-2.14
'0:05.969',-1.29
'0:05.973',-0.6
'0:05.977',-0.1
'0:05.980',0
'0:05.984',-0.02
'0:05.988',0.17
'0:05.992',0.47
'0:05.996',0.88
'0:06.000',1.22
'0:06.004',1.3
'0:06.008',1.58
'0:06.012',2.2
'0:06.016',2.96
'0:06.020',3.27
'0:06.023',3.65
'0:06.027',4.09
'0:06.031',4.56
'0:06.035',5.09
'0:06.039',4.94
'0:06.043',4.08
'0:06.047',4
'0:06.051',3.84
'0:06.055',2.75
'0:06.059',1.56
'0:06.063',0.88
'0:06.066',0.93
'0:06.070',0.87
'0:06.074',0.56
'0:06.078',0.59
'0:06.082',0.56
'0:06.086',0.43
'0:06.090',0.32
'0:06.094',0.35
'0:06.098',0.96
'0:06.102',1.71
'0:06.105',1.68
'0:06.109',1.21
'0:06.113',0.43
'0:06.117',0.02
'0:06.121',-0.22
'0:06.125',-0.56
'0:06.129',-1.02
'0:06.133',-1.58
'0:06.137',-2.19
'0:06.141',-2.53
'0:06.145',-2.43
'0:06.148',-2.95
'0:06.152',-3.63
'0:06.156',-3.81
'0:06.160',-3.81
'0:06.164',-3.78
'0:06.168',-3.72
'0:06.172',-3.63
'0:06.176',-3.83
'0:06.180',-3.89
'0:06.184',-3.77
'0:06.188',-3.16
'0:06.191',-1.73
'0:06.195',0.89
'0:06.199',4.19
'0:06.203',8.05
'0:06.207',10.81
'0:06.211',10.56
'0:06.215',7.64
'0:06.219',1.81
'0:06.223',-4.05
'0:06.227',-7.65
'0:06.230',-8.78
'0:06.234',-8.5
'0:06.238',-7.51
'0:06.242',-6
'0:06.246',-4.7
'0:06.250',-3.57
'0:06.254',-2.64
'0:06.258',-1.71
'0:06.262',-0.57
'0:06.266',0.11
'0:06.270',0.2
'0:06.273',0.31
'0:06.277',0.42
'0:06.281',0.74
'0:06.285',1.15
'0:06.289',1.57
'0:06.293',2.14
'0:06.297',2.3
'0:06.301',2.76
'0:06.305',2.71
'0:06.309',2.53
'0:06.313',2.79
'0:06.316',3.56
'0:06.320',4.29
'0:06.324',4.73
'0:06.328',4.7
'0:06.332',4.51
'0:06.336',4.39
'0:06.340',4.46
'0:06.344',4.73
'0:06.348',4.6
'0:06.352',3.82
'0:06.355',2.7
'0:06.359',1.9
'0:06.363',1.57
'0:06.367',1.68
'0:06.371',1.63
'0:06.375',1.21
'0:06.379',0.51
'0:06.383',0.52
'0:06.387',1.04
'0:06.391',1.17
'0:06.395',0.91
'0:06.398',0.86
'0:06.402',0.8
'0:06.406',0.74
'0:06.410',0.91
'0:06.414',1.03
'0:06.418',1.08
'0:06.422',1.37
'0:06.426',1.66
'0:06.430',1.36
'0:06.434',0.17
'0:06.438',-0.98
'0:06.441',-1.78
'0:06.445',-2.35
'0:06.449',-1.83
'0:06.453',-2.12
'0:06.457',-2.58
'0:06.461',-3.02
'0:06.465',-3.26
'0:06.469',-2.79
'0:06.473',-1.97
'0:06.477',-2.19
'0:06.480',-2.61
'0:06.484',-2.6
'0:06.488',-2.4
'0:06.492',-1.8
'0:06.496',-0.28
'0:06.500',1.82
'0:06.504',4.19
'0:06.508',6.96
'0:06.512',9.23
'0:06.516',9.24
'0:06.520',6.19
'0:06.523',1.41
'0:06.527',-2.84
'0:06.531',-5.8
'0:06.535',-7.54
'0:06.539',-7.64
'0:06.543',-7.23
'0:06.547',-6.44
'0:06.551',-5.52
'0:06.555',-4.4
'0:06.559',-3.16
'0:06.563',-2.21
'0:06.566',-1.65
'0:06.570',-1.23
'0:06.574',-0.83
'0:06.578',-0.43
'0:06.582',-0.07
'0:06.586',0.06
'0:06.590',0
'0:06.594',0.06
'0:06.598',0.35
'0:06.602',0.7
'0:06.605',0.98
'0:06.609',1.23
'0:06.613',1.86
'0:06.617',2.49
'0:06.621',2.96
'0:06.625',3.24
'0:06.629',3.35
'0:06.633',3.39
'0:06.637',3.64
'0:06.641',3.99
'0:06.645',4
'0:06.648',3.43
'0:06.652',2.71
'0:06.656',2.02
'0:06.660',1.41
'0:06.664',0.76
'0:06.668',0.34
'0:06.672',0.5
'0:06.676',1.12
'0:06.680',1.78
'0:06.684',2.35
'0:06.688',2.41
'0:06.691',1.81
'0:06.695',1.05
'0:06.699',0.56
'0:06.703',0.03
'0:06.707',-0.43
'0:06.711',-0.23
'0:06.715',0.62
'0:06.719',1.05
'0:06.723',1.12
'0:06.727',1.08
'0:06.730',0.7
'0:06.734',0.02
'0:06.738',-0.81
'0:06.742',-1.74
'0:06.746',-2.4
'0:06.750',-2.99
'0:06.754',-3.48
'0:06.758',-3.52
'0:06.762',-3.21
'0:06.766',-2.9
'0:06.770',-2.75
'0:06.773',-2.63
'0:06.777',-2.73
'0:06.781',-2.97
'0:06.785',-2.89
'0:06.789',-2.51
'0:06.793',-2.43
'0:06.797',-2.16
'0:06.801',-0.85
'0:06.805',1.48
'0:06.809',4.56
'0:06.813',7.71
'0:06.816',9.08
'0:06.820',7.78
'0:06.824',4.34
'0:06.828',-0.3
'0:06.832',-3.98
'0:06.836',-6.43
'0:06.840',-7.58
'0:06.844',-7.71
'0:06.848',-6.96
'0:06.852',-5.81
'0:06.855',-4.4
'0:06.859',-3.18
'0:06.863',-2.28
'0:06.867',-1.4
'0:06.871',-0.68
'0:06.875',-0.46
'0:06.879',-0.71
'0:06.883',-0.74
'0:06.887',-0.56
'0:06.891',-0.24
'0:06.895',-0.02
'0:06.898',-0.09
'0:06.902',-0.1
'0:06.906',0.13
'0:06.910',0.66
'0:06.914',1.42
'0:06.918',2.2
'0:06.922',2.83
'0:06.926',3.04
'0:06.930',3.06
'0:06.934',3.26
'0:06.938',3.59
'0:06.941',3.83
'0:06.945',3.53
'0:06.949',3.09
'0:06.953',2.69
'0:06.957',2.46
'0:06.961',2.27
'0:06.965',2.04
'0:06.969',1.52
'0:06.973',0.91
'0:06.977',0.4
'0:06.980',0.16
'0:06.984',-0.02
'0:06.988',-0.35
'0:06.992',-0.61
'0:06.996',-0.76
'0:07.000',-0.85
'0:07.004',-0.77
'0:07.008',-0.48
'0:07.012',-0.09
'0:07.016',0.29
'0:07.020',0.49
'0:07.023',0.22
'0:07.027',-0.27
'0:07.031',-0.76
'0:07.035',-1.31
'0:07.039',-1.9
'0:07.043',-2.4
'0:07.047',-2.79
'0:07.051',-3.14
'0:07.055',-3.38
'0:07.059',-3.49
'0:07.063',-3.55
'0:07.066',-3.63
'0:07.070',-3.89
'0:07.074',-4.18
'0:07.078',-4.38
'0:07.082',-4.45
'0:07.086',-4.46
'0:07.090',-4.15
'0:07.094',-3.32
'0:07.098',-1.3
'0:07.102',1.92
'0:07.105',5.88
'0:07.109',9.81
'0:07.113',11.48
'0:07.117',9.52
'0:07.121',4.98
'0:07.125',-0.56
'0:07.129',-5.4
'0:07.133',-8.35
'0:07.137',-9.47
'0:07.141',-9.27
'0:07.145',-7.95
'0:07.148',-6.08
'0:07.152',-4.23
'0:07.156',-2.96
'0:07.160',-2.18
'0:07.164',-1.48
'0:07.168',-1.09
'0:07.172',-0.98
'0:07.176',-0.77
'0:07.180',-0.47
'0:07.184',-0.18
'0:07.188',0.28
'0:07.191',0.74
'0:07.195',1.16
'0:07.199',1.66
'0:07.203',1.82
'0:07.207',1.89
'0:07.211',2.43
'0:07.215',2.9
'0:07.219',3.05
'0:07.223',3.15
'0:07.227',3.27
'0:07.230',3.61
'0:07.234',4.12
'0:07.238',4.21
'0:07.242',4.05
'0:07.246',3.84
'0:07.250',3.1
'0:07.254',2.38
'0:07.258',1.58
'0:07.262',1.02
'0:07.266',0.7
'0:07.270',0.37
'0:07.273',0.42
'0:07.277',0.52
'0:07.281',0.4
'0:07.285',0.35
'0:07.289',0.12
'0:07.293',-0.26
'0:07.297',-0.36
'0:07.301',-0.19
'0:07.305',-0.24
'0:07.309',-0.33
'0:07.313',-0.34
'0:07.316',-0.28
'0:07.320',0.21
'0:07.324',0.85
'0:07.328',0.86
'0:07.332',0.45
'0:07.336',-0.49
'0:07.340',-1.66
'0:07.344',-2.3
'0:07.348',-2.53
'0:07.352',-2.87
'0:07.355',-2.8
'0:07.359',-2.93
'0:07.363',-3.04
'0:07.367',-2.92
'0:07.371',-3.41
'0:07.375',-3.85
'0:07.379',-4.1
'0:07.383',-3.61
'0:07.387',-2.7
'0:07.391',-2.83
'0:07.395',-3.82
'0:07.398',-4.34
'0:07.402',-3.27
'0:07.406',-0.78
'0:07.410',1.48
'0:07.414',4.15
'0:07.418',7.77
'0:07.422',10.15
'0:07.426',9.38
'0:07.430',5.89
'0:07.434',0.91
'0:07.438',-4.63
'0:07.441',-7.95
'0:07.445',-8.83
'0:07.449',-8.25
'0:07.453',-7.03
'0:07.457',-5.73
'0:07.461',-4.11
'0:07.465',-2.74
'0:07.469',-1.87
'0:07.473',-1.36
'0:07.477',-0.92
'0:07.480',-0.55
'0:07.484',-0.09
'0:07.488',0.3
'0:07.492',0.37
'0:07.496',0.39
'0:07.500',0.58
'0:07.504',0.97
'0:07.508',1.52
'0:07.512',2.03
'0:07.516',2.3
'0:07.520',2.49
'0:07.523',2.66
'0:07.527',2.93
'0:07.531',3.37
'0:07.535',3.85
'0:07.539',4.05
'0:07.543',3.93
'0:07.547',3.79
'0:07.551',3.71
'0:07.555',3.51
'0:07.559',3.38
'0:07.563',3.14
'0:07.566',2.63
'0:07.570',1.99
'0:07.574',1.25
'0:07.578',0.7
'0:07.582',0.47
'0:07.586',0.59
'0:07.590',0.91
'0:07.594',1.3
'0:07.598',1.39
'0:07.602',1.32
'0:07.605',1.35
'0:07.609',1.58
'0:07.613',1.86
'0:07.617',2.05
'0:07.621',2
'0:07.625',1.73
'0:07.629',1.21
'0:07.633',0.6
'0:07.637',0.17
'0:07.641',-0.34
'0:07.645',-1.03
'0:07.648',-1.66
'0:07.652',-2.15
'0:07.656',-2.51
'0:07.660',-2.73
'0:07.664',-2.93
'0:07.668',-3.17
'0:07.672',-3.18
'0:07.676',-3.1
'0:07.680',-2.96
'0:07.684',-2.8
'0:07.688',-2.73
'0:07.691',-2.88
'0:07.695',-3.24
'0:07.699',-3.5
'0:07.703',-3.21
'0:07.707',-1.73
'0:07.711',1.15
'0:07.715',4.73
'0:07.719',8.09
'0:07.723',9.93
'0:07.727',8.97
'0:07.730',5.54
'0:07.734',0.36
'0:07.738',-4.04
'0:07.742',-6.78
'0:07.746',-8.22
'0:07.750',-8.53
'0:07.754',-7.24
'0:07.758',-5.25
'0:07.762',-3.71
'0:07.766',-2.62
'0:07.770',-1.74
'0:07.773',-1.04
'0:07.777',-0.71
'0:07.781',-0.62
'0:07.785',-0.55
'0:07.789',-0.01
'0:07.793',0.27
'0:07.797',0.27
'0:07.801',0.27
'0:07.805',1.52
'0:07.809',2.06
'0:07.813',2.59
'0:07.816',2.78
'0:07.820',3.06
'0:07.824',3.3
'0:07.828',3.29
'0:07.832',3.25
'0:07.836',3.57
'0:07.840',4.05
'0:07.844',4.39
'0:07.848',4.24
'0:07.852',3.83
'0:07.855',3.39
'0:07.859',3.05
'0:07.863',2.61
'0:07.867',2.14
'0:07.871',1.51
'0:07.875',1.12
'0:07.879',0.83
'0:07.883',0.57
'0:07.887',0.4
'0:07.891',0.16
'0:07.895',-0.14
'0:07.898',-0.36
'0:07.902',-0.42
'0:07.906',-0.36
'0:07.910',-0.21
'0:07.914',-0.08
'0:07.918',0.01
'0:07.922',-0.02
'0:07.926',-0.24
'0:07.930',-0.55
'0:07.934',-0.92
'0:07.938',-1.39
'0:07.941',-1.93
'0:07.945',-2.58
'0:07.949',-3.22
'0:07.953',-3.85
'0:07.957',-4.21
'0:07.961',-4.31
'0:07.965',-4.34
'0:07.969',-4.39
'0:07.973',-4.67
'0:07.977',-5
'0:07.980',-4.94
'0:07.984',-4.89
'0:07.988',-4.76
'0:07.992',-4.36
'0:07.996',-3.65
'0:08.000',-2.58
'0:08.004',-0.19
'0:08.008',2.86
'0:08.012',6.32
'0:08.016',9.27
'0:08.020',9.26
'0:08.023',6.1
'0:08.027',0.81
'0:08.031',-4.39
'0:08.035',-8.15
'0:08.039',-10.1
'0:08.043',-10.4
'0:08.047',-9.58
'0:08.051',-8.24
'0:08.055',-6.56
'0:08.059',-5.16
'0:08.063',-4.48
'0:08.066',-3.79
'0:08.070',-3.26
'0:08.074',-2.89
'0:08.078',-2.26
'0:08.082',-1.41
'0:08.086',-0.66
'0:08.090',-0.51
'0:08.094',-0.39
'0:08.098',0.03
'0:08.102',0.46
'0:08.105',0.78
'0:08.109',1
'0:08.113',1.37
'0:08.117',2.06
'0:08.121',2.99
'0:08.125',3.73
'0:08.129',3.7
'0:08.133',3.41
'0:08.137',3.36
'0:08.141',3.55
'0:08.145',3.49
'0:08.148',3.34
'0:08.152',3.22
'0:08.156',3.27
'0:08.160',2.73
'0:08.164',1.97
'0:08.168',1.34
'0:08.172',0.6
'0:08.176',0.26
'0:08.180',0.1
'0:08.184',0.32
'0:08.188',0.22
'0:08.191',0.06
'0:08.195',0.23
'0:08.199',-0.16
'0:08.203',-0.26
'0:08.207',0.21
'0:08.211',0.69
'0:08.215',1.1
'0:08.219',1.27
'0:08.223',1.32
'0:08.227',1.15
'0:08.230',0.65
'0:08.234',0.42
'0:08.238',0.29
'0:08.242',-0.03
'0:08.246',-0.56
'0:08.250',-0.95
'0:08.254',-1.21
'0:08.258',-1.66
'0:08.262',-2.03
'0:08.266',-2.14
'0:08.270',-2.45
'0:08.273',-3.19
'0:08.277',-3.09
'0:08.281',-2.31
'0:08.285',-2.29
'0:08.289',-2.69
'0:08.293',-3.22
'0:08.297',-3.41
'0:08.301',-2.83
'0:08.305',-2.37
'0:08.309',-1.17
'0:08.313',1.66
'0:08.316',4.9
'0:08.320',8.02
'0:08.324',9.94
'0:08.328',9.02
'0:08.332',6.23
'0:08.336',1.65
'0:08.340',-2.91
'0:08.344',-5.89
'0:08.348',-7.26
'0:08.352',-7.32
'0:08.355',-6.34
'0:08.359',-4.91
'0:08.363',-3.56
'0:08.367',-2.47
'0:08.371',-1.83
'0:08.375',-1.41
'0:08.379',-0.87
'0:08.383',-0.45
'0:08.387',-0.04
'0:08.391',0.48
'0:08.395',1.02
'0:08.398',1.45
'0:08.402',1.71
'0:08.406',1.84
'0:08.410',2.03
'0:08.414',2.2
'0:08.418',2.4
'0:08.422',2.78
'0:08.426',3.11
'0:08.430',3.22
'0:08.434',3.56
'0:08.438',3.88
'0:08.441',4.02
'0:08.445',4.15
'0:08.449',3.92
'0:08.453',3.43
'0:08.457',3.08
'0:08.461',2.98
'0:08.465',2.96
'0:08.469',2.56
'0:08.473',1.85
'0:08.477',1.49
'0:08.480',1.44
'0:08.484',1.42
'0:08.488',1.51
'0:08.492',1.41
'0:08.496',1.35
'0:08.500',1.42
'0:08.504',1.62
'0:08.508',1.9
'0:08.512',2.07
'0:08.516',2.17
'0:08.520',2.08
'0:08.523',1.76
'0:08.527',1.32
'0:08.531',0.9
'0:08.535',0.54
'0:08.539',0.52
'0:08.543',0.41
'0:08.547',-0.29
'0:08.551',-1.08
'0:08.555',-1.68
'0:08.559',-2
'0:08.563',-2.27
'0:08.566',-2.56
'0:08.570',-2.75
'0:08.574',-2.57
'0:08.578',-2.33
'0:08.582',-2.22
'0:08.586',-2.34
'0:08.590',-2.85
'0:08.594',-3.26
'0:08.598',-3.39
'0:08.602',-3.42
'0:08.605',-3.41
'0:08.609',-2.84
'0:08.613',-1.22
'0:08.617',1.64
'0:08.621',5.3
'0:08.625',8.69
'0:08.629',9.93
'0:08.633',8.21
'0:08.637',4.44
'0:08.641',-0.45
'0:08.645',-4.54
'0:08.648',-7.02
'0:08.652',-7.93
'0:08.656',-7.9
'0:08.660',-7.27
'0:08.664',-6
'0:08.668',-4.59
'0:08.672',-3.82
'0:08.676',-3.67
'0:08.680',-3.14
'0:08.684',-2.14
'0:08.688',-1.21
'0:08.691',-0.58
'0:08.695',-0.19
'0:08.699',0.01
'0:08.703',-0.04
'0:08.707',-0.26
'0:08.711',-0.11
'0:08.715',0.22
'0:08.719',0.44
'0:08.723',0.59
'0:08.727',0.84
'0:08.730',1.58
'0:08.734',2.28
'0:08.738',2.76
'0:08.742',3.12
'0:08.746',3.32
'0:08.750',3.56
'0:08.754',3.59
'0:08.758',3.31
'0:08.762',2.98
'0:08.766',2.68
'0:08.770',2.19
'0:08.773',1.65
'0:08.777',1.29
'0:08.781',1.13
'0:08.785',1
'0:08.789',0.83
'0:08.793',0.66
'0:08.797',0.44
'0:08.801',0.2
'0:08.805',-0.02
'0:08.809',-0.14
'0:08.813',-0.02
'0:08.816',0.15
'0:08.820',0.27
'0:08.824',0.25
'0:08.828',0.3
'0:08.832',0.45
'0:08.836',0.54
'0:08.840',0.49
'0:08.844',0.24
'0:08.848',-0.29
'0:08.852',-1.17
'0:08.855',-1.98
'0:08.859',-2.73
'0:08.863',-3.09
'0:08.867',-3.29
'0:08.871',-3.4
'0:08.875',-3.26
'0:08.879',-3.23
'0:08.883',-3.21
'0:08.887',-3.07
'0:08.891',-3.09
'0:08.895',-3.36
'0:08.898',-3.51
'0:08.902',-3.45
'0:08.906',-2.91
'0:08.910',-2.01
'0:08.914',0.08
'0:08.918',3.58
'0:08.922',7.56
'0:08.926',10.78
'0:08.930',11.47
'0:08.934',8.95
'0:08.938',4.15
'0:08.941',-1.34
'0:08.945',-5.65
'0:08.949',-8.21
'0:08.953',-8.83
'0:08.957',-8.14
'0:08.961',-6.38
'0:08.965',-4.34
'0:08.969',-2.82
'0:08.973',-1.87
'0:08.977',-1.23
'0:08.980',-0.63
'0:08.984',-0.13
'0:08.988',0.33
'0:08.992',0.62
'0:08.996',1.03
'0:09.000',1.4
'0:09.004',1.66
'0:09.008',1.73
'0:09.012',1.78
'0:09.016',1.88
'0:09.020',2.12
'0:09.023',2.54
'0:09.027',2.89
'0:09.031',3.57
'0:09.035',4.07
'0:09.039',4.25
'0:09.043',4.54
'0:09.047',4.85
'0:09.051',5.07
'0:09.055',5.22
'0:09.059',5.11
'0:09.063',4.42
'0:09.066',3.24
'0:09.070',2.41
'0:09.074',1.87
'0:09.078',1.59
'0:09.082',1.53
'0:09.086',1.17
'0:09.090',0.58
'0:09.094',0.13
'0:09.098',-0.21
'0:09.102',-0.21
'0:09.105',0.03
'0:09.109',0.26
'0:09.113',0.61
'0:09.117',0.47
'0:09.121',0.19
'0:09.125',0.11
'0:09.129',0.44
'0:09.133',0.51
'0:09.137',0.71
'0:09.141',0.56
'0:09.145',-0.13
'0:09.148',-0.58
'0:09.152',-0.63
'0:09.156',-0.87
'0:09.160',-0.88
'0:09.164',-1.62
'0:09.168',-2.62
'0:09.172',-2.99
'0:09.176',-2.9
'0:09.180',-3.19
'0:09.184',-3.7
'0:09.188',-3.87
'0:09.191',-3.79
'0:09.195',-3.65
'0:09.199',-3.35
'0:09.203',-3.11
'0:09.207',-2.79
'0:09.211',-2.5
'0:09.215',-2.35
'0:09.219',-0.92
'0:09.223',1.53
'0:09.227',4.82
'0:09.230',8.17
'0:09.234',10.06
'0:09.238',9.28
'0:09.242',6.14
'0:09.246',1.15
'0:09.250',-3.39
'0:09.254',-6.37
'0:09.258',-7.7
'0:09.262',-7.98
'0:09.266',-7.49
'0:09.270',-6.1
'0:09.273',-4.51
'0:09.277',-3.29
'0:09.281',-2.33
'0:09.285',-1.52
'0:09.289',-0.84
'0:09.293',-0.63
'0:09.297',-0.63
'0:09.301',-0.58
'0:09.305',-0.14
'0:09.309',0.18
'0:09.313',-0.04
'0:09.316',-0.21
'0:09.320',0.08
'0:09.324',0.79
'0:09.328',1.39
'0:09.332',1.27
'0:09.336',0.85
'0:09.340',0.93
'0:09.344',1.45
'0:09.348',2.65
'0:09.352',3.81
'0:09.355',4.45
'0:09.359',4.91
'0:09.363',4.95
'0:09.367',4.64
'0:09.371',4.37
'0:09.375',3.64
'0:09.379',2.01
'0:09.383',0.82
'0:09.387',0.35
'0:09.391',0.35
'0:09.395',0.63
'0:09.398',0.38
'0:09.402',-0.29
'0:09.406',0.06
'0:09.410',0.69
'0:09.414',1.21
'0:09.418',1.96
'0:09.422',2.12
'0:09.426',2.25
'0:09.430',2.56
'0:09.434',2.53
'0:09.438',2.16
'0:09.441',1.81
'0:09.445',1.65
'0:09.449',1.02
'0:09.453',-0.18
'0:09.457',-0.99
'0:09.461',-1.08
'0:09.465',-0.9
'0:09.469',-1.15
'0:09.473',-2.15
'0:09.477',-2.97
'0:09.480',-3.34
'0:09.484',-3.51
'0:09.488',-3.99
'0:09.492',-4.03
'0:09.496',-3.02
'0:09.500',-1.6
'0:09.504',-1.48
'0:09.508',-2.65
'0:09.512',-3.41
'0:09.516',-3.87
'0:09.520',-3.81
'0:09.523',-2.43
'0:09.527',0.68
'0:09.531',3.61
'0:09.535',7.12
'0:09.539',9.73
'0:09.543',9.54
'0:09.547',6.43
'0:09.551',1.8
'0:09.555',-3
'0:09.559',-6.48
'0:09.563',-8.41
'0:09.566',-8.14
'0:09.570',-6.48
'0:09.574',-4.56
'0:09.578',-3.13
'0:09.582',-2.41
'0:09.586',-2.39
'0:09.590',-2.53
'0:09.594',-2.53
'0:09.598',-2.12
'0:09.602',-1.52
'0:09.605',-0.42
'0:09.609',0.55
'0:09.613',0.99
'0:09.617',0.95
'0:09.621',0.83
'0:09.625',1.11
'0:09.629',1.68
'0:09.633',2.07
'0:09.637',2.09
'0:09.641',2.42
'0:09.645',2.83
'0:09.648',2.67
'0:09.652',2.34
'0:09.656',2.82
'0:09.660',3.87
'0:09.664',4.74
'0:09.668',5.22
'0:09.672',5.19
'0:09.676',4.87
'0:09.680',4.34
'0:09.684',3.7
'0:09.688',3.09
'0:09.691',2.36
'0:09.695',1.98
'0:09.699',1.63
'0:09.703',0.97
'0:09.707',0.18
'0:09.711',-0.06
'0:09.715',0.08
'0:09.719',0.18
'0:09.723',0.23
'0:09.727',0.26
'0:09.730',0.61
'0:09.734',0.58
'0:09.738',0.62
'0:09.742',1.05
'0:09.746',1.12
'0:09.750',0.58
'0:09.754',-0.32
'0:09.758',-0.78
'0:09.762',-1.19
'0:09.766',-1.63
'0:09.770',-2.32
'0:09.773',-2.91
'0:09.777',-3.17
'0:09.781',-3.66
'0:09.785',-4.27
'0:09.789',-4.5
'0:09.793',-4.08
'0:09.797',-3.88
'0:09.801',-3.7
'0:09.805',-3.36
'0:09.809',-3.94
'0:09.813',-4.84
'0:09.816',-4.81
'0:09.820',-4.1
'0:09.824',-2.51
'0:09.828',0.41
'0:09.832',4.32
'0:09.836',8.44
'0:09.840',10.97
'0:09.844',10.39
'0:09.848',7.13
'0:09.852',1.76
'0:09.855',-4.05
'0:09.859',-8.3
'0:09.863',-10.03
'0:09.867',-9.77
'0:09.871',-8.15
'0:09.875',-6.09
'0:09.879',-4.5
'0:09.883',-3.62
'0:09.887',-2.93
'0:09.891',-1.96
'0:09.895',-1.04
'0:09.898',-0.43
'0:09.902',-0.1
'0:09.906',-0.09
'0:09.910',0.25
'0:09.914',0.5
'0:09.918',0.56
'0:09.922',0.76
'0:09.926',1.08
'0:09.930',1.25
'0:09.934',1.66
'0:09.938',2.2
'0:09.941',2.7
'0:09.945',2.94
'0:09.949',3.28
'0:09.953',3.46
'0:09.957',3.47
'0:09.961',3.93
'0:09.965',4.59
'0:09.969',5
'0:09.973',4.7
'0:09.977',4.21
'0:09.980',3.39
'0:09.984',2.78
'0:09.988',2.33
'0:09.992',1.79
'0:09.996',1.09
'0:10.000',0.63
'0:10.004',0.16
'0:10.008',-0.12
'0:10.012',-0.1
'0:10.016',0.31
'0:10.020',0.6
'0:10.023',0.08
'0:10.027',0.18
'0:10.031',0.32
'0:10.035',0.45
'0:10.039',0.45
'0:10.043',0.26
'0:10.047',-0.02
'0:10.051',-0.06
'0:10.055',-0.32
'0:10.059',-0.93
'0:10.063',-0.54
'0:10.066',-0.79
'0:10.070',-1.59
'0:10.074',-2.29
'0:10.078',-2.45
'0:10.082',-2.73
'0:10.086',-2.98
'0:10.090',-3.16
'0:10.094',-3
'0:10.098',-2.94
'0:10.102',-2.84
'0:10.105',-2.95
'0:10.109',-3.29
'0:10.113',-3.35
'0:10.117',-2.93
'0:10.121',-2.95
'0:10.125',-3.06
'0:10.129',-2.39
'0:10.133',-1.31
'0:10.137',0.29
'0:10.141',3.47
'0:10.145',6.43
'0:10.148',7.86
'0:10.152',6.32
'0:10.156',2.45
'0:10.160',-2.33
'0:10.164',-6.44
'0:10.168',-8.9
'0:10.172',-9.05
'0:10.176',-8.07
'0:10.180',-6.65
'0:10.184',-4.72
'0:10.188',-3.28
'0:10.191',-2.77
'0:10.195',-2.32
'0:10.199',-1.9
'0:10.203',-1.62
'0:10.207',-1.09
'0:10.211',-1.21
'0:10.215',-1.29
'0:10.219',-1.01
'0:10.223',-0.69
'0:10.227',-0.48
'0:10.230',-0.3
'0:10.234',0.11
'0:10.238',0.89
'0:10.242',1.91
'0:10.246',2.32
'0:10.250',2.64
'0:10.254',2.58
'0:10.258',2.52
'0:10.262',2.83
'0:10.266',3.08
'0:10.270',3.63
'0:10.273',3.44
'0:10.277',2.98
'0:10.281',2.59
'0:10.285',1.9
'0:10.289',1.46
'0:10.293',1.27
'0:10.297',1.17
'0:10.301',0.78
'0:10.305',0.29
'0:10.309',0.43
'0:10.313',1.03
'0:10.316',0.92
'0:10.320',0.71
'0:10.324',0.5
'0:10.328',0.84
'0:10.332',0.9
'0:10.336',0.56
'0:10.340',0.47
'0:10.344',0.87
'0:10.348',1.35
'0:10.352',1.21
'0:10.355',0.81
'0:10.359',1.28
'0:10.363',1.19
'0:10.367',0.34
'0:10.371',-1.01
'0:10.375',-1.66
'0:10.379',-2.31
'0:10.383',-3.48
'0:10.387',-3.87
'0:10.391',-3.67
'0:10.395',-3.93
'0:10.398',-4.69
'0:10.402',-5
'0:10.406',-4.77
'0:10.410',-4.57
'0:10.414',-4.25
'0:10.418',-3.52
'0:10.422',-2.7
'0:10.426',-2.9
'0:10.430',-3.48
'0:10.434',-3.46
'0:10.438',-1.86
'0:10.441',0.49
'0:10.445',3.58
'0:10.449',6.48
'0:10.453',7.88
'0:10.457',6.5
'0:10.461',2.52
'0:10.465',-2.82
'0:10.469',-6.81
'0:10.473',-9.12
'0:10.477',-9.97
'0:10.480',-9.35
'0:10.484',-7.81
'0:10.488',-6.01
'0:10.492',-4.45
'0:10.496',-3.25
'0:10.500',-2.27
'0:10.504',-1.73
'0:10.508',-1.6
'0:10.512',-1.29
'0:10.516',-0.99
'0:10.520',-0.68
'0:10.523',-0.63
'0:10.527',-0.73
'0:10.531',-0.69
'0:10.535',-0.65
'0:10.539',-0.63
'0:10.543',-0.62
'0:10.547',-0.33
'0:10.551',0.4
'0:10.555',1.26
'0:10.559',1.95
'0:10.563',2.3
'0:10.566',2.74
'0:10.570',3.2
'0:10.574',3.47
'0:10.578',3.44
'0:10.582',3.34
'0:10.586',3.17
'0:10.590',2.93
'0:10.594',2.81
'0:10.598',2.61
'0:10.602',2.29
'0:10.605',1.79
'0:10.609',1.25
'0:10.613',1.08
'0:10.617',1.24
'0:10.621',1.21
'0:10.625',0.87
'0:10.629',0.59
'0:10.633',0.54
'0:10.637',0.86
'0:10.641',1.16
'0:10.645',1.14
'0:10.648',1.07
'0:10.652',1.05
'0:10.656',1.19
'0:10.660',1.25
'0:10.664',0.97
'0:10.668',0.43
'0:10.672',-0.5
'0:10.676',-1.39
'0:10.680',-1.88
'0:10.684',-2.08
'0:10.688',-2.42
'0:10.691',-2.76
'0:10.695',-3.19
'0:10.699',-3.26
'0:10.703',-3.04
'0:10.707',-2.97
'0:10.711',-3.06
'0:10.715',-3.09
'0:10.719',-2.96
'0:10.723',-2.7
'0:10.727',-2.4
'0:10.730',-1.92
'0:10.734',-0.39
'0:10.738',2.39
'0:10.742',5.92
'0:10.746',9.61
'0:10.750',11.83
'0:10.754',10.16
'0:10.758',5.45
'0:10.762',-0.24
'0:10.766',-4.66
'0:10.770',-7.33
'0:10.773',-8.43
'0:10.777',-7.76
'0:10.781',-5.87
'0:10.785',-3.78
'0:10.789',-2.2
'0:10.793',-1.73
'0:10.797',-1.55
'0:10.801',-1.23
'0:10.805',-0.82
'0:10.809',-0.26
'0:10.813',0.34
'0:10.816',0.96
'0:10.820',1.47
'0:10.824',1.94
'0:10.828',2.43
'0:10.832',2.74
'0:10.836',3.18
'0:10.840',3.25
'0:10.844',3.43
'0:10.848',3.96
'0:10.852',4.43
'0:10.855',4.72
'0:10.859',4.84
'0:10.863',5.13
'0:10.867',5.39
'0:10.871',5.63
'0:10.875',5.66
'0:10.879',5.93
'0:10.883',6.22
'0:10.887',6.01
'0:10.891',5.16
'0:10.895',4.03
'0:10.898',3.47
'0:10.902',3.24
'0:10.906',3.01
'0:10.910',2.86
'0:10.914',2.63
'0:10.918',2.11
'0:10.922',1.3
'0:10.926',0.53
'0:10.930',0.43
'0:10.934',0.55
'0:10.938',0.7
'0:10.941',0.98
'0:10.945',1.3
'0:10.949',1.5
'0:10.953',1.82
'0:10.957',1.97
'0:10.961',2.13
'0:10.965',1.97
'0:10.969',1.53
'0:10.973',1.28
'0:10.977',0.99
'0:10.980',0.36
'0:10.984',-0.29
'0:10.988',-1.4
'0:10.992',-2.01
'0:10.996',-2.58
'0:11.000',-2.9
'0:11.004',-3.02
'0:11.008',-2.79
'0:11.012',-2.67
'0:11.016',-3.03
'0:11.020',-3.39
'0:11.023',-3.27
'0:11.027',-2.96
'0:11.031',-2.85
'0:11.035',-2.6
'0:11.039',-1.92
'0:11.043',-0.39
'0:11.047',2.15
'0:11.051',5.09
'0:11.055',7.94
'0:11.059',9.74
'0:11.063',8.47
'0:11.066',4.54
'0:11.070',-0.45
'0:11.074',-4.74
'0:11.078',-7.55
'0:11.082',-8.39
'0:11.086',-7.92
'0:11.090',-6.61
'0:11.094',-4.95
'0:11.098',-3.61
'0:11.102',-2.66
'0:11.105',-1.93
'0:11.109',-1.5
'0:11.113',-1.08
'0:11.117',-0.55
'0:11.121',0.09
'0:11.125',0.47
'0:11.129',0.42
'0:11.133',0.25
'0:11.137',0.53
'0:11.141',1.15
'0:11.145',1.4
'0:11.148',1.57
'0:11.152',1.77
'0:11.156',2.18
'0:11.160',2.4
'0:11.164',2.69
'0:11.168',3.18
'0:11.172',3.45
'0:11.176',3.79
'0:11.180',4.04
'0:11.184',4.03
'0:11.188',4.03
'0:11.191',4.26
'0:11.195',4.31
'0:11.199',3.51
'0:11.203',2.5
'0:11.207',1.81
'0:11.211',1.59
'0:11.215',1.61
'0:11.219',1.68
'0:11.223',1.58
'0:11.227',1.39
'0:11.230',1.28
'0:11.234',1.3
'0:11.238',1.53
'0:11.242',1.5
'0:11.246',1.18
'0:11.250',1.31
'0:11.254',1.57
'0:11.258',1.59
'0:11.262',1.54
'0:11.266',1.54
'0:11.270',1.45
'0:11.273',1.06
'0:11.277',0.77
'0:11.281',0.35
'0:11.285',-0.18
'0:11.289',-0.71
'0:11.293',-1.34
'0:11.297',-2.02
'0:11.301',-2.72
'0:11.305',-3.32
'0:11.309',-3.58
'0:11.313',-3.67
'0:11.316',-3.57
'0:11.320',-3.39
'0:11.324',-3.38
'0:11.328',-3.48
'0:11.332',-3.64
'0:11.336',-3.6
'0:11.340',-3.47
'0:11.344',-3.23
'0:11.348',-2.16
'0:11.352',0.16
'0:11.355',3.23
'0:11.359',6.33
'0:11.363',8.53
'0:11.367',7.83
'0:11.371',4.11
'0:11.375',-1.28
'0:11.379',-5.99
'0:11.383',-8.88
'0:11.387',-9.66
'0:11.391',-9.18
'0:11.395',-7.82
'0:11.398',-5.93
'0:11.402',-4.15
'0:11.406',-3.07
'0:11.410',-2.49
'0:11.414',-2.15
'0:11.418',-1.89
'0:11.422',-1.57
'0:11.426',-1.14
'0:11.430',-0.66
'0:11.434',-0.05
'0:11.438',0.48
'0:11.441',1.07
'0:11.445',1.45
'0:11.449',1.94
'0:11.453',2.47
'0:11.457',2.71
'0:11.461',3.03
'0:11.465',3.19
'0:11.469',3.14
'0:11.473',3.03
'0:11.477',3.34
'0:11.480',3.82
'0:11.484',4.17
'0:11.488',4.14
'0:11.492',3.74
'0:11.496',3.28
'0:11.500',3.06
'0:11.504',2.9
'0:11.508',2.75
'0:11.512',2.48
'0:11.516',2.01
'0:11.520',1.33
'0:11.523',0.9
'0:11.527',0.57
'0:11.531',0.14
'0:11.535',-0.21
'0:11.539',-0.42
'0:11.543',-0.57
'0:11.547',-0.57
'0:11.551',-0.33
'0:11.555',-0.13
'0:11.559',0.01
'0:11.563',0.08
'0:11.566',0.02
'0:11.570',-0.08
'0:11.574',-0.13
'0:11.578',-0.35
'0:11.582',-0.91
'0:11.586',-1.65
'0:11.590',-2.51
'0:11.594',-3.38
'0:11.598',-4.01
'0:11.602',-4.44
'0:11.605',-4.67
'0:11.609',-4.64
'0:11.613',-4.54
'0:11.617',-4.43
'0:11.621',-4.37
'0:11.625',-4.56
'0:11.629',-4.6
'0:11.633',-4.59
'0:11.637',-4.28
'0:11.641',-3.66
'0:11.645',-2.5
'0:11.648',-0.3
'0:11.652',2.84
'0:11.656',6.67
'0:11.660',10.24
'0:11.664',11.5
'0:11.668',9.06
'0:11.672',3.73
'0:11.676',-2.57
'0:11.680',-7.13
'0:11.684',-9.43
'0:11.688',-10.06
'0:11.691',-9.39
'0:11.695',-7.93
'0:11.699',-6.4
'0:11.703',-4.98
'0:11.707',-3.79
'0:11.711',-3.05
'0:11.715',-2.45
'0:11.719',-1.75
'0:11.723',-1.19
'0:11.727',-1.07
'0:11.730',-0.81
'0:11.734',-0.33
'0:11.738',0.16
'0:11.742',0.5
'0:11.746',0.72
'0:11.750',1.05
'0:11.754',1.6
'0:11.758',2.28
'0:11.762',2.98
'0:11.766',3.68
'0:11.770',4.47
'0:11.773',5.24
'0:11.777',5.64
'0:11.781',5.63
'0:11.785',5.19
'0:11.789',4.65
'0:11.793',4.2
'0:11.797',3.92
'0:11.801',3.56
'0:11.805',2.91
'0:11.809',2.38
'0:11.813',1.97
'0:11.816',1.38
'0:11.820',0.89
'0:11.824',0.6
'0:11.828',0.16
'0:11.832',-0.56
'0:11.836',-1.3
'0:11.840',-1.43
'0:11.844',-1.21
'0:11.848',-1.07
'0:11.852',-0.94
'0:11.855',-0.77
'0:11.859',-0.39
'0:11.863',0.07
'0:11.867',0.61
'0:11.871',0.97
'0:11.875',0.89
'0:11.879',0.48
'0:11.883',0.15
'0:11.887',-0.06
'0:11.891',-0.3
'0:11.895',-0.79
'0:11.898',-1.41
'0:11.902',-2.25
'0:11.906',-2.9
'0:11.910',-3.17
'0:11.914',-3.3
'0:11.918',-2.98
'0:11.922',-2.78
'0:11.926',-2.6
'0:11.930',-2.54
'0:11.934',-2.95
'0:11.938',-3.28
'0:11.941',-3.55
'0:11.945',-3.83
'0:11.949',-3.6
'0:11.953',-2.57
'0:11.957',-0.94
'0:11.961',1.26
'0:11.965',3.84
'0:11.969',6.41
'0:11.973',8.33
'0:11.977',8.08
'0:11.980',5.52
'0:11.984',1.31
'0:11.988',-3.2
'0:11.992',-6.46
'0:11.996',-8.32
'0:12.000',-8.84
'0:12.004',-8.32
'0:12.008',-7.06
'0:12.012',-5.46
'0:12.016',-4.2
'0:12.020',-3.21
'0:12.023',-2.25
'0:12.027',-1.28
'0:12.031',-0.73
'0:12.035',-0.81
'0:12.039',-0.77
'0:12.043',-0.5
'0:12.047',-0.38
'0:12.051',-0.1
'0:12.055',0.4
'0:12.059',1.2
'0:12.063',1.59
'0:12.066',1.64
'0:12.070',2.02
'0:12.074',2.51
'0:12.078',3.14
'0:12.082',3.65
'0:12.086',3.84
'0:12.090',3.86
'0:12.094',3.83
'0:12.098',3.72
'0:12.102',3.58
'0:12.105',3.5
'0:12.109',3.26
'0:12.113',2.81
'0:12.117',2.32
'0:12.121',1.94
'0:12.125',1.57
'0:12.129',1.07
'0:12.133',0.62
'0:12.137',0.32
'0:12.141',0.27
'0:12.145',0.27
'0:12.148',0.27
'0:12.152',0.27
'0:12.156',0.27
'0:12.160',0.27
'0:12.164',0.27
'0:12.168',0.93
'0:12.172',1.32
'0:12.176',1.43
'0:12.180',1.36
'0:12.184',1.16
'0:12.188',0.94
'0:12.191',0.72
'0:12.195',0.48
'0:12.199',-0.09
'0:12.203',-0.8
'0:12.207',-1.59
'0:12.211',-2.07
'0:12.215',-2.29
'0:12.219',-2.4
'0:12.223',-2.34
'0:12.227',-2.57
'0:12.230',-2.78
'0:12.234',-2.91
'0:12.238',-2.99
'0:12.242',-2.97
'0:12.246',-3.02
'0:12.250',-3.11
'0:12.254',-3.22
'0:12.258',-3.26
'0:12.262',-3.05
'0:12.266',-1.91
'0:12.270',0.37
'0:12.273',3.53
'0:12.277',6.87
'0:12.281',8.84
'0:12.285',7.83
'0:12.289',4.16
'0:12.293',-0.87
'0:12.297',-4.72
'0:12.301',-6.9
'0:12.305',-7.77
'0:12.309',-7.55
'0:12.313',-6.47
'0:12.316',-4.94
'0:12.320',-3.64
'0:12.324',-2.61
'0:12.328',-1.89
'0:12.332',-1.25
'0:12.336',-0.8
'0:12.340',-0.49
'0:12.344',-0.15
'0:12.348',0.23
'0:12.352',0.3
'0:12.355',0.34
'0:12.359',0.2
'0:12.363',0.26
'0:12.367',0.66
'0:12.371',1.26
'0:12.375',2.5
'0:12.379',3.22
'0:12.383',3.24
'0:12.387',2.81
'0:12.391',2.62
'0:12.395',2.89
'0:12.398',3.34
'0:12.402',3.72
'0:12.406',3.73
'0:12.410',3.35
'0:12.414',2.98
'0:12.418',2.72
'0:12.422',2.17
'0:12.426',1.32
'0:12.430',0.52
'0:12.434',-0.23
'0:12.438',-0.61
'0:12.441',-0.33
'0:12.445',0.25
'0:12.449',0.49
'0:12.453',0.19
'0:12.457',-0.44
'0:12.461',-1.19
'0:12.465',-1.42
'0:12.469',-1.4
'0:12.473',-1.18
'0:12.477',-0.84
'0:12.480',-0.88
'0:12.484',-1.21
'0:12.488',-1.34
'0:12.492',-1.44
'0:12.496',-1.77
'0:12.500',-2.58
'0:12.504',-3
'0:12.508',-3.18
'0:12.512',-3.62
'0:12.516',-4.29
'0:12.520',-4.78
'0:12.523',-4.74
'0:12.527',-4.36
'0:12.531',-3.88
'0:12.535',-3.63
'0:12.539',-3.64
'0:12.543',-3.71
'0:12.547',-3.84
'0:12.551',-3.77
'0:12.555',-3.49
'0:12.559',-3.03
'0:12.563',-2.04
'0:12.566',0.17
'0:12.570',3.37
'0:12.574',7
'0:12.578',10.39
'0:12.582',11.49
'0:12.586',9.06
'0:12.590',4.33
'0:12.594',-1.01
'0:12.598',-5.14
'0:12.602',-7.5
'0:12.605',-8.27
'0:12.609',-7.64
'0:12.613',-5.84
'0:12.617',-3.73
'0:12.621',-1.91
'0:12.625',-0.85
'0:12.629',-0.32
'0:12.633',-0.01
'0:12.637',0.44
'0:12.641',0.89
'0:12.645',1.37
'0:12.648',1.97
'0:12.652',2.5
'0:12.656',2.74
'0:12.660',3.05
'0:12.664',3.33
'0:12.668',3.45
'0:12.672',3.64
'0:12.676',3.97
'0:12.680',4.35
'0:12.684',4.75
'0:12.688',5.31
'0:12.691',5.84
'0:12.695',6.25
'0:12.699',6.38
'0:12.703',6.51
'0:12.707',6.65
'0:12.711',6.22
'0:12.715',5.65
'0:12.719',4.79
'0:12.723',3.62
'0:12.727',2.66
'0:12.730',2.06
'0:12.734',1.55
'0:12.738',1.18
'0:12.742',0.76
'0:12.746',0.46
'0:12.750',0.27
'0:12.754',0.09
'0:12.758',-0.08
'0:12.762',-0.4
'0:12.766',-0.7
'0:12.770',-1.06
'0:12.773',-1.24
'0:12.777',-1.03
'0:12.781',-0.56
'0:12.785',-0.1
'0:12.789',0.17
'0:12.793',0.18
'0:12.797',0.23
'0:12.801',0.43
'0:12.805',0.79
'0:12.809',0.74
'0:12.813',0.08
'0:12.816',-0.85
'0:12.820',-1.67
'0:12.824',-2.19
'0:12.828',-2.68
'0:12.832',-2.84
'0:12.836',-2.91
'0:12.840',-2.83
'0:12.844',-2.84
'0:12.848',-2.92
'0:12.852',-2.96
'0:12.855',-3.05
'0:12.859',-3.05
'0:12.863',-2.86
'0:12.867',-2.45
'0:12.871',-1.82
'0:12.875',-0.81
'0:12.879',1.17
'0:12.883',3.97
'0:12.887',7.02
'0:12.891',9.53
'0:12.895',9.62
'0:12.898',6.99
'0:12.902',2.38
'0:12.906',-2.12
'0:12.910',-5.32
'0:12.914',-7.22
'0:12.918',-7.78
'0:12.922',-7.32
'0:12.926',-6.16
'0:12.930',-4.73
'0:12.934',-3.54
'0:12.938',-2.48
'0:12.941',-1.67
'0:12.945',-1.35
'0:12.949',-1.42
'0:12.953',-1.43
'0:12.957',-1.07
'0:12.961',-0.79
'0:12.965',-0.45
'0:12.969',-0.09
'0:12.973',0.21
'0:12.977',0.23
'0:12.980',0.37
'0:12.984',0.86
'0:12.988',1.73
'0:12.992',2.49
'0:12.996',2.8
'0:13.000',2.87
'0:13.004',2.72
'0:13.008',2.81
'0:13.012',3.08
'0:13.016',3.13
'0:13.020',3.04
'0:13.023',2.95
'0:13.027',2.68
'0:13.031',2.2
'0:13.035',1.53
'0:13.039',0.88
'0:13.043',0.53
'0:13.047',0.19
'0:13.051',-0.14
'0:13.055',-0.15
'0:13.059',0.04
'0:13.063',0.17
'0:13.066',0.09
'0:13.070',-0.06
'0:13.074',-0.13
'0:13.078',0.07
'0:13.082',0.4
'0:13.086',0.69
'0:13.090',0.84
'0:13.094',0.9
'0:13.098',1.1
'0:13.102',0.88
'0:13.105',0.43
'0:13.109',0.19
'0:13.113',-0.1
'0:13.117',-0.34
'0:13.121',-0.59
'0:13.125',-1.05
'0:13.129',-1.5
'0:13.133',-1.98
'0:13.137',-2.45
'0:13.141',-2.86
'0:13.145',-3.04
'0:13.148',-2.76
'0:13.152',-2.5
'0:13.156',-2.64
'0:13.160',-3.01
'0:13.164',-3.37
'0:13.168',-3.46
'0:13.172',-3.54
'0:13.176',-3.42
'0:13.180',-2.82
'0:13.184',-1.43
'0:13.188',0.93
'0:13.191',3.86
'0:13.195',7.29
'0:13.199',9.26
'0:13.203',7.73
'0:13.207',3.6
'0:13.211',-1.72
'0:13.215',-5.89
'0:13.219',-8.11
'0:13.223',-8.55
'0:13.227',-7.86
'0:13.230',-7.15
'0:13.234',-6.29
'0:13.238',-5.29
'0:13.242',-3.96
'0:13.246',-2.86
'0:13.250',-2.53
'0:13.254',-2.44
'0:13.258',-2.05
'0:13.262',-1.84
'0:13.266',-1.74
'0:13.270',-1.63
'0:13.273',-2.02
'0:13.277',-2.36
'0:13.281',-2.28
'0:13.285',-2.43
'0:13.289',-2.03
'0:13.293',-0.98
'0:13.297',0.05
'0:13.301',0.94
'0:13.305',1.6
'0:13.309',2.1
'0:13.313',2.47
'0:13.316',2.58
'0:13.320',2.92
'0:13.324',3.31
'0:13.328',3.44
'0:13.332',3.5
'0:13.336',3.01
'0:13.340',2.37
'0:13.344',1.87
'0:13.348',1.3
'0:13.352',0.51
'0:13.355',-0.13
'0:13.359',-0.18
'0:13.363',-0.04
'0:13.367',-0.02
'0:13.371',0.05
'0:13.375',0.1
'0:13.379',0.18
'0:13.383',0.42
'0:13.387',0.72
'0:13.391',1.07
'0:13.395',1.52
'0:13.398',2.13
'0:13.402',1.99
'0:13.406',1.58
'0:13.410',1.25
'0:13.414',0.87
'0:13.418',0.32
'0:13.422',-0.21
'0:13.426',-0.95
'0:13.430',-1.77
'0:13.434',-1.96
'0:13.438',-1.85
'0:13.441',-1.86
'0:13.445',-1.93
'0:13.449',-2.19
'0:13.453',-2.13
'0:13.457',-2.14
'0:13.461',-2.11
'0:13.465',-1.99
'0:13.469',-2.05
'0:13.473',-2.08
'0:13.477',-1.82
'0:13.480',-1.12
'0:13.484',0.66
'0:13.488',3.81
'0:13.492',7.63
'0:13.496',11.28
'0:13.500',12.81
'0:13.504',10.49
'0:13.508',5.31
'0:13.512',-0.98
'0:13.516',-5.73
'0:13.520',-8.17
'0:13.523',-8.94
'0:13.527',-8.48
'0:13.531',-7.1
'0:13.535',-5.53
'0:13.539',-3.87
'0:13.543',-2.64
'0:13.547',-1.87
'0:13.551',-1.39
'0:13.555',-1.08
'0:13.559',-0.71
'0:13.563',-0.32
'0:13.566',-0.17
'0:13.570',-0.08
'0:13.574',0.19
'0:13.578',0.64
'0:13.582',1.1
'0:13.586',1.83
'0:13.590',2.49
'0:13.594',3.04
'0:13.598',3.43
'0:13.602',3.86
'0:13.605',4.52
'0:13.609',5.17
'0:13.613',5.65
'0:13.617',6
'0:13.621',6.12
'0:13.625',5.97
'0:13.629',5.71
'0:13.633',5.07
'0:13.637',4.21
'0:13.641',3.5
'0:13.645',2.81
'0:13.648',2.19
'0:13.652',1.41
'0:13.656',0.97
'0:13.660',0.74
'0:13.664',0.38
'0:13.668',0
'0:13.672',-0.21
'0:13.676',-0.12
'0:13.680',-0.05
'0:13.684',-0.39
'0:13.688',-0.8
'0:13.691',-1.1
'0:13.695',-1.21
'0:13.699',-0.9
'0:13.703',-0.3
'0:13.707',-0.04
'0:13.711',0.25
'0:13.715',0.35
'0:13.719',0.22
'0:13.723',-0.18
'0:13.727',-0.69
'0:13.730',-1.31
'0:13.734',-1.68
'0:13.738',-2.06
'0:13.742',-2.38
'0:13.746',-2.46
'0:13.750',-2.79
'0:13.754',-3.15
'0:13.758',-3.53
'0:13.762',-3.77
'0:13.766',-3.45
'0:13.770',-3.37
'0:13.773',-3.64
'0:13.777',-3.97
'0:13.781',-3.87
'0:13.785',-3.7
'0:13.789',-3.18
'0:13.793',-1.93
'0:13.797',0.15
'0:13.801',2.8
'0:13.805',6.29
'0:13.809',9.74
'0:13.813',10.31
'0:13.816',7.76
'0:13.820',2.37
'0:13.824',-3.33
'0:13.828',-7.24
'0:13.832',-9.71
'0:13.836',-10.13
'0:13.840',-8.98
'0:13.844',-7.15
'0:13.848',-5.28
'0:13.852',-3.55
'0:13.855',-2.45
'0:13.859',-1.75
'0:13.863',-1.23
'0:13.867',-0.52
'0:13.871',-0.46
'0:13.875',-0.7
'0:13.879',-0.82
'0:13.883',-0.56
'0:13.887',0.06
'0:13.891',0.01
'0:13.895',0.25
'0:13.898',0.81
'0:13.902',1.64
'0:13.906',2.13
'0:13.910',2.23
'0:13.914',2.43
'0:13.918',3.36
'0:13.922',4.31
'0:13.926',4.61
'0:13.930',4.28
'0:13.934',3.74
'0:13.938',3.18
'0:13.941',3.11
'0:13.945',3.38
'0:13.949',3.12
'0:13.953',2.68
'0:13.957',2.53
'0:13.961',2.22
'0:13.965',1.66
'0:13.969',1.08
'0:13.973',0.6
'0:13.977',0.29
'0:13.980',0.02
'0:13.984',0.06
'0:13.988',0.29
'0:13.992',0.43
'0:13.996',0.47
'0:14.000',0.58
'0:14.004',0.61
'0:14.008',0.77
'0:14.012',1.04
'0:14.016',1.33
'0:14.020',1.46
'0:14.023',1.44
'0:14.027',1.34
'0:14.031',0.99
'0:14.035',0.44
'0:14.039',-0.16
'0:14.043',-0.83
'0:14.047',-1.48
'0:14.051',-2
'0:14.055',-2.49
'0:14.059',-2.78
'0:14.063',-2.89
'0:14.066',-2.65
'0:14.070',-2.11
'0:14.074',-1.95
'0:14.078',-1.81
'0:14.082',-1.5
'0:14.086',-1.4
'0:14.090',-1.36
'0:14.094',-1.49
'0:14.098',-1.47
'0:14.102',-0.72
'0:14.105',1.09
'0:14.109',3.9
'0:14.113',7.11
'0:14.117',9.36
'0:14.121',8.77
'0:14.125',5.28
'0:14.129',0.07
'0:14.133',-4.37
'0:14.137',-7.39
'0:14.141',-8.32
'0:14.145',-7.65
'0:14.148',-6.83
'0:14.152',-5.84
'0:14.156',-4.75
'0:14.160',-3.56
'0:14.164',-2.54
'0:14.168',-1.62
'0:14.172',-0.96
'0:14.176',-0.59
'0:14.180',-0.73
'0:14.184',-0.83
'0:14.188',-0.61
'0:14.191',-0.15
'0:14.195',0.51
'0:14.199',0.85
'0:14.203',0.92
'0:14.207',1
'0:14.211',0.73
'0:14.215',0.36
'0:14.219',0.14
'0:14.223',0.72
'0:14.227',2.09
'0:14.230',3.72
'0:14.234',5.01
'0:14.238',5.22
'0:14.242',4.26
'0:14.246',3.06
'0:14.250',2.28
'0:14.254',2.41
'0:14.258',2.35
'0:14.262',1.81
'0:14.266',1.25
'0:14.270',0.69
'0:14.273',-0.02
'0:14.277',-0.33
'0:14.281',-0.03
'0:14.285',0.48
'0:14.289',0.54
'0:14.293',0.56
'0:14.297',0.6
'0:14.301',0.69
'0:14.305',0.51
'0:14.309',0.2
'0:14.313',-0.11
'0:14.316',-0.54
'0:14.320',-0.44
'0:14.324',-0.09
'0:14.328',-0.33
'0:14.332',-1.1
'0:14.336',-1.54
'0:14.340',-1.4
'0:14.344',-1.65
'0:14.348',-2.09
'0:14.352',-2.81
'0:14.355',-3.58
'0:14.359',-4.18
'0:14.363',-4.51
'0:14.367',-4.64
'0:14.371',-4.49
'0:14.375',-4.16
'0:14.379',-4.04
'0:14.383',-4.09
'0:14.387',-3.78
'0:14.391',-3.34
'0:14.395',-2.99
'0:14.398',-2.58
'0:14.402',-1.54
'0:14.406',0.84
'0:14.410',4.24
'0:14.414',8
'0:14.418',9.81
'0:14.422',7.78
'0:14.426',3.04
'0:14.430',-2.67
'0:14.434',-6.94
'0:14.438',-9.08
'0:14.441',-9.56
'0:14.445',-8.82
'0:14.449',-7.39
'0:14.453',-5.76
'0:14.457',-4.41
'0:14.461',-3.35
'0:14.465',-2.5
'0:14.469',-1.79
'0:14.473',-1.17
'0:14.477',-0.63
'0:14.480',0.08
'0:14.484',0.8
'0:14.488',1.15
'0:14.492',1.21
'0:14.496',1.21
'0:14.500',0.98
'0:14.504',1.29
'0:14.508',1.92
'0:14.512',2.46
'0:14.516',2.95
'0:14.520',3.54
'0:14.523',4.32
'0:14.527',5.06
'0:14.531',5.74
'0:14.535',6.18
'0:14.539',6.31
'0:14.543',6.38
'0:14.547',6.35
'0:14.551',6.1
'0:14.555',5.55
'0:14.559',4.75
'0:14.563',4.14
'0:14.566',3.44
'0:14.570',2.03
'0:14.574',0.77
'0:14.578',0.28
'0:14.582',-0.21
'0:14.586',-0.45
'0:14.590',-0.42
'0:14.594',-0.26
'0:14.598',-0.01
'0:14.602',0.04
'0:14.605',0.13
'0:14.609',0.33
'0:14.613',0.56
'0:14.617',0.63
'0:14.621',0.21
'0:14.625',0.21
'0:14.629',0.4
'0:14.633',0.65
'0:14.637',0.65
'0:14.641',0.39
'0:14.645',-0.03
'0:14.648',-0.6
'0:14.652',-1
'0:14.656',-2.11
'0:14.660',-3.3
'0:14.664',-3.96
'0:14.668',-4.14
'0:14.672',-3.94
'0:14.676',-3.36
'0:14.680',-3.08
'0:14.684',-3.46
'0:14.688',-3.76
'0:14.691',-3.73
'0:14.695',-3.42
'0:14.699',-3.68
'0:14.703',-3.73
'0:14.707',-3.28
'0:14.711',-2.3
'0:14.715',0.05
'0:14.719',2.96
'0:14.723',6
'0:14.727',8.72
'0:14.730',8.61
'0:14.734',5.38
'0:14.738',0.27
'0:14.742',-4.81
'0:14.746',-8
'0:14.750',-8.88
'0:14.754',-8.76
'0:14.758',-7.24
'0:14.762',-5.19
'0:14.766',-3.69
'0:14.770',-2.63
'0:14.773',-1.85
'0:14.777',-1.57
'0:14.781',-1.27
'0:14.785',-0.86
'0:14.789',-0.54
'0:14.793',-0.75
'0:14.797',-0.35
'0:14.801',0.65
'0:14.805',1.29
'0:14.809',1.1
'0:14.813',1.22
'0:14.816',1.13
'0:14.820',1.35
'0:14.824',2.23
'0:14.828',2.89
'0:14.832',3.35
'0:14.836',3.49
'0:14.840',3.63
'0:14.844',4.17
'0:14.848',4.88
'0:14.852',4.94
'0:14.855',4.03
'0:14.859',3.26
'0:14.863',3.05
'0:14.867',3.05
'0:14.871',2.89
'0:14.875',2.24
'0:14.879',1.55
'0:14.883',1.37
'0:14.887',1.04
'0:14.891',0.1
'0:14.895',-0.44
'0:14.898',-0.64
'0:14.902',-0.6
'0:14.906',-0.29
'0:14.910',-0.08
'0:14.914',0.18
'0:14.918',0.47
'0:14.922',0.72
'0:14.926',0.84
'0:14.930',0.99
'0:14.934',1.03
'0:14.938',1.34
'0:14.941',1.94
'0:14.945',1.55
'0:14.949',0.3
'0:14.953',-0.77
'0:14.957',-1.52
'0:14.961',-2.35
'0:14.965',-3.15
'0:14.969',-3.2
'0:14.973',-3.29
'0:14.977',-3.67
'0:14.980',-3.59
'0:14.984',-2.99
'0:14.988',-2.47
'0:14.992',-2.4
'0:14.996',-2.48
'0:15.000',-2.18
'0:15.004',-1.66
'0:15.008',-2.75
'0:15.012',-3.94
'0:15.016',-4.7
'0:15.020',-4.2
'0:15.023',-1.9
'0:15.027',1.67
'0:15.031',4.83
'0:15.035',7.04
'0:15.039',7.78
'0:15.043',5.81
'0:15.047',1.83
'0:15.051',-2.76
'0:15.055',-6.05
'0:15.059',-7.68
'0:15.063',-8.05
'0:15.066',-7.27
'0:15.070',-5.69
'0:15.074',-4.08
'0:15.078',-2.74
'0:15.082',-1.73
'0:15.086',-1.46
'0:15.090',-1.06
'0:15.094',-0.4
'0:15.098',0.16
'0:15.102',0.44
'0:15.105',0.58
'0:15.109',0.67
'0:15.113',0.94
'0:15.117',1.05
'0:15.121',1.51
'0:15.125',2.2
'0:15.129',2.34
'0:15.133',2.37
'0:15.137',2.67
'0:15.141',3.64
'0:15.145',4.19
'0:15.148',4.83
'0:15.152',5.64
'0:15.156',6.2
'0:15.160',6.61
'0:15.164',6.32
'0:15.168',5.06
'0:15.172',3.78
'0:15.176',2.88
'0:15.180',2.64
'0:15.184',2.47
'0:15.188',1.85
'0:15.191',1.15
'0:15.195',0.44
'0:15.199',0.7
'0:15.203',1.83
'0:15.207',2.16
'0:15.211',1.91
'0:15.215',1
'0:15.219',0.43
'0:15.223',0.42
'0:15.227',0.55
'0:15.230',0.65
'0:15.234',0.82
'0:15.238',1.06
'0:15.242',1.16
'0:15.246',1.51
'0:15.250',1.31
'0:15.254',0.34
'0:15.258',-0.53
'0:15.262',-1.38
'0:15.266',-2.45
'0:15.270',-3.02
'0:15.273',-3.31
'0:15.277',-3.54
'0:15.281',-3.7
'0:15.285',-3.81
'0:15.289',-3.21
'0:15.293',-1.97
'0:15.297',-1.82
'0:15.301',-2.48
'0:15.305',-3.39
'0:15.309',-3.85
'0:15.313',-3.67
'0:15.316',-3.3
'0:15.320',-2.47
'0:15.324',-0.65
'0:15.328',2.29
'0:15.332',5.68
'0:15.336',9.16
'0:15.340',10.27
'0:15.344',7.59
'0:15.348',2.77
'0:15.352',-2.62
'0:15.355',-7.1
'0:15.359',-9.33
'0:15.363',-9.51
'0:15.367',-8.57
'0:15.371',-7.15
'0:15.375',-5.66
'0:15.379',-4.25
'0:15.383',-3.2
'0:15.387',-2.48
'0:15.391',-2.05
'0:15.395',-1.53
'0:15.398',-0.93
'0:15.402',-0.6
'0:15.406',-0.27
'0:15.410',0.11
'0:15.414',0.35
'0:15.418',0.68
'0:15.422',1.12
'0:15.426',1.65
'0:15.430',2.15
'0:15.434',2.6
'0:15.438',2.99
'0:15.441',3.34
'0:15.445',3.92
'0:15.449',4.64
'0:15.453',5.18
'0:15.457',5.56
'0:15.461',5.7
'0:15.465',5.57
'0:15.469',5.3
'0:15.473',4.86
'0:15.477',4.35
'0:15.480',3.84
'0:15.484',3.27
'0:15.488',2.54
'0:15.492',1.7
'0:15.496',0.98
'0:15.500',0.34
'0:15.504',-0.12
'0:15.508',-0.23
'0:15.512',-0.23
'0:15.516',-0.37
'0:15.520',-0.54
'0:15.523',-0.72
'0:15.527',-0.93
'0:15.531',-1.03
'0:15.535',-1.01
'0:15.539',-0.71
'0:15.543',-0.36
'0:15.547',-0.27
'0:15.551',-0.28
'0:15.555',-0.14
'0:15.559',0.08
'0:15.563',-0.22
'0:15.566',-0.96
'0:15.570',-1.81
'0:15.574',-2.26
'0:15.578',-2.51
'0:15.582',-2.73
'0:15.586',-2.95
'0:15.590',-3.24
'0:15.594',-3.49
'0:15.598',-3.53
'0:15.602',-3.76
'0:15.605',-3.91
'0:15.609',-4.04
'0:15.613',-4.14
'0:15.617',-3.98
'0:15.621',-3.81
'0:15.625',-3.53
'0:15.629',-3.05
'0:15.633',-1.99
'0:15.637',0.05
'0:15.641',2.99
'0:15.645',6.3
'0:15.648',9.29
'0:15.652',9.8
'0:15.656',6.92
'0:15.660',1.95
'0:15.664',-2.88
'0:15.668',-6.47
'0:15.672',-8.6
'0:15.676',-9.45
'0:15.680',-9.1
'0:15.684',-7.54
'0:15.688',-5.08
'0:15.691',-2.8
'0:15.695',-1.64
'0:15.699',-1.44
'0:15.703',-1.38
'0:15.707',-0.87
'0:15.711',-0.2
'0:15.715',0.37
'0:15.719',0.53
'0:15.723',0.42
'0:15.727',0.57
'0:15.730',0.83
'0:15.734',0.84
'0:15.738',0.69
'0:15.742',1.17
'0:15.746',1.79
'0:15.750',2.43
'0:15.754',3.28
'0:15.758',3.68
'0:15.762',3.48
'0:15.766',3.51
'0:15.770',3.98
'0:15.773',4.17
'0:15.777',3.69
'0:15.781',3.59
'0:15.785',3.44
'0:15.789',3.06
'0:15.793',2.64
'0:15.797',2.28
'0:15.801',1.64
'0:15.805',1.07
'0:15.809',0.86
'0:15.813',0.9
'0:15.816',0.82
'0:15.820',0.73
'0:15.824',0.8
'0:15.828',0.85
'0:15.832',0.75
'0:15.836',0.62
'0:15.840',0.64
'0:15.844',0.71
'0:15.848',0.84
'0:15.852',0.97
'0:15.855',1.28
'0:15.859',1.37
'0:15.863',1.26
'0:15.867',1.08
'0:15.871',1.04
'0:15.875',0.68
'0:15.879',-0.19
'0:15.883',-0.96
'0:15.887',-1.44
'0:15.891',-1.77
'0:15.895',-2.31
'0:15.898',-2.81
'0:15.902',-2.73
'0:15.906',-2.58
'0:15.910',-2.83
'0:15.914',-2.89
'0:15.918',-2.56
'0:15.922',-2.39
'0:15.926',-2.58
'0:15.930',-2.96
'0:15.934',-3.23
'0:15.938',-3.18
'0:15.941',-2.61
'0:15.945',-0.63
'0:15.949',2.67
'0:15.953',6.37
'0:15.957',9.28
'0:15.961',10
'0:15.965',7.59
'0:15.969',2.85
'0:15.973',-2.15
'0:15.977',-5.84
'0:15.980',-7.89
'0:15.984',-9.01
'0:15.988',-8.77
'0:15.992',-7.16
'0:15.996',-4.98
'0:16.000',-3.25
'0:16.004',-1.85
'0:16.008',-0.72
'0:16.012',-0.06
'0:16.016',0.42
'0:16.020',0.65
'0:16.023',0.73
'0:16.027',0.78
'0:16.031',0.76
'0:16.035',0.78
'0:16.039',1.01
'0:16.043',1.34
'0:16.047',1.86
'0:16.051',2.34
'0:16.055',2.84
'0:16.059',3.29
'0:16.063',3.57
'0:16.066',3.87
'0:16.070',3.88
'0:16.074',3.99
'0:16.078',4.3
'0:16.082',4.57
'0:16.086',4.63
'0:16.090',4.45
'0:16.094',4.02
'0:16.098',3.58
'0:16.102',3.59
'0:16.105',2.96
'0:16.109',1.54
'0:16.113',0.57
'0:16.117',0.18
'0:16.121',-0.13
'0:16.125',-0.28
'0:16.129',-0.29
'0:16.133',0.14
'0:16.137',0
'0:16.141',0.21
'0:16.145',0.44
'0:16.148',0.34
'0:16.152',-0.19
'0:16.156',-0.76
'0:16.160',-0.66
'0:16.164',-0.08
'0:16.168',0.37
'0:16.172',0.41
'0:16.176',-0.22
'0:16.180',-1.29
'0:16.184',-2.06
'0:16.188',-2.8
'0:16.191',-3.02
'0:16.195',-3.09
'0:16.199',-3.14
'0:16.203',-3.2
'0:16.207',-3.53
'0:16.211',-3.86
'0:16.215',-3.83
'0:16.219',-3.7
'0:16.223',-3.72
'0:16.227',-3.78
'0:16.230',-3.62
'0:16.234',-3.34
'0:16.238',-2.93
'0:16.242',-1.8
'0:16.246',0.76
'0:16.250',4.2
'0:16.254',8
'0:16.258',10.66
'0:16.262',9.95
'0:16.266',6.22
'0:16.270',0.63
'0:16.273',-4.56
'0:16.277',-7.92
'0:16.281',-9.33
'0:16.285',-9.28
'0:16.289',-8.21
'0:16.293',-6.65
'0:16.297',-4.99
'0:16.301',-3.74
'0:16.305',-2.95
'0:16.309',-2.35
'0:16.313',-1.84
'0:16.316',-1.19
'0:16.320',-0.74
'0:16.324',-0.59
'0:16.328',-0.13
'0:16.332',0.52
'0:16.336',1.16
'0:16.340',1.81
'0:16.344',2.29
'0:16.348',2.71
'0:16.352',3.06
'0:16.355',3.51
'0:16.359',4.14
'0:16.363',5
'0:16.367',5.89
'0:16.371',6.5
'0:16.375',6.79
'0:16.379',6.83
'0:16.383',6.71
'0:16.387',6.49
'0:16.391',6.14
'0:16.395',5.65
'0:16.398',4.93
'0:16.402',4.04
'0:16.406',2.93
'0:16.410',1.92
'0:16.414',1.22
'0:16.418',0.67
'0:16.422',0.21
'0:16.426',-0.08
'0:16.430',-0.12
'0:16.434',-0.34
'0:16.438',-0.56
'0:16.441',-0.88
'0:16.445',-1.16
'0:16.449',-1.15
'0:16.453',-0.9
'0:16.457',-0.42
'0:16.461',-0.02
'0:16.465',0.18
'0:16.469',-0.04
'0:16.473',-0.42
'0:16.477',-0.51
'0:16.480',-0.51
'0:16.484',-0.84
'0:16.488',-1.67
'0:16.492',-2.26
'0:16.496',-2.6
'0:16.500',-3.12
'0:16.504',-3.59
'0:16.508',-4.06
'0:16.512',-4.44
'0:16.516',-4.43
'0:16.520',-4.46
'0:16.523',-4.26
'0:16.527',-4.03
'0:16.531',-3.85
'0:16.535',-3.92
'0:16.539',-4.18
'0:16.543',-4.44
'0:16.547',-4.49
'0:16.551',-4.06
'0:16.555',-2.31
'0:16.559',0.27
'0:16.563',3.51
'0:16.566',6.93
'0:16.570',8.77
'0:16.574',8.03
'0:16.578',4.71
'0:16.582',-1.07
'0:16.586',-6.04
'0:16.590',-8.7
'0:16.594',-9.48
'0:16.598',-9.35
'0:16.602',-8.6
'0:16.605',-7.15
'0:16.609',-5.43
'0:16.613',-4.04
'0:16.617',-3.16
'0:16.621',-2.66
'0:16.625',-2.35
'0:16.629',-1.93
'0:16.633',-1.34
'0:16.637',-1.03
'0:16.641',-0.97
'0:16.645',-0.81
'0:16.648',-0.09
'0:16.652',0.34
'0:16.656',0.18
'0:16.660',0.27
'0:16.664',0.73
'0:16.668',1.11
'0:16.672',1.96
'0:16.676',2.63
'0:16.680',2.95
'0:16.684',3.15
'0:16.688',3.18
'0:16.691',3.31
'0:16.695',3.43
'0:16.699',3.39
'0:16.703',2.9
'0:16.707',2.4
'0:16.711',2.08
'0:16.715',1.79
'0:16.719',1.73
'0:16.723',1.29
'0:16.727',0.83
'0:16.730',0.53
'0:16.734',0.12
'0:16.738',-0.38
'0:16.742',-0.71
'0:16.746',-1.04
'0:16.750',-1.26
'0:16.754',-1.07
'0:16.758',-0.59
'0:16.762',0.04
'0:16.766',0.68
'0:16.770',1.03
'0:16.773',1.4
'0:16.777',1.34
'0:16.781',1.23
'0:16.785',1.41
'0:16.789',1.32
'0:16.793',0.6
'0:16.797',-0.73
'0:16.801',-1.78
'0:16.805',-2.24
'0:16.809',-2.59
'0:16.813',-3.02
'0:16.816',-3.31
'0:16.820',-3.53
'0:16.824',-3.35
'0:16.828',-3.38
'0:16.832',-3.41
'0:16.836',-3.56
'0:16.840',-3.58
'0:16.844',-3.3
'0:16.848',-3.37
'0:16.852',-3.61
'0:16.855',-3.27
'0:16.859',-3.12
'0:16.863',-2.71
'0:16.867',-1.07
'0:16.871',2.43
'0:16.875',5.91
'0:16.879',8.46
'0:16.883',8.3
'0:16.887',5.1
'0:16.891',-0.16
'0:16.895',-5.21
'0:16.898',-8.4
'0:16.902',-9.45
'0:16.906',-9.24
'0:16.910',-8.01
'0:16.914',-5.97
'0:16.918',-4.38
'0:16.922',-3.52
'0:16.926',-2.5
'0:16.930',-2.31
'0:16.934',-2.15
'0:16.938',-1.52
'0:16.941',-1.15
'0:16.945',-1.12
'0:16.949',-1.08
'0:16.953',-0.81
'0:16.957',-0.34
'0:16.961',0.13
'0:16.965',0.31
'0:16.969',0.51
'0:16.973',1.19
'0:16.977',1.74
'0:16.980',1.9
'0:16.984',2.74
'0:16.988',3.77
'0:16.992',4.95
'0:16.996',5.15
'0:17.000',4.52
'0:17.004',3.88
'0:17.008',3.9
'0:17.012',4.17
'0:17.016',3.98
'0:17.020',3.97
'0:17.023',3.6
'0:17.027',2.85
'0:17.031',1.93
'0:17.035',1.19
'0:17.039',0.98
'0:17.043',1.61
'0:17.047',1.63
'0:17.051',1.14
'0:17.055',0.93
'0:17.059',0.87
'0:17.063',0.9
'0:17.066',1.26
'0:17.070',1.59
'0:17.074',1.68
'0:17.078',1.55
'0:17.082',1.72
'0:17.086',2.01
'0:17.090',1.72
'0:17.094',1.1
'0:17.098',0.48
'0:17.102',-0.07
'0:17.105',-0.77
'0:17.109',-1.35
'0:17.113',-1.57
'0:17.117',-1.83
'0:17.121',-2.05
'0:17.125',-2.27
'0:17.129',-2.4
'0:17.133',-2.54
'0:17.137',-2.56
'0:17.141',-2.56
'0:17.145',-2.52
'0:17.148',-2.38
'0:17.152',-2.14
'0:17.156',-1.91
'0:17.160',-1.54
'0:17.164',-0.61
'0:17.168',1.62
'0:17.172',5.08
'0:17.176',8.86
'0:17.180',11.87
'0:17.184',11.8
'0:17.188',7.82
'0:17.191',2.01
'0:17.195',-3.58
'0:17.199',-7.34
'0:17.203',-9.05
'0:17.207',-9.36
'0:17.211',-8.55
'0:17.215',-6.88
'0:17.219',-5.29
'0:17.223',-3.65
'0:17.227',-2.35
'0:17.230',-1.66
'0:17.234',-1.12
'0:17.238',-0.63
'0:17.242',-0.19
'0:17.246',0.28
'0:17.250',0.69
'0:17.254',0.92
'0:17.258',1.16
'0:17.262',1.4
'0:17.266',1.74
'0:17.270',2.22
'0:17.273',2.73
'0:17.277',3.45
'0:17.281',4.08
'0:17.285',4.7
'0:17.289',5.26
'0:17.293',5.57
'0:17.297',5.83
'0:17.301',5.84
'0:17.305',5.67
'0:17.309',5.43
'0:17.313',5.26
'0:17.316',4.98
'0:17.320',4.32
'0:17.324',3.35
'0:17.328',2.59
'0:17.332',2.09
'0:17.336',1.5
'0:17.340',0.96
'0:17.344',0.63
'0:17.348',0.27
'0:17.352',-0.08
'0:17.355',-0.2
'0:17.359',-0.53
'0:17.363',-0.68
'0:17.367',-0.67
'0:17.371',-0.39
'0:17.375',-0.1
'0:17.379',0.37
'0:17.383',0.67
'0:17.387',0.84
'0:17.391',1.05
'0:17.395',0.8
'0:17.398',0.55
'0:17.402',0.33
'0:17.406',0.27
'0:17.410',0.27
'0:17.414',0.27
'0:17.418',0.27
'0:17.422',0.27
'0:17.426',0.27
'0:17.430',-3.69
'0:17.434',-3.36
'0:17.438',-3.16
'0:17.441',-3.41
'0:17.445',-3.59
'0:17.449',-3.21
'0:17.453',-2.53
'0:17.457',-2.42
'0:17.461',-2.58
'0:17.465',-2.91
'0:17.469',-3.31
'0:17.473',-3.34
'0:17.477',-2.33
'0:17.480',0.02
'0:17.484',2.62
'0:17.488',5.55
'0:17.492',7.86
'0:17.496',8.29
'0:17.500',5.71
'0:17.504',0.57
'0:17.508',-4.6
'0:17.512',-7.67
'0:17.516',-8.74
'0:17.520',-8.67
'0:17.523',-7.91
'0:17.527',-6.8
'0:17.531',-5.56
'0:17.535',-4.57
'0:17.539',-3.68
'0:17.543',-2.91
'0:17.547',-2.35
'0:17.551',-1.67
'0:17.555',-1.27
'0:17.559',-0.94
'0:17.563',-0.6
'0:17.566',-0.14
'0:17.570',0.23
'0:17.574',0.66
'0:17.578',0.84
'0:17.582',1.29
'0:17.586',1.95
'0:17.590',2.71
'0:17.594',3.13
'0:17.598',3.07
'0:17.602',3.47
'0:17.605',4.04
'0:17.609',4.38
'0:17.613',4.4
'0:17.617',4.12
'0:17.621',3.77
'0:17.625',3.71
'0:17.629',3.67
'0:17.633',3.19
'0:17.637',2.48
'0:17.641',1.85
'0:17.645',1.19
'0:17.648',0.64
'0:17.652',0.6
'0:17.656',0.77
'0:17.660',0.81
'0:17.664',0.74
'0:17.668',0.75
'0:17.672',0.83
'0:17.676',0.68
'0:17.680',0.54
'0:17.684',0.42
'0:17.688',0.61
'0:17.691',1.16
'0:17.695',1.55
'0:17.699',1.84
'0:17.703',1.8
'0:17.707',1.52
'0:17.711',1.17
'0:17.715',0.48
'0:17.719',-0.12
'0:17.723',-0.74
'0:17.727',-1.34
'0:17.730',-2
'0:17.734',-2.46
'0:17.738',-2.79
'0:17.742',-3.13
'0:17.746',-3.19
'0:17.750',-3.27
'0:17.754',-3.34
'0:17.758',-3.22
'0:17.762',-3.09
'0:17.766',-3.04
'0:17.770',-2.91
'0:17.773',-2.66
'0:17.777',-2.49
'0:17.781',-2.24
'0:17.785',-1.26
'0:17.789',1.14
'0:17.793',4.22
'0:17.797',7.23
'0:17.801',9
'0:17.805',8.23
'0:17.809',5.12
'0:17.813',0.31
'0:17.816',-3.86
'0:17.820',-6.56
'0:17.824',-7.74
'0:17.828',-7.65
'0:17.832',-6.59
'0:17.836',-5.05
'0:17.840',-3.61
'0:17.844',-2.83
'0:17.848',-2.22
'0:17.852',-2.22
'0:17.855',-0.8
'0:17.859',0
'0:17.863',0.5
'0:17.867',0.68
'0:17.871',0.82
'0:17.875',0.89
'0:17.879',1.06
'0:17.883',1.28
'0:17.887',1.54
'0:17.891',1.91
'0:17.895',2.59
'0:17.898',3.23
'0:17.902',3.7
'0:17.906',4.09
'0:17.910',4.36
'0:17.914',4.69
'0:17.918',5.21
'0:17.922',5.5
'0:17.926',5.6
'0:17.930',5.54
'0:17.934',5.35
'0:17.938',5.11
'0:17.941',4.6
'0:17.945',3.9
'0:17.949',3.28
'0:17.953',2.69
'0:17.957',1.98
'0:17.961',1.32
'0:17.965',0.99
'0:17.969',0.8
'0:17.973',0.66
'0:17.977',0.66
'0:17.980',0.65
'0:17.984',0.61
'0:17.988',0.59
'0:17.992',0.52
'0:17.996',0.44
'0:18.000',0.55
'0:18.004',0.84
'0:18.008',1.13
'0:18.012',1.25
'0:18.016',1.13
'0:18.020',0.58
'0:18.023',-0.21
'0:18.027',-0.97
'0:18.031',-1.61
'0:18.035',-2.22
'0:18.039',-2.56
'0:18.043',-2.82
'0:18.047',-3.06
'0:18.051',-3.27
'0:18.055',-3.53
'0:18.059',-3.78
'0:18.063',-3.8
'0:18.066',-3.69
'0:18.070',-3.65
'0:18.074',-3.6
'0:18.078',-3.46
'0:18.082',-3.29
'0:18.086',-2.64
'0:18.090',-0.86
'0:18.094',2.21
'0:18.098',5.76
'0:18.102',9.47
'0:18.105',11
'0:18.109',8.39
'0:18.113',3.21
'0:18.117',-2.91
'0:18.121',-7.41
'0:18.125',-10.06
'0:18.129',-11.08
'0:18.133',-10.6
'0:18.137',-8.94
'0:18.141',-6.97
'0:18.145',-5.24
'0:18.148',-3.99
'0:18.152',-2.93
'0:18.156',-2.15
'0:18.160',-1.74
'0:18.164',-1.62
'0:18.168',-1.36
'0:18.172',-1.17
'0:18.176',-0.83
'0:18.180',-0.46
'0:18.184',-0.07
'0:18.188',0.32
'0:18.191',0.71
'0:18.195',1.11
'0:18.199',1.4
'0:18.203',1.9
'0:18.207',2.77
'0:18.211',3.26
'0:18.215',3.61
'0:18.219',3.97
'0:18.223',4.25
'0:18.227',4.25
'0:18.230',4.11
'0:18.234',4.04
'0:18.238',3.51
'0:18.242',2.71
'0:18.246',2.06
'0:18.250',1.67
'0:18.254',1.26
'0:18.258',0.59
'0:18.262',0.18
'0:18.266',-0.14
'0:18.270',-0.29
'0:18.273',-0.02
'0:18.277',0.13
'0:18.281',0.02
'0:18.285',-0.07
'0:18.289',-0.06
'0:18.293',-0.38
'0:18.297',-0.29
'0:18.301',0.07
'0:18.305',0.1
'0:18.309',0.14
'0:18.313',0.15
'0:18.316',0.29
'0:18.320',0.66
'0:18.324',0.8
'0:18.328',0.51
'0:18.332',0.52
'0:18.336',-0.95
'0:18.340',-1.57
'0:18.344',-2.23
'0:18.348',-2.27
'0:18.352',-2.26
'0:18.355',-2.87
'0:18.359',-3.37
'0:18.363',-3.29
'0:18.367',-3
'0:18.371',-2.9
'0:18.375',-3.65
'0:18.379',-3.98
'0:18.383',-3.71
'0:18.387',-3.47
'0:18.391',-3.43
'0:18.395',-3.37
'0:18.398',-2.36
'0:18.402',-1.09
'0:18.406',1.1
'0:18.410',4.44
'0:18.414',7.68
'0:18.418',9.56
'0:18.422',8.26
'0:18.426',4.28
'0:18.430',-0.94
'0:18.434',-5.02
'0:18.438',-7.54
'0:18.441',-8.35
'0:18.445',-7.91
'0:18.449',-6.54
'0:18.453',-4.8
'0:18.457',-3.53
'0:18.461',-2.92
'0:18.465',-2.6
'0:18.469',-2.15
'0:18.473',-1.5
'0:18.477',-0.93
'0:18.480',-0.49
'0:18.484',-0.11
'0:18.488',0.35
'0:18.492',0.7
'0:18.496',0.94
'0:18.500',1.26
'0:18.504',1.55
'0:18.508',1.66
'0:18.512',1.89
'0:18.516',2.17
'0:18.520',2.55
'0:18.523',3.14
'0:18.527',3.68
'0:18.531',4.07
'0:18.535',4.42
'0:18.539',4.69
'0:18.543',4.63
'0:18.547',4.33
'0:18.551',4.07
'0:18.555',3.6
'0:18.559',2.9
'0:18.563',1.97
'0:18.566',1.09
'0:18.570',0.65
'0:18.574',0.58
'0:18.578',0.82
'0:18.582',1.1
'0:18.586',1.42
'0:18.590',1.72
'0:18.594',1.77
'0:18.598',1.56
'0:18.602',1.58
'0:18.605',1.48
'0:18.609',1.21
'0:18.613',1.11
'0:18.617',1.01
'0:18.621',0.95
'0:18.625',1.02
'0:18.629',1.05
'0:18.633',1.37
'0:18.637',1.63
'0:18.641',1.28
'0:18.645',0.49
'0:18.648',-0.3
'0:18.652',-0.92
'0:18.656',-1.55
'0:18.660',-2.1
'0:18.664',-2.56
'0:18.668',-2.77
'0:18.672',-2.75
'0:18.676',-2.81
'0:18.680',-2.87
'0:18.684',-2.83
'0:18.688',-2.77
'0:18.691',-2.89
'0:18.695',-2.97
'0:18.699',-3
'0:18.703',-2.93
'0:18.707',-2.56
'0:18.711',-1.23
'0:18.715',1.05
'0:18.719',4.14
'0:18.723',7.28
'0:18.727',8.7
'0:18.730',7.27
'0:18.734',3.49
'0:18.738',-1.33
'0:18.742',-5.19
'0:18.746',-7.41
'0:18.750',-8.19
'0:18.754',-7.73
'0:18.758',-6.44
'0:18.762',-4.95
'0:18.766',-3.61
'0:18.770',-2.65
'0:18.773',-2.29
'0:18.777',-2.18
'0:18.781',-1.85
'0:18.785',-1.63
'0:18.789',-1.58
'0:18.793',-1.4
'0:18.797',-0.98
'0:18.801',-0.35
'0:18.805',-0.04
'0:18.809',0.14
'0:18.813',0.4
'0:18.816',0.92
'0:18.820',1.39
'0:18.824',1.85
'0:18.828',2.11
'0:18.832',2.17
'0:18.836',2.39
'0:18.840',2.84
'0:18.844',3.34
'0:18.848',3.43
'0:18.852',3.05
'0:18.855',2.71
'0:18.859',2.6
'0:18.863',2.51
'0:18.867',2.27
'0:18.871',1.73
'0:18.875',1
'0:18.879',0.35
'0:18.883',-0.12
'0:18.887',-0.37
'0:18.891',-0.31
'0:18.895',0.13
'0:18.898',0.4
'0:18.902',0.51
'0:18.906',0.45
'0:18.910',0.1
'0:18.914',-0.16
'0:18.918',-0.35
'0:18.922',-0.48
'0:18.926',-0.33
'0:18.930',0.1
'0:18.934',0.33
'0:18.938',0.19
'0:18.941',-0.29
'0:18.945',-0.9
'0:18.949',-0.76
'0:18.953',-1.36
'0:18.957',-2.34
'0:18.961',-2.89
'0:18.965',-3.23
'0:18.969',-3.37
'0:18.973',-3.58
'0:18.977',-4
'0:18.980',-4.15
'0:18.984',-3.89
'0:18.988',-3.44
'0:18.992',-3.03
'0:18.996',-2.9
'0:19.000',-2.92
'0:19.004',-2.95
'0:19.008',-2.55
'0:19.012',-1.16
'0:19.016',1.47
'0:19.020',4.75
'0:19.023',7.92
'0:19.027',9.56
'0:19.031',8.19
'0:19.035',4.41
'0:19.039',-0.92
'0:19.043',-5.38
'0:19.047',-8.27
'0:19.051',-9.64
'0:19.055',-9.09
'0:19.059',-7.32
'0:19.063',-5.28
'0:19.066',-3.67
'0:19.070',-2.7
'0:19.074',-2.02
'0:19.078',-1.4
'0:19.082',-0.86
'0:19.086',-0.26
'0:19.090',0.05
'0:19.094',0.24
'0:19.098',0.36
'0:19.102',0.62
'0:19.105',1.03
'0:19.109',1.53
'0:19.113',2.06
'0:19.117',2.59
'0:19.121',2.98
'0:19.125',3.15
'0:19.129',3.6
'0:19.133',4.26
'0:19.137',4.77
'0:19.141',5.18
'0:19.145',5.45
'0:19.148',5.63
'0:19.152',5.56
'0:19.156',5.06
'0:19.160',4.45
'0:19.164',3.83
'0:19.168',3.61
'0:19.172',3.45
'0:19.176',2.95
'0:19.180',2.11
'0:19.184',1.67
'0:19.188',1.5
'0:19.191',1.11
'0:19.195',0.48
'0:19.199',-0.07
'0:19.203',-0.36
'0:19.207',-0.48
'0:19.211',-0.34
'0:19.215',-0.51
'0:19.219',-0.88
'0:19.223',-0.89
'0:19.227',-0.69
'0:19.230',-0.46
'0:19.234',-0.2
'0:19.238',-0.28
'0:19.242',-0.22
'0:19.246',-0.27
'0:19.250',-0.29
'0:19.254',-0.15
'0:19.258',-0.36
'0:19.262',-1.09
'0:19.266',-1.64
'0:19.270',-2.33
'0:19.273',-2.64
'0:19.277',-3.22
'0:19.281',-3.91
'0:19.285',-3.94
'0:19.289',-3.54
'0:19.293',-3.47
'0:19.297',-3.87
'0:19.301',-4
'0:19.305',-3.86
'0:19.309',-3.73
'0:19.313',-3.91
'0:19.316',-3.87
'0:19.320',-3.73
'0:19.324',-3.45
'0:19.328',-2.16
'0:19.332',0.77
'0:19.336',4.14
'0:19.340',6.79
'0:19.344',8.02
'0:19.348',6.48
'0:19.352',2.67
'0:19.355',-1.91
'0:19.359',-5.49
'0:19.363',-7.81
'0:19.367',-8.93
'0:19.371',-8.87
'0:19.375',-8.01
'0:19.379',-6.68
'0:19.383',-5.35
'0:19.387',-4.32
'0:19.391',-3.57
'0:19.395',-2.96
'0:19.398',-2.37
'0:19.402',-1.65
'0:19.406',-0.89
'0:19.410',-0.42
'0:19.414',-0.27
'0:19.418',-0.2
'0:19.422',-0.06
'0:19.426',0.3
'0:19.430',0.76
'0:19.434',1.24
'0:19.438',1.75
'0:19.441',2.17
'0:19.445',2.57
'0:19.449',2.97
'0:19.453',3.37
'0:19.457',3.74
'0:19.461',4.04
'0:19.465',4.04
'0:19.469',3.82
'0:19.473',3.65
'0:19.477',3.36
'0:19.480',3.04
'0:19.484',2.82
'0:19.488',2.56
'0:19.492',2.24
'0:19.496',1.99
'0:19.500',1.83
'0:19.504',1.66
'0:19.508',1.3
'0:19.512',0.99
'0:19.516',0.88
'0:19.520',0.82
'0:19.523',0.59
'0:19.527',0.2
