'0:00.000',-0.99
'0:00.004',-1.55
'0:00.008',-1.9
'0:00.012',-2.07
'0:00.016',-2.39
'0:00.020',-2.75
'0:00.023',-2.84
'0:00.027',-2.66
'0:00.031',-2.31
'0:00.035',-2.21
'0:00.039',-2.19
'0:00.043',-2.24
'0:00.047',-2.55
'0:00.051',-2.84
'0:00.055',-2.59
'0:00.059',-0.9
'0:00.063',2.18
'0:00.066',5.84
'0:00.070',9.47
'0:00.074',11.65
'0:00.078',11.47
'0:00.082',9.04
'0:00.086',4.32
'0:00.090',-1.08
'0:00.094',-5.35
'0:00.098',-7.98
'0:00.102',-8.94
'0:00.105',-8.32
'0:00.109',-6.77
'0:00.113',-5.16
'0:00.117',-3.99
'0:00.121',-3.29
'0:00.125',-2.88
'0:00.129',-2.37
'0:00.133',-1.83
'0:00.137',-1.44
'0:00.141',-1.14
'0:00.145',-1.16
'0:00.148',-1.32
'0:00.152',-1.31
'0:00.156',-1.06
'0:00.160',-0.66
'0:00.164',-0.21
'0:00.168',0.27
'0:00.172',0.66
'0:00.176',1.07
'0:00.180',1.58
'0:00.184',1.88
'0:00.188',2.29
'0:00.191',2.96
'0:00.195',3.7
'0:00.199',4.05
'0:00.203',4.12
'0:00.207',4.24
'0:00.211',4.32
'0:00.215',4.29
'0:00.219',4.43
'0:00.223',4.4
'0:00.227',4.1
'0:00.230',3.61
'0:00.234',2.75
'0:00.238',1.7
'0:00.242',0.65
'0:00.246',-0.28
'0:00.250',-0.93
'0:00.254',-1.09
'0:00.258',-1.34
'0:00.262',-1.63
'0:00.266',-1.8
'0:00.270',-1.92
'0:00.273',-1.92
'0:00.277',-1.7
'0:00.281',-1.19
'0:00.285',-0.9
'0:00.289',-0.92
'0:00.293',-0.55
'0:00.297',-0.24
'0:00.301',-0.26
'0:00.305',-0.11
'0:00.309',0.02
'0:00.313',0.08
'0:00.316',-0.18
'0:00.320',-0.98
'0:00.324',-1.63
'0:00.328',-2.01
'0:00.332',-2.19
'0:00.336',-2.38
'0:00.340',-2.58
'0:00.344',-2.53
'0:00.348',-2.53
'0:00.352',-2.23
'0:00.355',-1.81
'0:00.359',-1.75
'0:00.363',-1.68
'0:00.367',-1.82
'0:00.371',-2.68
'0:00.375',-3.47
'0:00.379',-3.31
'0:00.383',-2.26
'0:00.387',-0.6
'0:00.391',2.13
'0:00.395',5.46
'0:00.398',8.84
'0:00.402',11.5
'0:00.406',12.37
'0:00.410',10.73
'0:00.414',6.79
'0:00.418',1.37
'0:00.422',-3.83
'0:00.426',-7.51
'0:00.430',-9.28
'0:00.434',-9.38
'0:00.438',-8.23
'0:00.441',-6.53
'0:00.445',-4.94
'0:00.449',-3.9
'0:00.453',-3.27
'0:00.457',-2.78
'0:00.461',-2.39
'0:00.465',-1.98
'0:00.469',-1.42
'0:00.473',-0.83
'0:00.477',-0.41
'0:00.480',-0.52
'0:00.484',-0.82
'0:00.488',-0.89
'0:00.492',-0.63
'0:00.496',-0.17
'0:00.500',0.31
'0:00.504',0.7
'0:00.508',0.91
'0:00.512',1.01
'0:00.516',1.31
'0:00.520',1.63
'0:00.523',2.02
'0:00.527',2.6
'0:00.531',3.12
'0:00.535',3.32
'0:00.539',3.2
'0:00.543',3.12
'0:00.547',3.12
'0:00.551',3.1
'0:00.555',3.09
'0:00.559',2.86
'0:00.563',2.39
'0:00.566',1.81
'0:00.570',1.33
'0:00.574',0.94
'0:00.578',0.72
'0:00.582',0.59
'0:00.586',0.36
'0:00.590',0.2
'0:00.594',0.13
'0:00.598',0.06
'0:00.602',-0.06
'0:00.605',-0.06
'0:00.609',0
'0:00.613',0.27
'0:00.617',0.6
'0:00.621',0.85
'0:00.625',0.97
'0:00.629',0.8
'0:00.633',0.4
'0:00.637',0.15
'0:00.641',0.05
'0:00.645',-0.13
'0:00.648',-0.74
'0:00.652',-1.5
'0:00.656',-2.21
'0:00.660',-2.65
'0:00.664',-2.68
'0:00.668',-2.99
'0:00.672',-3.31
'0:00.676',-3.41
'0:00.680',-3.38
'0:00.684',-3.36
'0:00.688',-3.4
'0:00.691',-3.26
'0:00.695',-3.05
'0:00.699',-3.09
'0:00.703',-3.33
'0:00.707',-3.5
'0:00.711',-3.51
'0:00.715',-3.14
'0:00.719',-1.87
'0:00.723',0.7
'0:00.727',4.24
'0:00.730',8.14
'0:00.734',10.72
'0:00.738',11.01
'0:00.742',8.66
'0:00.746',4.07
'0:00.750',-1.17
'0:00.754',-5.38
'0:00.758',-8.05
'0:00.762',-9.27
'0:00.766',-9.43
'0:00.770',-8.51
'0:00.773',-6.96
'0:00.777',-5.35
'0:00.781',-4.2
'0:00.785',-3.41
'0:00.789',-2.86
'0:00.793',-2.39
'0:00.797',-2.12
'0:00.801',-1.99
'0:00.805',-1.73
'0:00.809',-1.44
'0:00.813',-1.19
'0:00.816',-1.05
'0:00.820',-1.04
'0:00.824',-0.96
'0:00.828',-0.78
'0:00.832',-0.63
'0:00.836',-0.51
'0:00.840',-0.24
'0:00.844',0.07
'0:00.848',0.51
'0:00.852',0.97
'0:00.855',1.35
'0:00.859',1.52
'0:00.863',1.61
'0:00.867',1.69
'0:00.871',1.9
'0:00.875',2.19
'0:00.879',2.44
'0:00.883',2.34
'0:00.887',2.08
'0:00.891',1.49
'0:00.895',0.82
'0:00.898',0.42
'0:00.902',0.03
'0:00.906',-0.35
'0:00.910',-0.67
'0:00.914',-0.92
'0:00.918',-1.09
'0:00.922',-1.21
'0:00.926',-1.09
'0:00.930',-0.9
'0:00.934',-0.66
'0:00.938',-0.31
'0:00.941',-0.1
'0:00.945',0.05
'0:00.949',0.23
'0:00.953',0.28
'0:00.957',0.37
'0:00.961',0.56
'0:00.965',0.38
'0:00.969',-0.01
'0:00.973',-0.47
'0:00.977',-0.91
'0:00.980',-1.35
'0:00.984',-1.94
'0:00.988',-2.28
'0:00.992',-2.38
'0:00.996',-2.51
'0:01.000',-2.63
'0:01.004',-2.63
'0:01.008',-2.79
'0:01.012',-2.97
'0:01.016',-2.77
'0:01.020',-2.62
'0:01.023',-2.5
'0:01.027',-2.27
'0:01.031',-2.16
'0:01.035',-2.31
'0:01.039',-2.57
'0:01.043',-2.61
'0:01.047',-2.26
'0:01.051',-1.28
'0:01.055',0.87
'0:01.059',4.08
'0:01.063',7.79
'0:01.066',10.36
'0:01.070',10.08
'0:01.074',7.3
'0:01.078',2.6
'0:01.082',-2.58
'0:01.086',-6.48
'0:01.090',-8.4
'0:01.094',-8.91
'0:01.098',-8.34
'0:01.102',-7.66
'0:01.105',-6.47
'0:01.109',-4.89
'0:01.113',-4.1
'0:01.117',-3.48
'0:01.121',-2.66
'0:01.125',-2.22
'0:01.129',-1.78
'0:01.133',-1.17
'0:01.137',-0.64
'0:01.141',-0.69
'0:01.145',-0.92
'0:01.148',-0.71
'0:01.152',-0.44
'0:01.156',-0.15
'0:01.160',0.36
'0:01.164',0.84
'0:01.168',0.67
'0:01.172',0.66
'0:01.176',0.9
'0:01.180',1.12
'0:01.184',1.77
'0:01.188',2.19
'0:01.191',2.53
'0:01.195',2.54
'0:01.199',2.58
'0:01.203',2.78
'0:01.207',3.08
'0:01.211',3
'0:01.215',2.84
'0:01.219',2.27
'0:01.223',1.59
'0:01.227',1.01
'0:01.230',0.86
'0:01.234',1.1
'0:01.238',1.13
'0:01.242',0.98
'0:01.246',0.92
'0:01.250',0.98
'0:01.254',0.79
'0:01.258',0.59
'0:01.262',0.58
'0:01.266',0.83
'0:01.270',1.05
'0:01.273',0.98
'0:01.277',1.43
'0:01.281',2.26
'0:01.285',2.51
'0:01.289',2.3
'0:01.293',2.1
'0:01.297',1.86
'0:01.301',1.59
'0:01.305',1.39
'0:01.309',0.86
'0:01.313',0.21
'0:01.316',-0.41
'0:01.320',-0.86
'0:01.324',-0.99
'0:01.328',-1.19
'0:01.332',-1.8
'0:01.336',-2.16
'0:01.340',-2.07
'0:01.344',-1.8
'0:01.348',-1.58
'0:01.352',-1.61
'0:01.355',-1.96
'0:01.359',-2.21
'0:01.363',-2.19
'0:01.367',-1.95
'0:01.371',-1.48
'0:01.375',-0.9
'0:01.379',0.11
'0:01.383',2.2
'0:01.387',5.2
'0:01.391',8.29
'0:01.395',11.18
'0:01.398',12.99
'0:01.402',12.14
'0:01.406',8.54
'0:01.410',3.5
'0:01.414',-1.23
'0:01.418',-4.16
'0:01.422',-5.58
'0:01.426',-6.39
'0:01.430',-6.45
'0:01.434',-5.49
'0:01.438',-4.28
'0:01.441',-3.39
'0:01.445',-2.74
'0:01.449',-2.02
'0:01.453',-1.33
'0:01.457',-1.02
'0:01.461',-1.31
'0:01.465',-1.48
'0:01.469',-1.22
'0:01.473',-0.8
'0:01.477',-0.54
'0:01.480',-0.88
'0:01.484',-0.97
'0:01.488',-0.67
'0:01.492',-0.36
'0:01.496',-0.02
'0:01.500',0.4
'0:01.504',0.71
'0:01.508',1.05
'0:01.512',1.6
'0:01.516',2.19
'0:01.520',2.66
'0:01.523',3.19
'0:01.527',3.77
'0:01.531',3.85
'0:01.535',3.56
'0:01.539',3.25
'0:01.543',2.93
'0:01.547',2.49
'0:01.551',2.15
'0:01.555',1.76
'0:01.559',1.4
'0:01.563',1.16
'0:01.566',0.91
'0:01.570',0.68
'0:01.574',0.45
'0:01.578',0.38
'0:01.582',0.44
'0:01.586',0.64
'0:01.590',0.81
'0:01.594',0.97
'0:01.598',1.1
'0:01.602',1.29
'0:01.605',1.46
'0:01.609',1.71
'0:01.613',1.95
'0:01.617',2.14
'0:01.621',2.34
'0:01.625',2.36
'0:01.629',2.28
'0:01.633',2.13
'0:01.637',1.81
'0:01.641',1.27
'0:01.645',0.6
'0:01.648',0.08
'0:01.652',-0.33
'0:01.656',-0.74
'0:01.660',-1.07
'0:01.664',-1.24
'0:01.668',-1.38
'0:01.672',-1.57
'0:01.676',-1.6
'0:01.680',-1.68
'0:01.684',-1.66
'0:01.688',-1.51
'0:01.691',-1.41
'0:01.695',-1.7
'0:01.699',-2.15
'0:01.703',-2.4
'0:01.707',-2.02
'0:01.711',-0.87
'0:01.715',1.46
'0:01.719',4.59
'0:01.723',8.26
'0:01.727',11.08
'0:01.730',11.95
'0:01.734',10.51
'0:01.738',6.48
'0:01.742',0.99
'0:01.746',-3.57
'0:01.750',-6.48
'0:01.754',-7.83
'0:01.758',-7.86
'0:01.762',-6.9
'0:01.766',-5.7
'0:01.770',-4.54
'0:01.773',-3.53
'0:01.777',-2.78
'0:01.781',-2.29
'0:01.785',-1.85
'0:01.789',-1.51
'0:01.793',-1.58
'0:01.797',-1.44
'0:01.801',-1.1
'0:01.805',-0.8
'0:01.809',-0.44
'0:01.813',-0.26
'0:01.816',-0.14
'0:01.820',0.22
'0:01.824',0.41
'0:01.828',0.44
'0:01.832',0.45
'0:01.836',0.81
'0:01.840',1.47
'0:01.844',2.13
'0:01.848',2.86
'0:01.852',3.41
'0:01.855',3.87
'0:01.859',4.24
'0:01.863',4.47
'0:01.867',4.63
'0:01.871',4.56
'0:01.875',4.25
'0:01.879',3.83
'0:01.883',3.27
'0:01.887',2.5
'0:01.891',1.59
'0:01.895',0.6
'0:01.898',-0.37
'0:01.902',-1.18
'0:01.906',-1.82
'0:01.910',-2.4
'0:01.914',-2.66
'0:01.918',-2.61
'0:01.922',-2.35
'0:01.926',-1.98
'0:01.930',-1.6
'0:01.934',-1.43
'0:01.938',-1.28
'0:01.941',-0.75
'0:01.945',-0.24
'0:01.949',-0.09
'0:01.953',0.05
'0:01.957',0.03
'0:01.961',-0.38
'0:01.965',-0.84
'0:01.969',-1.07
'0:01.973',-1.21
'0:01.977',-1.36
'0:01.980',-1.49
'0:01.984',-1.82
'0:01.988',-1.84
'0:01.992',-2.04
'0:01.996',-2.26
'0:02.000',-2.39
'0:02.004',-2.07
'0:02.008',-2.02
'0:02.012',-2.19
'0:02.016',-1.83
'0:02.020',-1.32
'0:02.023',-1.28
'0:02.027',-1.91
'0:02.031',-2.24
'0:02.035',-2.26
'0:02.039',-1.16
'0:02.043',1.22
'0:02.047',4.57
'0:02.051',8.61
'0:02.055',11.76
'0:02.059',12.97
'0:02.063',11.38
'0:02.066',6.64
'0:02.070',0.7
'0:02.074',-3.88
'0:02.078',-6.66
'0:02.082',-7.93
'0:02.086',-7.53
'0:02.090',-6.27
'0:02.094',-4.84
'0:02.098',-3.9
'0:02.102',-3.6
'0:02.105',-3.12
'0:02.109',-2.56
'0:02.113',-2.36
'0:02.117',-2.41
'0:02.121',-2.24
'0:02.125',-1.63
'0:02.129',-1.22
'0:02.133',-0.91
'0:02.137',-0.68
'0:02.141',-0.63
'0:02.145',-0.51
'0:02.148',-0.45
'0:02.152',-0.43
'0:02.156',0.02
'0:02.160',0.65
'0:02.164',1.17
'0:02.168',1.56
'0:02.172',2.02
'0:02.176',2.66
'0:02.180',3.16
'0:02.184',3.41
'0:02.188',3.63
'0:02.191',3.66
'0:02.195',3.41
'0:02.199',3.27
'0:02.203',3.19
'0:02.207',3.08
'0:02.211',2.79
'0:02.215',2.25
'0:02.219',1.74
'0:02.223',1.44
'0:02.227',1.37
'0:02.230',1.17
'0:02.234',0.52
'0:02.238',0.01
'0:02.242',-0.11
'0:02.246',-0.04
'0:02.250',0.08
'0:02.254',0.23
'0:02.258',0.27
'0:02.262',0.23
'0:02.266',0.25
'0:02.270',0.43
'0:02.273',0.82
'0:02.277',1.24
'0:02.281',1.32
'0:02.285',1.09
'0:02.289',0.74
'0:02.293',0.4
'0:02.297',0.08
'0:02.301',-0.35
'0:02.305',-0.73
'0:02.309',-1.31
'0:02.313',-1.96
'0:02.316',-2.48
'0:02.320',-2.94
'0:02.324',-3.18
'0:02.328',-3.11
'0:02.332',-3.02
'0:02.336',-3.11
'0:02.340',-3.24
'0:02.344',-3.38
'0:02.348',-3.31
'0:02.352',-3.31
'0:02.355',-3.6
'0:02.359',-3.93
'0:02.363',-3.91
'0:02.367',-3.13
'0:02.371',-1.53
'0:02.375',1.15
'0:02.379',4.81
'0:02.383',8.87
'0:02.387',11.53
'0:02.391',11.72
'0:02.395',9.38
'0:02.398',4.68
'0:02.402',-0.81
'0:02.406',-5.2
'0:02.410',-8.11
'0:02.414',-9.34
'0:02.418',-9.31
'0:02.422',-8.27
'0:02.426',-6.9
'0:02.430',-5.29
'0:02.434',-4.08
'0:02.438',-3.25
'0:02.441',-2.65
'0:02.445',-2.25
'0:02.449',-1.97
'0:02.453',-1.46
'0:02.457',-1.07
'0:02.461',-0.85
'0:02.465',-0.63
'0:02.469',-0.39
'0:02.473',-0.34
'0:02.477',-0.41
'0:02.480',-0.35
'0:02.484',-0.22
'0:02.488',-0.09
'0:02.492',0.1
'0:02.496',0.37
'0:02.500',0.56
'0:02.504',0.74
'0:02.508',0.99
'0:02.512',1.43
'0:02.516',1.85
'0:02.520',2.15
'0:02.523',2.4
'0:02.527',2.44
'0:02.531',2.28
'0:02.535',1.93
'0:02.539',1.64
'0:02.543',1.49
'0:02.547',1.24
'0:02.551',0.7
'0:02.555',0.01
'0:02.559',-0.6
'0:02.563',-0.99
'0:02.566',-1.07
'0:02.570',-0.92
'0:02.574',-0.71
'0:02.578',-0.38
'0:02.582',-0.19
'0:02.586',0.13
'0:02.590',0.37
'0:02.594',0.08
'0:02.598',-0.31
'0:02.602',-0.24
'0:02.605',0.29
'0:02.609',0.91
'0:02.613',1.07
'0:02.617',0.86
'0:02.621',0.4
'0:02.625',0.03
'0:02.629',-0.55
'0:02.633',-1.21
'0:02.637',-1.84
'0:02.641',-2.21
'0:02.645',-2.36
'0:02.648',-2.55
'0:02.652',-2.68
'0:02.656',-2.89
'0:02.660',-3.01
'0:02.664',-3.09
'0:02.668',-3.05
'0:02.672',-2.73
'0:02.676',-2.48
'0:02.680',-2.6
'0:02.684',-2.84
'0:02.688',-3.04
'0:02.691',-3.13
'0:02.695',-2.89
'0:02.699',-2.17
'0:02.703',-0.51
'0:02.707',2.19
'0:02.711',5.77
'0:02.715',9.55
'0:02.719',12.08
'0:02.723',12.07
'0:02.727',8.96
'0:02.730',3.47
'0:02.734',-2.5
'0:02.738',-6.99
'0:02.742',-9.48
'0:02.746',-10.43
'0:02.750',-10.26
'0:02.754',-9
'0:02.758',-7.56
'0:02.762',-6.19
'0:02.766',-4.61
'0:02.770',-3.54
'0:02.773',-2.78
'0:02.777',-2.15
'0:02.781',-1.34
'0:02.785',-0.58
'0:02.789',-0.93
'0:02.793',-1.14
'0:02.797',-1.02
'0:02.801',-0.85
'0:02.805',-0.54
'0:02.809',-0.41
'0:02.813',-0.55
'0:02.816',-0.19
'0:02.820',0.37
'0:02.824',1.07
'0:02.828',1.97
'0:02.832',2.26
'0:02.836',2.22
'0:02.840',2.7
'0:02.844',3.26
'0:02.848',3.48
'0:02.852',3.13
'0:02.855',2.93
'0:02.859',2.98
'0:02.863',3
'0:02.867',3.1
'0:02.871',2.79
'0:02.875',1.93
'0:02.879',1.28
'0:02.883',1.39
'0:02.887',1.68
'0:02.891',1.54
'0:02.895',1.32
'0:02.898',1.17
'0:02.902',1.01
'0:02.906',0.96
'0:02.910',1.02
'0:02.914',1.1
'0:02.918',1.37
'0:02.922',1.75
'0:02.926',2.03
'0:02.930',2.27
'0:02.934',2.44
'0:02.938',2.55
'0:02.941',2.63
'0:02.945',2.64
'0:02.949',2.49
'0:02.953',2.21
'0:02.957',1.73
'0:02.961',0.96
'0:02.965',0.03
'0:02.969',-0.81
'0:02.973',-1.38
'0:02.977',-1.62
'0:02.980',-1.9
'0:02.984',-2.02
'0:02.988',-2
'0:02.992',-2.06
'0:02.996',-2.3
'0:03.000',-2.48
'0:03.004',-2.57
'0:03.008',-2.48
'0:03.012',-2.12
'0:03.016',-2.05
'0:03.020',-2.02
'0:03.023',-1.7
'0:03.027',-1.34
'0:03.031',-0.76
'0:03.035',0.89
'0:03.039',3.9
'0:03.043',7.74
'0:03.047',11.4
'0:03.051',13.46
'0:03.055',12.49
'0:03.059',8.5
'0:03.063',3.05
'0:03.066',-1.77
'0:03.070',-5.23
'0:03.074',-7.5
'0:03.078',-8.22
'0:03.082',-7.36
'0:03.086',-5.8
'0:03.090',-4.39
'0:03.094',-3.3
'0:03.098',-2.61
'0:03.102',-2.21
'0:03.105',-1.93
'0:03.109',-1.59
'0:03.113',-1.17
'0:03.117',-0.81
'0:03.121',-0.44
'0:03.125',-0.19
'0:03.129',-0.02
'0:03.133',0.03
'0:03.137',0
'0:03.141',-0.14
'0:03.145',-0.09
'0:03.148',0.24
'0:03.152',0.61
'0:03.156',0.97
'0:03.160',1.43
'0:03.164',2.04
'0:03.168',2.65
'0:03.172',3.15
'0:03.176',3.49
'0:03.180',3.52
'0:03.184',3.45
'0:03.188',3.28
'0:03.191',3.03
'0:03.195',2.8
'0:03.199',2.61
'0:03.203',2.44
'0:03.207',2.1
'0:03.211',1.66
'0:03.215',1.06
'0:03.219',0.62
'0:03.223',0.35
'0:03.227',0.13
'0:03.230',0.06
'0:03.234',0.29
'0:03.238',0.59
'0:03.242',0.8
'0:03.246',0.9
'0:03.250',0.98
'0:03.254',1.17
'0:03.258',1.58
'0:03.262',2.02
'0:03.266',2.31
'0:03.270',2.24
'0:03.273',1.91
'0:03.277',1.56
'0:03.281',1.1
'0:03.285',0.94
'0:03.289',0.98
'0:03.293',0.83
'0:03.297',0.38
'0:03.301',-0.18
'0:03.305',-0.81
'0:03.309',-1.71
'0:03.313',-2.35
'0:03.316',-2.31
'0:03.320',-2.09
'0:03.324',-1.99
'0:03.328',-1.95
'0:03.332',-1.94
'0:03.336',-1.97
'0:03.340',-1.99
'0:03.344',-2.11
'0:03.348',-2.49
'0:03.352',-2.89
'0:03.355',-3.06
'0:03.359',-2.83
'0:03.363',-1.47
'0:03.367',1.34
'0:03.371',4.82
'0:03.375',8.56
'0:03.379',10.83
'0:03.383',10.87
'0:03.387',8.96
'0:03.391',4.91
'0:03.395',0
'0:03.398',-3.78
'0:03.402',-6.26
'0:03.406',-7.57
'0:03.410',-7.88
'0:03.414',-7.19
'0:03.418',-5.94
'0:03.422',-4.71
'0:03.426',-3.95
'0:03.430',-3.41
'0:03.434',-2.78
'0:03.438',-2.34
'0:03.441',-2.02
'0:03.445',-1.61
'0:03.449',-1.22
'0:03.453',-0.87
'0:03.457',-0.6
'0:03.461',-0.37
'0:03.465',0
'0:03.469',0.46
'0:03.473',0.92
'0:03.477',1.1
'0:03.480',1.34
'0:03.484',1.72
'0:03.488',2.02
'0:03.492',2.34
'0:03.496',2.75
'0:03.500',3
'0:03.504',3.29
'0:03.508',3.6
'0:03.512',3.81
'0:03.516',4.11
'0:03.520',4
'0:03.523',3.7
'0:03.527',3.34
'0:03.531',2.81
'0:03.535',2.22
'0:03.539',1.49
'0:03.543',0.62
'0:03.547',-0.35
'0:03.551',-1.4
'0:03.555',-1.6
'0:03.559',-1.48
'0:03.563',-1.29
'0:03.566',-0.92
'0:03.570',-0.44
'0:03.574',-0.62
'0:03.578',-0.9
'0:03.582',-0.44
'0:03.586',0.29
'0:03.590',0.15
'0:03.594',0.03
'0:03.598',0.39
'0:03.602',0.76
'0:03.605',0.35
'0:03.609',-0.13
'0:03.613',0.41
'0:03.617',1.02
'0:03.621',0.99
'0:03.625',0.64
'0:03.629',0.46
'0:03.633',-0.38
'0:03.637',-1.3
'0:03.641',-1.58
'0:03.645',-1.14
'0:03.648',-0.78
'0:03.652',-1.11
'0:03.656',-1.57
'0:03.660',-1.95
'0:03.664',-1.85
'0:03.668',-1.68
'0:03.672',-1.81
'0:03.676',-2.06
'0:03.680',-2.02
'0:03.684',-2.07
'0:03.688',-1.87
'0:03.691',-1.04
'0:03.695',0.99
'0:03.699',4.08
'0:03.703',7.89
'0:03.707',11.38
'0:03.711',12.93
'0:03.715',11.86
'0:03.719',8
'0:03.723',2.58
'0:03.727',-2.56
'0:03.730',-5.96
'0:03.734',-7.66
'0:03.738',-8.18
'0:03.742',-7.46
'0:03.746',-6.26
'0:03.750',-5.19
'0:03.754',-4.15
'0:03.758',-3.27
'0:03.762',-2.68
'0:03.766',-2.39
'0:03.770',-2.05
'0:03.773',-1.53
'0:03.777',-0.89
'0:03.781',-0.56
'0:03.785',-0.53
'0:03.789',-0.39
'0:03.793',-0.25
'0:03.797',-0.07
'0:03.801',0.09
'0:03.805',0.28
'0:03.809',0.67
'0:03.813',1.04
'0:03.816',1.39
'0:03.820',1.9
'0:03.824',2.44
'0:03.828',2.8
'0:03.832',2.98
'0:03.836',3.2
'0:03.840',3.58
'0:03.844',3.71
'0:03.848',3.61
'0:03.852',3.49
'0:03.855',3.5
'0:03.859',3.24
'0:03.863',2.71
'0:03.867',2.24
'0:03.871',1.79
'0:03.875',1.32
'0:03.879',0.8
'0:03.883',0.4
'0:03.887',0.25
'0:03.891',0.3
'0:03.895',0.3
'0:03.898',0.2
'0:03.902',0.1
'0:03.906',-0.19
'0:03.910',-0.11
'0:03.914',0.29
'0:03.918',0.71
'0:03.922',1.07
'0:03.926',1.18
'0:03.930',1.31
'0:03.934',1.35
'0:03.938',1.16
'0:03.941',0.83
'0:03.945',0.55
'0:03.949',0.16
'0:03.953',-0.28
'0:03.957',-0.77
'0:03.961',-1.38
'0:03.965',-1.87
'0:03.969',-2.28
'0:03.973',-2.65
'0:03.977',-3.06
'0:03.980',-3.43
'0:03.984',-3.55
'0:03.988',-3.5
'0:03.992',-3.38
'0:03.996',-3.24
'0:04.000',-3.09
'0:04.004',-3.14
'0:04.008',-3.28
'0:04.012',-3.52
'0:04.016',-3.73
'0:04.020',-3.34
'0:04.023',-2.13
'0:04.027',0.23
'0:04.031',3.59
'0:04.035',7.53
'0:04.039',10.65
'0:04.043',11.66
'0:04.047',10.15
'0:04.051',6.18
'0:04.055',0.89
'0:04.059',-3.81
'0:04.063',-7.25
'0:04.066',-9.2
'0:04.070',-9.75
'0:04.074',-9.02
'0:04.078',-7.44
'0:04.082',-5.71
'0:04.086',-4.37
'0:04.090',-3.39
'0:04.094',-2.83
'0:04.098',-2.49
'0:04.102',-2.15
'0:04.105',-1.92
'0:04.109',-1.75
'0:04.113',-1.53
'0:04.117',-1.5
'0:04.121',-1.51
'0:04.125',-1.36
'0:04.129',-1.24
'0:04.133',-1.07
'0:04.137',-0.84
'0:04.141',-0.51
'0:04.145',-0.09
'0:04.148',0.21
'0:04.152',0.46
'0:04.156',0.99
'0:04.160',1.61
'0:04.164',2.1
'0:04.168',2.05
'0:04.172',2.08
'0:04.176',2.37
'0:04.180',2.29
'0:04.184',2.08
'0:04.188',2.12
'0:04.191',1.96
'0:04.195',1.61
'0:04.199',1.25
'0:04.203',0.86
'0:04.207',0.44
'0:04.211',-0.02
'0:04.215',-0.53
'0:04.219',-0.72
'0:04.223',-0.56
'0:04.227',-0.55
'0:04.230',-0.75
'0:04.234',-0.78
'0:04.238',-0.67
'0:04.242',-0.58
'0:04.246',-0.4
'0:04.250',-0.33
'0:04.254',0.1
'0:04.258',0.78
'0:04.262',0.9
'0:04.266',0.73
'0:04.270',0.47
'0:04.273',0.13
'0:04.277',-0.16
'0:04.281',-0.62
'0:04.285',-0.97
'0:04.289',-1.36
'0:04.293',-1.72
'0:04.297',-1.97
'0:04.301',-2.19
'0:04.305',-2.41
'0:04.309',-2.33
'0:04.313',-2.17
'0:04.316',-2.05
'0:04.320',-2.05
'0:04.324',-2.11
'0:04.328',-2.12
'0:04.332',-2.12
'0:04.336',-2.26
'0:04.340',-2.7
'0:04.344',-3.35
'0:04.348',-4.13
'0:04.352',-4.47
'0:04.355',-3.61
'0:04.359',-1.3
'0:04.363',2.11
'0:04.367',5.78
'0:04.371',9.12
'0:04.375',10.81
'0:04.379',9.75
'0:04.383',5.76
'0:04.387',0.5
'0:04.391',-3.91
'0:04.395',-6.85
'0:04.398',-8.65
'0:04.402',-9.15
'0:04.406',-8.24
'0:04.410',-6.56
'0:04.414',-4.82
'0:04.418',-3.8
'0:04.422',-3.12
'0:04.426',-2.49
'0:04.430',-1.79
'0:04.434',-1.72
'0:04.438',-1.59
'0:04.441',-1.31
'0:04.445',-1.11
'0:04.449',-0.83
'0:04.453',-0.39
'0:04.457',0.1
'0:04.461',0.42
'0:04.465',0.56
'0:04.469',0.73
'0:04.473',0.97
'0:04.477',1.26
'0:04.480',1.22
'0:04.484',1.17
'0:04.488',1.33
'0:04.492',1.86
'0:04.496',2.66
'0:04.500',3.31
'0:04.504',3.39
'0:04.508',3.61
'0:04.512',3.86
'0:04.516',3.82
'0:04.520',3.52
'0:04.523',3.23
'0:04.527',2.79
'0:04.531',2.22
'0:04.535',1.84
'0:04.539',1.39
'0:04.543',0.8
'0:04.547',0.36
'0:04.551',0.11
'0:04.555',0.39
'0:04.559',0.66
'0:04.563',0.74
'0:04.566',0.68
'0:04.570',0.64
'0:04.574',0.71
'0:04.578',0.96
'0:04.582',1.23
'0:04.586',1.42
'0:04.590',1.31
'0:04.594',1.19
'0:04.598',1.03
'0:04.602',0.79
'0:04.605',0.55
'0:04.609',0.55
'0:04.613',0.49
'0:04.617',0.25
'0:04.621',-0.02
'0:04.625',-0.43
'0:04.629',-0.81
'0:04.633',-1.14
'0:04.637',-1.29
'0:04.641',-1.5
'0:04.645',-1.74
'0:04.648',-1.83
'0:04.652',-1.85
'0:04.656',-1.77
'0:04.660',-1.53
'0:04.664',-1.4
'0:04.668',-1.58
'0:04.672',-1.82
'0:04.676',-1.91
'0:04.680',-1.77
'0:04.684',-1.27
'0:04.688',-0.27
'0:04.691',1.63
'0:04.695',5.03
'0:04.699',8.75
'0:04.703',12.04
'0:04.707',13.15
'0:04.711',11.27
'0:04.715',6.97
'0:04.719',1.46
'0:04.723',-3.11
'0:04.727',-5.95
'0:04.730',-7.12
'0:04.734',-7.27
'0:04.738',-6.82
'0:04.742',-5.58
'0:04.746',-4.23
'0:04.750',-3.53
'0:04.754',-3.02
'0:04.758',-2.48
'0:04.762',-2.07
'0:04.766',-2.06
'0:04.770',-2.06
'0:04.773',-1.97
'0:04.777',-1.55
'0:04.781',-1.02
'0:04.785',-0.8
'0:04.789',-0.72
'0:04.793',-0.44
'0:04.797',0.01
'0:04.801',0.41
'0:04.805',0.87
'0:04.809',1.57
'0:04.813',2.1
'0:04.816',2.51
'0:04.820',2.83
'0:04.824',3.22
'0:04.828',3.43
'0:04.832',3.51
'0:04.836',3.51
'0:04.840',3.54
'0:04.844',3.53
'0:04.848',3.31
'0:04.852',2.88
'0:04.855',2.43
'0:04.859',2.01
'0:04.863',1.65
'0:04.867',1.23
'0:04.871',0.81
'0:04.875',0.57
'0:04.879',0.54
'0:04.883',0.45
'0:04.887',0.44
'0:04.891',0.39
'0:04.895',0.25
'0:04.898',-0.11
'0:04.902',-0.63
'0:04.906',-0.65
'0:04.910',-0.02
'0:04.914',0.68
'0:04.918',1.1
'0:04.922',1.19
'0:04.926',1.17
'0:04.930',1.24
'0:04.934',1.37
'0:04.938',1.56
'0:04.941',1.62
'0:04.945',0.9
'0:04.949',-0.16
'0:04.953',-1.01
'0:04.957',-1.53
'0:04.961',-1.82
'0:04.965',-1.85
'0:04.969',-1.92
'0:04.973',-2.02
'0:04.977',-2.21
'0:04.980',-2.29
'0:04.984',-2.3
'0:04.988',-2.43
'0:04.992',-2.53
'0:04.996',-2.65
'0:05.000',-2.87
'0:05.004',-3.21
'0:05.008',-3.58
'0:05.012',-3.33
'0:05.016',-2.05
'0:05.020',0.65
'0:05.023',4.18
'0:05.027',8.46
'0:05.031',11.8
'0:05.035',12.51
'0:05.039',10.53
'0:05.043',5.97
'0:05.047',-0.16
'0:05.051',-5.23
'0:05.055',-8.38
'0:05.059',-9.88
'0:05.063',-9.93
'0:05.066',-8.65
'0:05.070',-7.09
'0:05.074',-5.77
'0:05.078',-4.9
'0:05.082',-4.28
'0:05.086',-3.8
'0:05.090',-3.29
'0:05.094',-2.77
'0:05.098',-2.15
'0:05.102',-1.7
'0:05.105',-1.44
'0:05.109',-1.19
'0:05.113',-0.87
'0:05.117',-0.57
'0:05.121',-0.19
'0:05.125',-0.04
'0:05.129',0.17
'0:05.133',0.29
'0:05.137',0.47
'0:05.141',1
'0:05.145',1.88
'0:05.148',2.26
'0:05.152',2.51
'0:05.156',2.56
'0:05.160',2.43
'0:05.164',2.4
'0:05.168',2.37
'0:05.172',2.37
'0:05.176',2.22
'0:05.180',1.98
'0:05.184',1.71
'0:05.188',1.64
'0:05.191',1.39
'0:05.195',0.54
'0:05.199',-0.23
'0:05.203',-0.65
'0:05.207',-0.99
'0:05.211',-1.26
'0:05.215',-1.26
'0:05.219',-1.02
'0:05.223',-0.75
'0:05.227',-0.55
'0:05.230',-0.43
'0:05.234',0.13
'0:05.238',0.3
'0:05.242',0.18
'0:05.246',0.15
'0:05.250',0.1
'0:05.254',0.35
'0:05.258',0.69
'0:05.262',0.64
'0:05.266',0.69
'0:05.270',0.85
'0:05.273',0.83
'0:05.277',0.18
'0:05.281',-0.36
'0:05.285',-0.63
'0:05.289',-0.9
'0:05.293',-1.34
'0:05.297',-1.7
'0:05.301',-2.05
'0:05.305',-2.01
'0:05.309',-1.75
'0:05.313',-1.87
'0:05.316',-2.14
'0:05.320',-2.19
'0:05.324',-1.95
'0:05.328',-2.01
'0:05.332',-2.29
'0:05.336',-2.55
'0:05.340',-2.51
'0:05.344',-1.96
'0:05.348',-0.89
'0:05.352',1.39
'0:05.355',4.96
'0:05.359',9.31
'0:05.363',12.66
'0:05.367',13.33
'0:05.371',10.66
'0:05.375',5.41
'0:05.379',-0.65
'0:05.383',-5.5
'0:05.387',-8.38
'0:05.391',-9.47
'0:05.395',-9.28
'0:05.398',-8.16
'0:05.402',-6.65
'0:05.406',-5.19
'0:05.410',-4.17
'0:05.414',-3.44
'0:05.418',-3
'0:05.422',-2.76
'0:05.426',-2.33
'0:05.430',-1.67
'0:05.434',-1.12
'0:05.438',-0.7
'0:05.441',-0.43
'0:05.445',-0.26
'0:05.449',-0.19
'0:05.453',-0.11
'0:05.457',0.05
'0:05.461',0.3
'0:05.465',0.71
'0:05.469',1.21
'0:05.473',1.61
'0:05.477',2.04
'0:05.480',2.53
'0:05.484',3.07
'0:05.488',3.45
'0:05.492',3.73
'0:05.496',4.05
'0:05.500',4.12
'0:05.504',4.1
'0:05.508',4.03
'0:05.512',3.7
'0:05.516',3.27
'0:05.520',2.9
'0:05.523',2.27
'0:05.527',1.47
'0:05.531',0.76
'0:05.535',0.46
'0:05.539',0.08
'0:05.543',-0.29
'0:05.547',-0.5
'0:05.551',-0.56
'0:05.555',-0.51
'0:05.559',-0.19
'0:05.563',0.18
'0:05.566',0.56
'0:05.570',0.97
'0:05.574',1.13
'0:05.578',1.08
'0:05.582',0.94
'0:05.586',0.63
'0:05.590',0.33
'0:05.594',0.04
'0:05.598',-0.02
'0:05.602',-0.07
'0:05.605',-0.37
'0:05.609',-0.97
'0:05.613',-1.59
'0:05.617',-2.08
'0:05.621',-2.41
'0:05.625',-2.56
'0:05.629',-2.72
'0:05.633',-2.92
'0:05.637',-2.95
'0:05.641',-2.78
'0:05.645',-2.73
'0:05.648',-2.66
'0:05.652',-2.58
'0:05.656',-2.43
'0:05.660',-2.41
'0:05.664',-2.7
'0:05.668',-3.12
'0:05.672',-3.28
'0:05.676',-2.87
'0:05.680',-1.42
'0:05.684',1.29
'0:05.688',4.96
'0:05.691',8.83
'0:05.695',10.95
'0:05.699',10.77
'0:05.703',8.14
'0:05.707',3.5
'0:05.711',-1.58
'0:05.715',-5.49
'0:05.719',-7.98
'0:05.723',-9.08
'0:05.727',-9.08
'0:05.730',-8.13
'0:05.734',-6.67
'0:05.738',-5.29
'0:05.742',-4.27
'0:05.746',-3.53
'0:05.750',-3.04
'0:05.754',-2.63
'0:05.758',-2.14
'0:05.762',-1.83
'0:05.766',-1.83
'0:05.770',-1.71
'0:05.773',-1.37
'0:05.777',-1.07
'0:05.781',-0.97
'0:05.785',-0.82
'0:05.789',-0.41
'0:05.793',-0.1
'0:05.797',0.19
'0:05.801',0.35
'0:05.805',0.54
'0:05.809',1.02
'0:05.813',1.49
'0:05.816',1.68
'0:05.820',1.98
'0:05.824',2.29
'0:05.828',2.47
'0:05.832',2.54
'0:05.836',2.58
'0:05.840',2.44
'0:05.844',1.9
'0:05.848',1.47
'0:05.852',1.1
'0:05.855',0.71
'0:05.859',0.4
'0:05.863',0.22
'0:05.867',-0.11
'0:05.871',-0.55
'0:05.875',-0.66
'0:05.879',-0.56
'0:05.883',-0.41
'0:05.887',-0.04
'0:05.891',-0.19
'0:05.895',-0.51
'0:05.898',-0.48
'0:05.902',-0.34
'0:05.906',-0.02
'0:05.910',0.1
'0:05.914',0.16
'0:05.918',0.54
'0:05.922',0.64
'0:05.926',0.59
'0:05.930',0.66
'0:05.934',0.49
'0:05.938',0.33
'0:05.941',0.1
'0:05.945',-0.19
'0:05.949',-0.58
'0:05.953',-0.81
'0:05.957',-1.67
'0:05.961',-2.6
'0:05.965',-2.97
'0:05.969',-3.17
'0:05.973',-3.56
'0:05.977',-3.77
'0:05.980',-4.04
'0:05.984',-4.38
'0:05.988',-4.91
'0:05.992',-5
'0:05.996',-5.01
'0:06.000',-4.77
'0:06.004',-4.11
'0:06.008',-3.14
'0:06.012',-0.85
'0:06.016',2.91
'0:06.020',7.35
'0:06.023',11.1
'0:06.027',12.32
'0:06.031',10.59
'0:06.035',6.72
'0:06.039',1.66
'0:06.043',-2.61
'0:06.047',-5.58
'0:06.051',-7.29
'0:06.055',-7.91
'0:06.059',-7.62
'0:06.063',-6.55
'0:06.066',-4.65
'0:06.070',-3.19
'0:06.074',-2.68
'0:06.078',-2.12
'0:06.082',-1.4
'0:06.086',-0.83
'0:06.090',-0.56
'0:06.094',-0.6
'0:06.098',-0.8
'0:06.102',-0.87
'0:06.105',-0.8
'0:06.109',-0.51
'0:06.113',-0.11
'0:06.117',0.56
'0:06.121',1.19
'0:06.125',1.46
'0:06.129',1.61
'0:06.133',2.01
'0:06.137',2.39
'0:06.141',2.59
'0:06.145',3.2
'0:06.148',3.94
'0:06.152',3.84
'0:06.156',3.71
'0:06.160',3.71
'0:06.164',3.65
'0:06.168',3.36
'0:06.172',3.27
'0:06.176',2.97
'0:06.180',2.59
'0:06.184',2.08
'0:06.188',1.59
'0:06.191',1.3
'0:06.195',1.12
'0:06.199',1
'0:06.203',0.79
'0:06.207',0.51
'0:06.211',0.3
'0:06.215',0.27
'0:06.219',0.56
'0:06.223',0.73
'0:06.227',0.86
'0:06.230',0.73
'0:06.234',0.71
'0:06.238',0.93
'0:06.242',1.26
'0:06.246',1.7
'0:06.250',2.02
'0:06.254',2.19
'0:06.258',2.13
'0:06.262',1.91
'0:06.266',1.63
'0:06.270',1.27
'0:06.273',0.64
'0:06.277',-0.01
'0:06.281',-0.36
'0:06.285',-0.53
'0:06.289',-0.58
'0:06.293',-0.58
'0:06.297',-0.8
'0:06.301',-1.17
'0:06.305',-1.41
'0:06.309',-1.38
'0:06.313',-1.31
'0:06.316',-1.09
'0:06.320',-0.92
'0:06.324',-1.07
'0:06.328',-1.53
'0:06.332',-2.11
'0:06.336',-2.11
'0:06.340',-1.14
'0:06.344',1.01
'0:06.348',4.11
'0:06.352',7.84
'0:06.355',11.29
'0:06.359',12.93
'0:06.363',12.11
'0:06.367',8.8
'0:06.371',3.54
'0:06.375',-2.08
'0:06.379',-5.78
'0:06.383',-7.25
'0:06.387',-7.89
'0:06.391',-7.67
'0:06.395',-6.5
'0:06.398',-5
'0:06.402',-3.9
'0:06.406',-3.14
'0:06.410',-2.29
'0:06.414',-1.57
'0:06.418',-1.11
'0:06.422',-0.87
'0:06.426',-0.7
'0:06.430',-0.51
'0:06.434',-0.27
'0:06.438',0.11
'0:06.441',0.42
'0:06.445',0.67
'0:06.449',0.97
'0:06.453',1.28
'0:06.457',1.42
'0:06.461',1.66
'0:06.465',2.11
'0:06.469',2.51
'0:06.473',2.84
'0:06.477',3.18
'0:06.480',3.43
'0:06.484',3.66
'0:06.488',3.77
'0:06.492',3.88
'0:06.496',4.02
'0:06.500',3.9
'0:06.504',3.63
'0:06.508',3.25
'0:06.512',2.8
'0:06.516',2.36
'0:06.520',1.83
'0:06.523',1.3
'0:06.527',0.85
'0:06.531',0.51
'0:06.535',0.25
'0:06.539',0.2
'0:06.543',0.23
'0:06.547',0.29
'0:06.551',0.49
'0:06.555',0.79
'0:06.559',0.95
'0:06.563',1.08
'0:06.566',1.3
'0:06.570',1.51
'0:06.574',1.54
'0:06.578',1.73
'0:06.582',1.71
'0:06.586',1.38
'0:06.590',1.03
'0:06.594',0.76
'0:06.598',0.66
'0:06.602',0.54
'0:06.605',0.29
'0:06.609',-0.21
'0:06.613',-0.94
'0:06.617',-1.56
'0:06.621',-2.02
'0:06.625',-2.23
'0:06.629',-2.31
'0:06.633',-2.36
'0:06.637',-2.31
'0:06.641',-2.48
'0:06.645',-2.92
'0:06.648',-3.19
'0:06.652',-3.43
'0:06.656',-3.68
'0:06.660',-3.77
'0:06.664',-3.36
'0:06.668',-2.65
'0:06.672',-1.12
'0:06.676',1.9
'0:06.680',5.83
'0:06.684',9.96
'0:06.688',12.39
'0:06.691',12.22
'0:06.695',9.14
'0:06.699',3.52
'0:06.703',-2.37
'0:06.707',-6.62
'0:06.711',-8.91
'0:06.715',-9.51
'0:06.719',-9.08
'0:06.723',-7.79
'0:06.727',-6.11
'0:06.730',-4.68
'0:06.734',-3.74
'0:06.738',-2.88
'0:06.742',-2.61
'0:06.746',-2.43
'0:06.750',-2.19
'0:06.754',-1.87
'0:06.758',-1.34
'0:06.762',-0.72
'0:06.766',-0.56
'0:06.770',-0.6
'0:06.773',-0.48
'0:06.777',-0.33
'0:06.781',0.05
'0:06.785',0.29
'0:06.789',0.42
'0:06.793',0.75
'0:06.797',1.42
'0:06.801',1.83
'0:06.805',2.03
'0:06.809',2.34
'0:06.813',2.91
'0:06.816',3.1
'0:06.820',2.95
'0:06.824',2.59
'0:06.828',2.66
'0:06.832',2.56
'0:06.836',2.7
'0:06.840',2.49
'0:06.844',2.25
'0:06.848',1.92
'0:06.852',1.03
'0:06.855',0.37
'0:06.859',-0.22
'0:06.863',-0.8
'0:06.867',-1.02
'0:06.871',-0.56
'0:06.875',-0.07
'0:06.879',0.07
'0:06.883',0.06
'0:06.887',-0.23
'0:06.891',-0.28
'0:06.895',0.18
'0:06.898',0.71
'0:06.902',1.11
'0:06.906',1.24
'0:06.910',1.05
'0:06.914',0.9
'0:06.918',0.96
'0:06.922',1.42
'0:06.926',1.2
'0:06.930',0.33
'0:06.934',0.1
'0:06.938',0.08
'0:06.941',-0.68
'0:06.945',-1.41
'0:06.949',-2.04
'0:06.953',-2.36
'0:06.957',-2.36
'0:06.961',-2.32
'0:06.965',-2.21
'0:06.969',-2.05
'0:06.973',-2.34
'0:06.977',-2.65
'0:06.980',-2.8
'0:06.984',-2.87
'0:06.988',-2.92
'0:06.992',-2.88
'0:06.996',-2.6
'0:07.000',-1.62
'0:07.004',0.49
'0:07.008',3.39
'0:07.012',7.16
'0:07.016',10.73
'0:07.020',12.54
'0:07.023',11.96
'0:07.027',8.04
'0:07.031',2.32
'0:07.035',-3.21
'0:07.039',-7.2
'0:07.043',-9.27
'0:07.047',-9.88
'0:07.051',-9.21
'0:07.055',-7.91
'0:07.059',-6.33
'0:07.063',-4.99
'0:07.066',-3.87
'0:07.070',-3.06
'0:07.074',-2.73
'0:07.078',-2.5
'0:07.082',-2.12
'0:07.086',-1.75
'0:07.090',-1.41
'0:07.094',-1.05
'0:07.098',-0.71
'0:07.102',-0.46
'0:07.105',-0.1
'0:07.109',0.15
'0:07.113',0.44
'0:07.117',0.93
'0:07.121',1.15
'0:07.125',1.39
'0:07.129',1.78
'0:07.133',2.1
'0:07.137',2.42
'0:07.141',2.86
'0:07.145',3.29
'0:07.148',3.71
'0:07.152',3.92
'0:07.156',3.94
'0:07.160',3.73
'0:07.164',3.31
'0:07.168',2.88
'0:07.172',2.32
'0:07.176',1.59
'0:07.180',1.02
'0:07.184',0.59
'0:07.188',0.23
'0:07.191',0.2
'0:07.195',0.15
'0:07.199',-0.07
'0:07.203',-0.29
'0:07.207',-0.41
'0:07.211',-0.31
'0:07.215',-0.12
'0:07.219',0.15
'0:07.223',0.46
'0:07.227',0.63
'0:07.230',0.59
'0:07.234',0.41
'0:07.238',0.31
'0:07.242',0.29
'0:07.246',0.17
'0:07.250',0.01
'0:07.254',-0.33
'0:07.258',-0.8
'0:07.262',-1.41
'0:07.266',-2.07
'0:07.270',-2.62
'0:07.273',-2.92
'0:07.277',-3.16
'0:07.281',-3.28
'0:07.285',-3.43
'0:07.289',-3.51
'0:07.293',-3.43
'0:07.297',-3.12
'0:07.301',-2.85
'0:07.305',-2.67
'0:07.309',-2.55
'0:07.313',-2.65
'0:07.316',-2.97
'0:07.320',-3.31
'0:07.324',-3.52
'0:07.328',-3.33
'0:07.332',-2.4
'0:07.336',-0.17
'0:07.340',3.12
'0:07.344',6.95
'0:07.348',10.31
'0:07.352',11.55
'0:07.355',10.32
'0:07.359',6.58
'0:07.363',1.22
'0:07.367',-3.65
'0:07.371',-7.05
'0:07.375',-9.05
'0:07.379',-9.71
'0:07.383',-9.34
'0:07.387',-8.03
'0:07.391',-6.38
'0:07.395',-5.21
'0:07.398',-4.39
'0:07.402',-3.9
'0:07.406',-3.52
'0:07.410',-2.97
'0:07.414',-2.36
'0:07.418',-1.88
'0:07.422',-1.44
'0:07.426',-1.24
'0:07.430',-0.95
'0:07.434',-0.73
'0:07.438',-0.6
'0:07.441',-0.56
'0:07.445',-0.49
'0:07.449',-0.2
'0:07.453',0.2
'0:07.457',0.56
'0:07.461',1.1
'0:07.465',1.49
'0:07.469',1.59
'0:07.473',2.01
'0:07.477',2.32
'0:07.480',2.4
'0:07.484',2.47
'0:07.488',2.53
'0:07.492',2.42
'0:07.496',2.15
'0:07.500',1.74
'0:07.504',1.24
'0:07.508',0.78
'0:07.512',0.4
'0:07.516',0.12
'0:07.520',0.03
'0:07.523',-0.06
'0:07.527',-0.12
'0:07.531',-0.22
'0:07.535',-0.24
'0:07.539',-0.26
'0:07.543',-0.11
'0:07.547',0.18
'0:07.551',0.56
'0:07.555',0.95
'0:07.559',1.2
'0:07.563',1.25
'0:07.566',1.23
'0:07.570',1.25
'0:07.574',1.34
'0:07.578',1.32
'0:07.582',1.05
'0:07.586',0.76
'0:07.590',0.06
'0:07.594',-0.85
'0:07.598',-1.8
'0:07.602',-2.77
'0:07.605',-3.34
'0:07.609',-3.71
'0:07.613',-4.01
'0:07.617',-4.13
'0:07.621',-4.14
'0:07.625',-4.14
'0:07.629',-3.92
'0:07.633',-3.48
'0:07.637',-3.27
'0:07.641',-3.31
'0:07.645',-3.17
'0:07.648',-3.12
'0:07.652',-2.85
'0:07.656',-2.45
'0:07.660',-1.72
'0:07.664',-0.16
'0:07.668',2.32
'0:07.672',5.56
'0:07.676',9.4
'0:07.680',12
'0:07.684',12.08
'0:07.688',9.06
'0:07.691',4.05
'0:07.695',-1.16
'0:07.699',-4.86
'0:07.703',-7.15
'0:07.707',-7.81
'0:07.711',-7.66
'0:07.715',-6.96
'0:07.719',-5.86
'0:07.723',-4.46
'0:07.727',-3.55
'0:07.730',-3.1
'0:07.734',-2.65
'0:07.738',-2.13
'0:07.742',-1.7
'0:07.746',-1.58
'0:07.750',-1.57
'0:07.754',-1.19
'0:07.758',-0.6
'0:07.762',-0.18
'0:07.766',0.3
'0:07.770',0.64
'0:07.773',1
'0:07.777',1.59
'0:07.781',1.98
'0:07.785',2.13
'0:07.789',2.37
'0:07.793',2.54
'0:07.797',2.68
'0:07.801',2.95
'0:07.805',3.1
'0:07.809',3.15
'0:07.813',3.29
'0:07.816',3.26
'0:07.820',3.05
'0:07.824',2.64
'0:07.828',2.34
'0:07.832',2.05
'0:07.836',1.84
'0:07.840',1.63
'0:07.844',1.37
'0:07.848',1.05
'0:07.852',0.81
'0:07.855',0.69
'0:07.859',0.32
'0:07.863',-0.21
'0:07.867',-0.24
'0:07.871',0.37
'0:07.875',1.07
'0:07.879',1.62
'0:07.883',1.7
'0:07.887',1.34
'0:07.891',1.04
'0:07.895',1.18
'0:07.898',1.8
'0:07.902',2.37
'0:07.906',2.46
'0:07.910',2.1
'0:07.914',1.73
'0:07.918',1.49
'0:07.922',1.28
'0:07.926',1.05
'0:07.930',0.61
'0:07.934',-0.04
'0:07.938',-0.75
'0:07.941',-1.28
'0:07.945',-1.55
'0:07.949',-1.67
'0:07.953',-1.87
'0:07.957',-1.9
'0:07.961',-1.85
'0:07.965',-1.75
'0:07.969',-1.63
'0:07.973',-1.63
'0:07.977',-1.82
'0:07.980',-2.16
'0:07.984',-2.16
'0:07.988',-2.04
'0:07.992',-1.63
'0:07.996',-0.35
'0:08.000',2.1
'0:08.004',5.42
'0:08.008',9.09
'0:08.012',11.74
'0:08.016',11.96
'0:08.020',9.66
'0:08.023',5.11
'0:08.027',-0.19
'0:08.031',-4.28
'0:08.035',-6.62
'0:08.039',-7.72
'0:08.043',-7.74
'0:08.047',-6.87
'0:08.051',-5.4
'0:08.055',-3.92
'0:08.059',-2.8
'0:08.063',-2.02
'0:08.066',-1.46
'0:08.070',-0.95
'0:08.074',-0.58
'0:08.078',-0.15
'0:08.082',0.05
'0:08.086',0.07
'0:08.090',0.23
'0:08.094',0.49
'0:08.098',0.9
'0:08.102',1.22
'0:08.105',1.32
'0:08.109',1.28
'0:08.113',1.51
'0:08.117',1.93
'0:08.121',2.32
'0:08.125',2.86
'0:08.129',3.34
'0:08.133',3.61
'0:08.137',3.68
'0:08.141',3.65
'0:08.145',3.64
'0:08.148',3.56
'0:08.152',3.28
'0:08.156',2.86
'0:08.160',2.5
'0:08.164',2.2
'0:08.168',2.03
'0:08.172',1.81
'0:08.176',1.49
'0:08.180',0.98
'0:08.184',0.42
'0:08.188',0.2
'0:08.191',0.25
'0:08.195',0.18
'0:08.199',0.13
'0:08.203',0.23
'0:08.207',0.64
'0:08.211',0.91
'0:08.215',1.03
'0:08.219',1
'0:08.223',1.04
'0:08.227',1.15
'0:08.230',1.22
'0:08.234',1.36
'0:08.238',1.08
'0:08.242',0.68
'0:08.246',0.39
'0:08.250',0.1
'0:08.254',-0.04
'0:08.258',-0.19
'0:08.262',-0.46
'0:08.266',-0.87
'0:08.270',-1.32
'0:08.273',-1.73
'0:08.277',-2.28
'0:08.281',-2.67
'0:08.285',-2.81
'0:08.289',-2.82
'0:08.293',-2.94
'0:08.297',-2.92
'0:08.301',-2.84
'0:08.305',-3.05
'0:08.309',-3.53
'0:08.313',-4.05
'0:08.316',-4.03
'0:08.320',-3.11
'0:08.324',-1.73
'0:08.328',0.84
'0:08.332',4.19
'0:08.336',8.22
'0:08.340',11.42
'0:08.344',12.25
'0:08.348',10.15
'0:08.352',5.4
'0:08.355',-0.44
'0:08.359',-5.09
'0:08.363',-7.93
'0:08.367',-9.1
'0:08.371',-8.8
'0:08.375',-7.32
'0:08.379',-5.76
'0:08.383',-4.26
'0:08.387',-3.09
'0:08.391',-2.32
'0:08.395',-1.92
'0:08.398',-1.92
'0:08.402',-1.94
'0:08.406',-1.92
'0:08.410',-1.65
'0:08.414',-0.95
'0:08.418',-0.6
'0:08.422',-0.68
'0:08.426',-0.52
'0:08.430',-0.49
'0:08.434',-1.13
'0:08.438',-1.33
'0:08.441',-0.89
'0:08.445',-0.26
'0:08.449',0.44
'0:08.453',0.98
'0:08.457',1.36
'0:08.461',1.73
'0:08.465',2.37
'0:08.469',2.74
'0:08.473',3.12
'0:08.477',3.45
'0:08.480',3.73
'0:08.484',3.66
'0:08.488',2.84
'0:08.492',2.32
'0:08.496',2.46
'0:08.500',2.03
'0:08.504',1.26
'0:08.508',0.46
'0:08.512',0.03
'0:08.516',-0.31
'0:08.520',-0.36
'0:08.523',-0.18
'0:08.527',0.1
'0:08.531',0.47
'0:08.535',0.56
'0:08.539',0.45
'0:08.543',0.81
'0:08.547',1.25
'0:08.551',1.58
'0:08.555',1.71
'0:08.559',1.64
'0:08.563',1.51
'0:08.566',1.75
'0:08.570',1.73
'0:08.574',1.27
'0:08.578',0.8
'0:08.582',0.52
'0:08.586',0.46
'0:08.590',-0.14
'0:08.594',-1.29
'0:08.598',-2.05
'0:08.602',-2.26
'0:08.605',-2.24
'0:08.609',-2.24
'0:08.613',-2.29
'0:08.617',-2.54
'0:08.621',-2.81
'0:08.625',-2.87
'0:08.629',-2.63
'0:08.633',-2.33
'0:08.637',-2.13
'0:08.641',-2.12
'0:08.645',-2.32
'0:08.648',-2.53
'0:08.652',-2.18
'0:08.656',-0.6
'0:08.660',2.36
'0:08.664',6.13
'0:08.668',10.05
'0:08.672',12.41
'0:08.676',12.16
'0:08.680',9.18
'0:08.684',3.96
'0:08.688',-1.61
'0:08.691',-5.77
'0:08.695',-8.35
'0:08.699',-9.24
'0:08.703',-8.76
'0:08.707',-7.37
'0:08.711',-5.86
'0:08.715',-4.48
'0:08.719',-3.38
'0:08.723',-2.5
'0:08.727',-1.92
'0:08.730',-1.6
'0:08.734',-1.38
'0:08.738',-1.15
'0:08.742',-0.87
'0:08.746',-0.48
'0:08.750',-0.29
'0:08.754',-0.31
'0:08.758',-0.25
'0:08.762',-0.21
'0:08.766',-0.3
'0:08.770',-0.18
'0:08.773',0.15
'0:08.777',0.58
'0:08.781',1.13
'0:08.785',1.73
'0:08.789',2.31
'0:08.793',2.87
'0:08.797',3.17
'0:08.801',3.36
'0:08.805',3.56
'0:08.809',3.63
'0:08.813',3.49
'0:08.816',3.22
'0:08.820',2.98
'0:08.824',2.56
'0:08.828',2.12
'0:08.832',1.68
'0:08.836',1.29
'0:08.840',0.9
'0:08.844',0.32
'0:08.848',-0.13
'0:08.852',-0.31
'0:08.855',-0.36
'0:08.859',-0.27
'0:08.863',-0.19
'0:08.867',-0.24
'0:08.871',-0.29
'0:08.875',-0.12
'0:08.879',0.21
'0:08.883',0.52
'0:08.887',0.78
'0:08.891',1.08
'0:08.895',1.27
'0:08.898',1.1
'0:08.902',0.91
'0:08.906',0.77
'0:08.910',0.47
'0:08.914',0.03
'0:08.918',-0.44
'0:08.922',-0.92
'0:08.926',-1.34
'0:08.930',-1.78
'0:08.934',-2.14
'0:08.938',-2.45
'0:08.941',-2.72
'0:08.945',-2.89
'0:08.949',-2.9
'0:08.953',-2.85
'0:08.957',-2.87
'0:08.961',-2.97
'0:08.965',-3.22
'0:08.969',-3.51
'0:08.973',-3.79
'0:08.977',-4
'0:08.980',-3.91
'0:08.984',-3.23
'0:08.988',-1.39
'0:08.992',1.62
'0:08.996',5.26
'0:09.000',8.38
'0:09.004',9.82
'0:09.008',9
'0:09.012',5.73
'0:09.016',0.72
'0:09.020',-3.91
'0:09.023',-7.42
'0:09.027',-9.49
'0:09.031',-9.96
'0:09.035',-9.3
'0:09.039',-7.87
'0:09.043',-6.19
'0:09.047',-4.74
'0:09.051',-3.61
'0:09.055',-3.1
'0:09.059',-2.94
'0:09.063',-2.56
'0:09.066',-2.17
'0:09.070',-1.67
'0:09.074',-1.27
'0:09.078',-1.02
'0:09.082',-0.88
'0:09.086',-0.63
'0:09.090',-0.34
'0:09.094',-0.07
'0:09.098',0.01
'0:09.102',0.13
'0:09.105',0.25
'0:09.109',0.34
'0:09.113',0.62
'0:09.117',1.13
'0:09.121',1.57
'0:09.125',1.85
'0:09.129',2.13
'0:09.133',2.4
'0:09.137',2.58
'0:09.141',2.54
'0:09.145',2.44
'0:09.148',2.26
'0:09.152',1.88
'0:09.156',1.51
'0:09.160',1.3
'0:09.164',1.2
'0:09.168',1.01
'0:09.172',0.76
'0:09.176',0.51
'0:09.180',0.32
'0:09.184',0.22
'0:09.188',0.21
'0:09.191',0.33
'0:09.195',0.56
'0:09.199',0.9
'0:09.203',1.05
'0:09.207',1.06
'0:09.211',1.24
'0:09.215',0.8
'0:09.219',0.17
'0:09.223',-0.38
'0:09.227',-0.46
'0:09.230',-0.78
'0:09.234',-1.14
'0:09.238',-1.17
'0:09.242',-1.11
'0:09.246',-1.38
'0:09.250',-1.93
'0:09.254',-2.4
'0:09.258',-2.85
'0:09.262',-3.02
'0:09.266',-2.67
'0:09.270',-2.21
'0:09.273',-1.87
'0:09.277',-1.8
'0:09.281',-1.85
'0:09.285',-1.72
'0:09.289',-1.5
'0:09.293',-2.1
'0:09.297',-2.75
'0:09.301',-2.99
'0:09.305',-2.68
'0:09.309',-2.22
'0:09.313',-1.18
'0:09.316',0.36
'0:09.320',2.8
'0:09.324',6.16
'0:09.328',10.05
'0:09.332',13.34
'0:09.336',13.19
'0:09.340',10.01
'0:09.344',4.81
'0:09.348',-0.71
'0:09.352',-4.85
'0:09.355',-7.24
'0:09.359',-8.25
'0:09.363',-8.4
'0:09.367',-7.39
'0:09.371',-5.62
'0:09.375',-3.87
'0:09.379',-2.42
'0:09.383',-1.58
'0:09.387',-1.49
'0:09.391',-1.41
'0:09.395',-1.19
'0:09.398',-0.9
'0:09.402',-0.34
'0:09.406',0.25
'0:09.410',0.44
'0:09.414',0.25
'0:09.418',-0.04
'0:09.422',-0.39
'0:09.426',-0.53
'0:09.430',-0.26
'0:09.434',0.4
'0:09.438',1.02
'0:09.441',1.34
'0:09.445',1.18
'0:09.449',1.06
'0:09.453',1.34
'0:09.457',1.74
'0:09.461',2.13
'0:09.465',2.56
'0:09.469',3
'0:09.473',3.29
'0:09.477',3.27
'0:09.480',3.07
'0:09.484',2.76
'0:09.488',2.13
'0:09.492',1.46
'0:09.496',1.26
'0:09.500',1.15
'0:09.504',0.88
'0:09.508',0.63
'0:09.512',0.54
'0:09.516',0.66
'0:09.520',0.93
'0:09.523',1.17
'0:09.527',1.12
'0:09.531',0.81
'0:09.535',0.66
'0:09.539',1.03
'0:09.543',1.5
'0:09.547',1.86
'0:09.551',2.05
'0:09.555',2.25
'0:09.559',2.27
'0:09.563',2.11
'0:09.566',1.59
'0:09.570',1.19
'0:09.574',0.94
'0:09.578',0.64
'0:09.582',0.13
'0:09.586',-0.29
'0:09.590',-0.85
'0:09.594',-1.49
'0:09.598',-2.04
'0:09.602',-2.12
'0:09.605',-1.73
'0:09.609',-1.63
'0:09.613',-1.34
'0:09.617',-1.56
'0:09.621',-2.08
'0:09.625',-2.53
'0:09.629',-2.82
'0:09.633',-3.16
'0:09.637',-3.56
'0:09.641',-3.69
'0:09.645',-2.84
'0:09.648',-0.72
'0:09.652',2.38
'0:09.656',6.25
'0:09.660',10.12
'0:09.664',12.13
'0:09.668',11.73
'0:09.672',8.85
'0:09.676',3.68
'0:09.680',-1.44
'0:09.684',-4.83
'0:09.688',-6.6
'0:09.691',-7.43
'0:09.695',-7.32
'0:09.699',-6.43
'0:09.703',-5.13
'0:09.707',-3.89
'0:09.711',-3.04
'0:09.715',-2.4
'0:09.719',-1.9
'0:09.723',-1.46
'0:09.727',-0.97
'0:09.730',-0.48
'0:09.734',0.1
'0:09.738',0.35
'0:09.742',0.15
'0:09.746',0.11
'0:09.750',0.33
'0:09.754',0.5
'0:09.758',0.61
'0:09.762',0.81
'0:09.766',1.13
'0:09.770',1.57
'0:09.773',1.93
'0:09.777',2.32
'0:09.781',2.53
'0:09.785',2.47
'0:09.789',2.37
'0:09.793',2.52
'0:09.797',2.87
'0:09.801',3
'0:09.805',3
'0:09.809',2.83
'0:09.813',2.71
'0:09.816',2.61
'0:09.820',2.17
'0:09.824',1.53
'0:09.828',0.98
'0:09.832',0.56
'0:09.836',0.54
'0:09.840',0.44
'0:09.844',0.3
'0:09.848',0.2
'0:09.852',0.22
'0:09.855',0.2
'0:09.859',0.03
'0:09.863',-0.14
'0:09.867',-0.23
'0:09.871',0
'0:09.875',0.32
'0:09.879',0.47
'0:09.883',0.41
'0:09.887',0.32
'0:09.891',0.18
'0:09.895',0.21
'0:09.898',0.25
'0:09.902',0.03
'0:09.906',-0.42
'0:09.910',-1.02
'0:09.914',-1.63
'0:09.918',-2.24
'0:09.922',-2.8
'0:09.926',-2.92
'0:09.930',-2.88
'0:09.934',-3.17
'0:09.938',-3.31
'0:09.941',-3.46
'0:09.945',-3.21
'0:09.949',-2.77
'0:09.953',-2.61
'0:09.957',-2.95
'0:09.961',-3.4
'0:09.965',-3.68
'0:09.969',-3.64
'0:09.973',-2.96
'0:09.977',-1.41
'0:09.980',1.22
'0:09.984',5.18
'0:09.988',9.57
'0:09.992',12.41
'0:09.996',13.19
'0:10.000',11.2
'0:10.004',6.17
'0:10.008',-0.19
'0:10.012',-5.37
'0:10.016',-8.42
'0:10.020',-9.62
'0:10.023',-9.7
'0:10.027',-8.34
'0:10.031',-6.33
'0:10.035',-4.83
'0:10.039',-4.26
'0:10.043',-3.76
'0:10.047',-2.92
'0:10.051',-2.41
'0:10.055',-2.21
'0:10.059',-1.86
'0:10.063',-1.06
'0:10.066',-0.12
'0:10.070',0.08
'0:10.074',-0.09
'0:10.078',-0.07
'0:10.082',-0.6
'0:10.086',-0.36
'0:10.090',0.35
'0:10.094',1.4
'0:10.098',2.19
'0:10.102',2.44
'0:10.105',2.75
'0:10.109',3.19
'0:10.113',3.64
'0:10.117',4.3
'0:10.121',4.61
'0:10.125',4.83
'0:10.129',4.92
'0:10.133',4.84
'0:10.137',4.39
'0:10.141',4.17
'0:10.145',4.12
'0:10.148',3.53
'0:10.152',2.69
'0:10.156',2.27
'0:10.160',2.14
'0:10.164',1.83
'0:10.168',1.34
'0:10.172',0.91
'0:10.176',0.79
'0:10.180',0.75
'0:10.184',0.64
'0:10.188',0.58
'0:10.191',0.53
'0:10.195',0.78
'0:10.199',1.07
'0:10.203',1.19
'0:10.207',1.37
'0:10.211',1.39
'0:10.215',1.38
'0:10.219',1.15
'0:10.223',0.68
'0:10.227',0.15
'0:10.230',-0.01
'0:10.234',-0.14
'0:10.238',-0.3
'0:10.242',-0.7
'0:10.246',-1.44
'0:10.250',-2.21
'0:10.254',-2.48
'0:10.258',-2.54
'0:10.262',-2.73
'0:10.266',-3.04
'0:10.270',-3.35
'0:10.273',-3.28
'0:10.277',-2.97
'0:10.281',-2.77
'0:10.285',-2.77
'0:10.289',-2.92
'0:10.293',-3.22
'0:10.297',-3.6
'0:10.301',-3.4
'0:10.305',-2.13
'0:10.309',0.12
'0:10.313',3.4
'0:10.316',7.3
'0:10.320',11.02
'0:10.324',12.88
'0:10.328',11.99
'0:10.332',8.3
'0:10.336',2.6
'0:10.340',-2.84
'0:10.344',-6.44
'0:10.348',-8.14
'0:10.352',-8.65
'0:10.355',-7.9
'0:10.359',-6.39
'0:10.363',-4.82
'0:10.367',-3.69
'0:10.371',-2.86
'0:10.375',-2.36
'0:10.379',-2.32
'0:10.383',-2.41
'0:10.387',-2.29
'0:10.391',-2.27
'0:10.395',-2.17
'0:10.398',-1.92
'0:10.402',-1.35
'0:10.406',-0.84
'0:10.410',-0.41
'0:10.414',0.03
'0:10.418',0.45
'0:10.422',0.83
'0:10.426',1.13
'0:10.430',1.55
'0:10.434',2.11
'0:10.438',2.44
'0:10.441',2.56
'0:10.445',2.65
'0:10.449',2.76
'0:10.453',2.81
'0:10.457',2.73
'0:10.461',2.63
'0:10.465',2.44
'0:10.469',2.37
'0:10.473',2.14
'0:10.477',1.87
'0:10.480',1.49
'0:10.484',1.14
'0:10.488',0.78
'0:10.492',0.38
'0:10.496',0.18
'0:10.500',0.25
'0:10.504',0.31
'0:10.508',0.33
'0:10.512',0.39
'0:10.516',0.23
'0:10.520',0.14
'0:10.523',0.64
'0:10.527',0.76
'0:10.531',0.51
'0:10.535',0.41
'0:10.539',0.61
'0:10.543',0.79
'0:10.547',0.82
'0:10.551',0.71
'0:10.555',0.66
'0:10.559',0.53
'0:10.563',0.05
'0:10.566',-0.61
'0:10.570',-1.32
'0:10.574',-1.97
'0:10.578',-2.59
'0:10.582',-2.89
'0:10.586',-3.05
'0:10.590',-3.18
'0:10.594',-3.16
'0:10.598',-3.2
'0:10.602',-3.26
'0:10.605',-3.32
'0:10.609',-3.43
'0:10.613',-3.35
'0:10.617',-3.32
'0:10.621',-3.5
'0:10.625',-3.77
'0:10.629',-3.67
'0:10.633',-2.91
'0:10.637',-1.22
'0:10.641',1.48
'0:10.645',5.05
'0:10.648',8.78
'0:10.652',10.79
'0:10.656',10.31
'0:10.660',7.41
'0:10.664',2.62
'0:10.668',-2.31
'0:10.672',-5.94
'0:10.676',-8.43
'0:10.680',-9.55
'0:10.684',-9.39
'0:10.688',-8.29
'0:10.691',-6.81
'0:10.695',-5.38
'0:10.699',-4.17
'0:10.703',-3.23
'0:10.707',-2.55
'0:10.711',-2.12
'0:10.715',-1.94
'0:10.719',-1.72
'0:10.723',-1.35
'0:10.727',-0.8
'0:10.730',-0.29
'0:10.734',-0.05
'0:10.738',-0.12
'0:10.742',-0.24
'0:10.746',-0.36
'0:10.750',-0.14
'0:10.754',0.08
'0:10.758',0.33
'0:10.762',0.86
'0:10.766',1.4
'0:10.770',1.69
'0:10.773',2.01
'0:10.777',2.42
'0:10.781',2.72
'0:10.785',3.17
'0:10.789',3.12
'0:10.793',2.94
'0:10.797',2.81
'0:10.801',2.48
'0:10.805',1.81
'0:10.809',1.15
'0:10.813',0.54
'0:10.816',-0.07
'0:10.820',-0.41
'0:10.824',-0.48
'0:10.828',-0.33
'0:10.832',-0.07
'0:10.836',-0.31
'0:10.840',-0.19
'0:10.844',-0.3
'0:10.848',-0.54
'0:10.852',-0.82
'0:10.855',-0.6
'0:10.859',-0.38
'0:10.863',-0.38
'0:10.867',-0.11
'0:10.871',0.18
'0:10.875',0.66
'0:10.879',0.97
'0:10.883',1.06
'0:10.887',1.54
'0:10.891',1.8
'0:10.895',1.11
'0:10.898',0.1
'0:10.902',-0.46
'0:10.906',-0.98
'0:10.910',-1.83
'0:10.914',-2.11
'0:10.918',-1.92
'0:10.922',-2.01
'0:10.926',-1.95
'0:10.930',-1.8
'0:10.934',-2.14
'0:10.938',-2.38
'0:10.941',-2.22
'0:10.945',-1.92
'0:10.949',-1.79
'0:10.953',-1.75
'0:10.957',-1.75
'0:10.961',-1.41
'0:10.965',-0.19
'0:10.969',2.19
'0:10.973',5.51
'0:10.977',9.29
'0:10.980',12.42
'0:10.984',13.55
'0:10.988',11.66
'0:10.992',7.28
'0:10.996',1.7
'0:11.000',-2.89
'0:11.004',-5.9
'0:11.008',-7.54
'0:11.012',-8.01
'0:11.016',-7.29
'0:11.020',-5.49
'0:11.023',-4.31
'0:11.027',-3.57
'0:11.031',-2.92
'0:11.035',-2.5
'0:11.039',-2.43
'0:11.043',-2.28
'0:11.047',-1.93
'0:11.051',-1.28
'0:11.055',-0.73
'0:11.059',-0.4
'0:11.063',-0.44
'0:11.066',-0.46
'0:11.070',-0.31
'0:11.074',-0.13
'0:11.078',0.29
'0:11.082',0.56
'0:11.086',0.76
'0:11.090',1.22
'0:11.094',1.83
'0:11.098',2.3
'0:11.102',2.68
'0:11.105',2.85
'0:11.109',2.96
'0:11.113',3.34
'0:11.117',3.68
'0:11.121',3.61
'0:11.125',3.37
'0:11.129',3.32
'0:11.133',3.24
'0:11.137',3.05
'0:11.141',2.73
'0:11.145',2.35
'0:11.148',1.87
'0:11.152',1.5
'0:11.156',1.3
'0:11.160',1.04
'0:11.164',0.81
'0:11.168',0.56
'0:11.172',0.25
'0:11.176',0.04
'0:11.180',-0.01
'0:11.184',0.26
'0:11.188',0.83
'0:11.191',1.05
'0:11.195',1.19
'0:11.199',1.45
'0:11.203',1.64
'0:11.207',1.78
'0:11.211',1.58
'0:11.215',1.32
'0:11.219',1.29
'0:11.223',0.92
'0:11.227',0.47
'0:11.230',-0.1
'0:11.234',-0.68
'0:11.238',-0.92
'0:11.242',-0.99
'0:11.246',-0.99
'0:11.250',-1.09
'0:11.254',-1.39
'0:11.258',-1.78
'0:11.262',-1.97
'0:11.266',-1.9
'0:11.270',-1.7
'0:11.273',-1.66
'0:11.277',-1.8
'0:11.281',-2.05
'0:11.285',-2.38
'0:11.289',-2.45
'0:11.293',-1.86
'0:11.297',-0.27
'0:11.301',1.85
'0:11.305',4.85
'0:11.309',8.51
'0:11.313',11.09
'0:11.316',11.42
'0:11.320',9.3
'0:11.324',5.06
'0:11.328',0.22
'0:11.332',-3.67
'0:11.336',-6.16
'0:11.340',-7.28
'0:11.344',-7.4
'0:11.348',-6.68
'0:11.352',-5.82
'0:11.355',-5.15
'0:11.359',-4.08
'0:11.363',-2.76
'0:11.367',-1.84
'0:11.371',-1.28
'0:11.375',-0.97
'0:11.379',-0.75
'0:11.383',-0.55
'0:11.387',-0.38
'0:11.391',-0.22
'0:11.395',0.12
'0:11.398',0.37
'0:11.402',0.3
'0:11.406',0.49
'0:11.410',0.88
'0:11.414',1.16
'0:11.418',1.37
'0:11.422',1.56
'0:11.426',1.91
'0:11.430',2.25
'0:11.434',2.47
'0:11.438',2.61
'0:11.441',2.71
'0:11.445',2.85
'0:11.449',2.98
'0:11.453',3.17
'0:11.457',3.22
'0:11.461',2.99
'0:11.465',2.56
'0:11.469',2.15
'0:11.473',1.56
'0:11.477',0.83
'0:11.480',0.29
'0:11.484',-0.26
'0:11.488',-0.7
'0:11.492',-0.87
'0:11.496',-0.68
'0:11.500',-0.48
'0:11.504',-0.36
'0:11.508',-0.41
'0:11.512',-0.48
'0:11.516',-0.56
'0:11.520',-0.46
'0:11.523',-0.23
'0:11.527',0.13
'0:11.531',0.51
'0:11.535',0.69
'0:11.539',0.64
'0:11.543',0.33
'0:11.547',-0.17
'0:11.551',-0.68
'0:11.555',-1.34
'0:11.559',-2.13
'0:11.563',-2.58
'0:11.566',-2.66
'0:11.570',-2.65
'0:11.574',-2.87
'0:11.578',-2.82
'0:11.582',-2.6
'0:11.586',-2.24
'0:11.590',-1.79
'0:11.594',-1.58
'0:11.598',-1.85
'0:11.602',-2.17
'0:11.605',-2.27
'0:11.609',-2.62
'0:11.613',-3.09
'0:11.617',-3.41
'0:11.621',-3.58
'0:11.625',-2.95
'0:11.629',-0.55
'0:11.633',3.19
'0:11.637',7.47
'0:11.641',10.88
'0:11.645',11.92
'0:11.648',9.57
'0:11.652',4.06
'0:11.656',-2.3
'0:11.660',-6.87
'0:11.664',-9.23
'0:11.668',-9.92
'0:11.672',-10.08
'0:11.676',-9.75
'0:11.680',-8.45
'0:11.684',-6.65
'0:11.688',-5.18
'0:11.691',-4.12
'0:11.695',-3.5
'0:11.699',-3.21
'0:11.703',-2.74
'0:11.707',-1.89
'0:11.711',-1.48
'0:11.715',-1.21
'0:11.719',-0.77
'0:11.723',-0.04
'0:11.727',1
'0:11.730',1.54
'0:11.734',1.7
'0:11.738',1.45
'0:11.742',1.42
'0:11.746',1.64
'0:11.750',1.91
'0:11.754',2.31
'0:11.758',2.66
'0:11.762',3.07
'0:11.766',3.46
'0:11.770',3.65
'0:11.773',3.68
'0:11.777',3.76
'0:11.781',3.92
'0:11.785',3.88
'0:11.789',3.66
'0:11.793',3.49
'0:11.797',3.15
'0:11.801',2.55
'0:11.805',2.1
'0:11.809',1.56
'0:11.813',0.99
'0:11.816',0.35
'0:11.820',-0.12
'0:11.824',-0.3
'0:11.828',-0.36
'0:11.832',-0.48
'0:11.836',-0.49
'0:11.840',-0.38
'0:11.844',-0.09
'0:11.848',0.23
'0:11.852',0.54
'0:11.855',0.69
'0:11.859',0.66
'0:11.863',0.65
'0:11.867',0.64
'0:11.871',0.49
'0:11.875',0.34
'0:11.879',0.12
'0:11.883',-0.29
'0:11.887',-0.8
'0:11.891',-1.29
'0:11.895',-1.72
'0:11.898',-2.14
'0:11.902',-2.33
'0:11.906',-2.34
'0:11.910',-2.31
'0:11.914',-2.48
'0:11.918',-2.85
'0:11.922',-2.97
'0:11.926',-2.99
'0:11.930',-2.8
'0:11.934',-2.53
'0:11.938',-2.66
'0:11.941',-2.96
'0:11.945',-3.21
'0:11.949',-3.33
'0:11.953',-2.78
'0:11.957',-0.94
'0:11.961',2.33
'0:11.965',6.52
'0:11.969',10.52
'0:11.973',12.37
'0:11.977',11.67
'0:11.980',8.39
'0:11.984',2.83
'0:11.988',-2.71
'0:11.992',-6.89
'0:11.996',-9.36
'0:12.000',-10.11
'0:12.004',-9.48
'0:12.008',-8.02
'0:12.012',-6.2
'0:12.016',-4.62
'0:12.020',-3.5
'0:12.023',-2.87
'0:12.027',-2.6
'0:12.031',-2.4
'0:12.035',-1.97
'0:12.039',-1.58
'0:12.043',-1.11
'0:12.047',-0.64
'0:12.051',-0.43
'0:12.055',-0.36
'0:12.059',-0.28
'0:12.063',0
'0:12.066',0.33
'0:12.070',0.64
'0:12.074',1.03
'0:12.078',1.44
'0:12.082',1.67
'0:12.086',1.97
'0:12.090',2.15
'0:12.094',2.15
'0:12.098',2.46
'0:12.102',2.93
'0:12.105',3.2
'0:12.109',3.32
'0:12.113',3.31
'0:12.117',3.1
'0:12.121',2.78
'0:12.125',2.59
'0:12.129',2.25
'0:12.133',1.71
'0:12.137',1.22
'0:12.141',0.76
'0:12.145',0.34
'0:12.148',0.15
'0:12.152',-0.02
'0:12.156',-0.22
'0:12.160',-0.36
'0:12.164',-0.48
'0:12.168',-0.58
'0:12.172',-0.56
'0:12.176',-0.46
'0:12.180',-0.14
'0:12.184',0.17
'0:12.188',0.24
'0:12.191',0.32
'0:12.195',0.35
'0:12.199',0.17
'0:12.203',-0.12
'0:12.207',-0.36
'0:12.211',-0.55
'0:12.215',-0.9
'0:12.219',-1.37
'0:12.223',-2.02
'0:12.227',-2.7
'0:12.230',-2.93
'0:12.234',-3.02
'0:12.238',-3.04
'0:12.242',-3.05
'0:12.246',-3.19
'0:12.250',-3.22
'0:12.254',-3.02
'0:12.258',-2.97
'0:12.262',-2.89
'0:12.266',-2.75
'0:12.270',-2.83
'0:12.273',-3.12
'0:12.277',-3.27
'0:12.281',-2.57
'0:12.285',-0.96
'0:12.289',1.77
'0:12.293',5.47
'0:12.297',9.21
'0:12.301',11.3
'0:12.305',10.82
'0:12.309',7.68
'0:12.313',2.54
'0:12.316',-2.46
'0:12.320',-6.13
'0:12.324',-8.26
'0:12.328',-8.84
'0:12.332',-8.47
'0:12.336',-7.27
'0:12.340',-5.81
'0:12.344',-4.45
'0:12.348',-3.34
'0:12.352',-2.41
'0:12.355',-1.95
'0:12.359',-1.7
'0:12.363',-1.55
'0:12.367',-1.19
'0:12.371',-0.55
'0:12.375',-0.05
'0:12.379',-0.15
'0:12.383',-0.39
'0:12.387',-0.28
'0:12.391',-0.02
'0:12.395',0.17
'0:12.398',0.25
'0:12.402',0.34
'0:12.406',0.15
'0:12.410',-0.15
'0:12.414',0.09
'0:12.418',0.52
'0:12.422',0.86
'0:12.426',1.41
'0:12.430',1.32
'0:12.434',1.1
'0:12.438',1.62
'0:12.441',2.15
'0:12.445',2.46
'0:12.449',1.93
'0:12.453',1.44
'0:12.457',1.2
'0:12.461',0.95
'0:12.465',0.95
'0:12.469',0.95
'0:12.473',1.12
'0:12.477',0.79
'0:12.480',0.52
'0:12.484',0.57
'0:12.488',1.05
'0:12.492',1.53
'0:12.496',0.94
'0:12.500',0.86
'0:12.504',1.15
'0:12.508',1.23
'0:12.512',1.57
'0:12.516',1.64
'0:12.520',1.79
'0:12.523',1.86
'0:12.527',1.75
'0:12.531',1.64
'0:12.535',1.63
'0:12.539',1.49
'0:12.543',1.39
'0:12.547',1.14
'0:12.551',0.82
'0:12.555',0.41
'0:12.559',-0.1
'0:12.563',-0.76
'0:12.566',-1.17
'0:12.570',-1.29
'0:12.574',-1.12
'0:12.578',-0.68
'0:12.582',-0.55
'0:12.586',-0.55
'0:12.590',-0.78
'0:12.594',-1.14
'0:12.598',-1.21
'0:12.602',-1.34
'0:12.605',-1.5
'0:12.609',-1.03
'0:12.613',0.29
'0:12.617',2.42
'0:12.621',5.57
'0:12.625',9.31
'0:12.629',12.14
'0:12.633',12.58
'0:12.637',9.84
'0:12.641',5.09
'0:12.645',-0.18
'0:12.648',-4.06
'0:12.652',-6.61
'0:12.656',-8.06
'0:12.660',-8.2
'0:12.664',-7.04
'0:12.668',-5.44
'0:12.672',-4
'0:12.676',-3.03
'0:12.680',-2.45
'0:12.684',-2.05
'0:12.688',-1.73
'0:12.691',-1.4
'0:12.695',-0.94
'0:12.699',-0.41
'0:12.703',-0.11
'0:12.707',0.08
'0:12.711',0.82
'0:12.715',1.23
'0:12.719',0.63
'0:12.723',0.13
'0:12.727',-0.02
'0:12.730',0.23
'0:12.734',0.72
'0:12.738',1.21
'0:12.742',1.37
'0:12.746',1.69
'0:12.750',2.23
'0:12.754',2.99
'0:12.758',3.81
'0:12.762',4.17
'0:12.766',4.17
'0:12.770',3.97
'0:12.773',3.55
'0:12.777',3
'0:12.781',2.74
'0:12.785',2.63
'0:12.789',2.26
'0:12.793',1.83
'0:12.797',1.53
'0:12.801',1.08
'0:12.805',0.73
'0:12.809',0.64
'0:12.813',0.42
'0:12.816',0.11
'0:12.820',0.03
'0:12.824',0.11
'0:12.828',0.45
'0:12.832',0.72
'0:12.836',1.06
'0:12.840',1.4
'0:12.844',1.74
'0:12.848',2.22
'0:12.852',2.51
'0:12.855',2.53
'0:12.859',2.08
'0:12.863',1.85
'0:12.867',1.75
'0:12.871',1.42
'0:12.875',0.92
'0:12.879',0.21
'0:12.883',-0.51
'0:12.887',-0.92
'0:12.891',-1.05
'0:12.895',-1.32
'0:12.898',-1.73
'0:12.902',-2.09
'0:12.906',-2.08
'0:12.910',-1.7
'0:12.914',-1.4
'0:12.918',-1.31
'0:12.922',-1.46
'0:12.926',-1.77
'0:12.930',-2.19
'0:12.934',-2.44
'0:12.938',-2.3
'0:12.941',-1.41
'0:12.945',0.74
'0:12.949',3.74
'0:12.953',7.34
'0:12.957',10.48
'0:12.961',11.86
'0:12.965',10.97
'0:12.969',7.58
'0:12.973',2.32
'0:12.977',-2.49
'0:12.980',-5.66
'0:12.984',-7.54
'0:12.988',-8.31
'0:12.992',-7.85
'0:12.996',-6.81
'0:13.000',-5.47
'0:13.004',-4.2
'0:13.008',-3.52
'0:13.012',-3.12
'0:13.016',-2.6
'0:13.020',-2.19
'0:13.023',-1.65
'0:13.027',-1.06
'0:13.031',-0.49
'0:13.035',-0.16
'0:13.039',-0.1
'0:13.043',-0.32
'0:13.047',-0.38
'0:13.051',-0.26
'0:13.055',0.11
'0:13.059',0.51
'0:13.063',0.74
'0:13.066',0.99
'0:13.070',1.3
'0:13.074',1.76
'0:13.078',2.2
'0:13.082',2.49
'0:13.086',2.89
'0:13.090',3.36
'0:13.094',3.36
'0:13.098',3.02
'0:13.102',2.46
'0:13.105',1.92
'0:13.109',1.68
'0:13.113',1.56
'0:13.117',1.34
'0:13.121',0.88
'0:13.125',0.5
'0:13.129',0.17
'0:13.133',-0.27
'0:13.137',-0.83
'0:13.141',-1.12
'0:13.145',-0.91
'0:13.148',-0.65
'0:13.152',-0.5
'0:13.156',-0.36
'0:13.160',-0.19
'0:13.164',0.01
'0:13.168',0.6
'0:13.172',0.99
'0:13.176',0.99
'0:13.180',0.57
'0:13.184',0.33
'0:13.188',0.4
'0:13.191',0.66
'0:13.195',0.46
'0:13.199',-0.27
'0:13.203',-1.19
'0:13.207',-2.07
'0:13.211',-2.46
'0:13.215',-2.57
'0:13.219',-2.98
'0:13.223',-3.53
'0:13.227',-4.26
'0:13.230',-4.48
'0:13.234',-4.15
'0:13.238',-3.45
'0:13.242',-3.14
'0:13.246',-3.02
'0:13.250',-2.92
'0:13.254',-3.39
'0:13.258',-3.95
'0:13.262',-4
'0:13.266',-3.45
'0:13.270',-2.07
'0:13.273',0.28
'0:13.277',3.93
'0:13.281',8.82
'0:13.285',12.55
'0:13.289',13.83
'0:13.293',12.34
'0:13.297',7.97
'0:13.301',1.67
'0:13.305',-3.71
'0:13.309',-7.01
'0:13.313',-8.78
'0:13.316',-9.25
'0:13.320',-8.29
'0:13.324',-6.49
'0:13.328',-4.97
'0:13.332',-3.92
'0:13.336',-3.25
'0:13.340',-2.59
'0:13.344',-2.12
'0:13.348',-1.67
'0:13.352',-1.17
'0:13.355',-0.62
'0:13.359',-0.33
'0:13.363',-0.09
'0:13.367',0.24
'0:13.371',0.93
'0:13.375',0.68
'0:13.379',-0.04
'0:13.383',-0.31
'0:13.387',-0.18
'0:13.391',0.19
'0:13.395',0.69
'0:13.398',1.35
'0:13.402',2.06
'0:13.406',2.64
'0:13.410',3.13
'0:13.414',3.26
'0:13.418',3.24
'0:13.422',3.4
'0:13.426',3.63
'0:13.430',3.81
'0:13.434',3.82
'0:13.438',3.53
'0:13.441',2.93
'0:13.445',2.29
'0:13.449',1.75
'0:13.453',1.48
'0:13.457',1.29
'0:13.461',0.85
'0:13.465',0.29
'0:13.469',0.05
'0:13.473',-0.02
'0:13.477',0.01
'0:13.480',-0.29
'0:13.484',-0.62
'0:13.488',-0.32
'0:13.492',0.13
'0:13.496',0.31
'0:13.500',0.49
'0:13.504',0.71
'0:13.508',1
'0:13.512',1.26
'0:13.516',1.37
'0:13.520',1.25
'0:13.523',1.19
'0:13.527',0.85
'0:13.531',0.1
'0:13.535',-0.71
'0:13.539',-1.36
'0:13.543',-1.97
'0:13.547',-2.53
'0:13.551',-2.87
'0:13.555',-3.08
'0:13.559',-3.33
'0:13.563',-3.34
'0:13.566',-3.29
'0:13.570',-3.22
'0:13.574',-3.14
'0:13.578',-3.03
'0:13.582',-3.02
'0:13.586',-3.29
'0:13.590',-3.6
'0:13.594',-3.56
'0:13.598',-2.96
'0:13.602',-1.62
'0:13.605',1.06
'0:13.609',4.46
'0:13.613',8.33
'0:13.617',11.38
'0:13.621',12.07
'0:13.625',10.02
'0:13.629',5.54
'0:13.633',-0.12
'0:13.637',-4.96
'0:13.641',-8.4
'0:13.645',-9.49
'0:13.648',-9.31
'0:13.652',-8.22
'0:13.656',-6.9
'0:13.660',-5.41
'0:13.664',-4.19
'0:13.668',-3.65
'0:13.672',-3.35
'0:13.676',-3
'0:13.680',-2.7
'0:13.684',-2.33
'0:13.688',-1.99
'0:13.691',-1.65
'0:13.695',-1.21
'0:13.699',-0.79
'0:13.703',-0.4
'0:13.707',-0.11
'0:13.711',0.02
'0:13.715',0.13
'0:13.719',0.23
'0:13.723',0.3
'0:13.727',0.58
'0:13.730',1.06
'0:13.734',1.42
'0:13.738',1.74
'0:13.742',2.04
'0:13.746',2.04
'0:13.750',1.92
'0:13.754',1.92
'0:13.758',1.9
'0:13.762',1.76
'0:13.766',1.54
'0:13.770',1.22
'0:13.773',0.85
'0:13.777',0.64
'0:13.781',0.43
'0:13.785',0.15
'0:13.789',-0.17
'0:13.793',-0.41
'0:13.797',-0.74
'0:13.801',-0.99
'0:13.805',-0.94
'0:13.809',-0.87
'0:13.813',-0.76
'0:13.816',-0.72
'0:13.820',-0.75
'0:13.824',-0.75
'0:13.828',-0.63
'0:13.832',-0.41
'0:13.836',-0.3
'0:13.840',-0.11
'0:13.844',-0.05
'0:13.848',-0.08
'0:13.852',0
'0:13.855',-0.17
'0:13.859',-0.62
'0:13.863',-1.35
'0:13.867',-2.12
'0:13.871',-2.68
'0:13.875',-3.06
'0:13.879',-3.26
'0:13.883',-3.41
'0:13.887',-3.56
'0:13.891',-3.83
'0:13.895',-3.77
'0:13.898',-3.63
'0:13.902',-3.52
'0:13.906',-3.33
'0:13.910',-3.13
'0:13.914',-3.29
'0:13.918',-3.6
'0:13.922',-3.69
'0:13.926',-3.3
'0:13.930',-2.19
'0:13.934',-0.07
'0:13.938',3.09
'0:13.941',6.87
'0:13.945',10.52
'0:13.949',12.11
'0:13.953',11.16
'0:13.957',7.24
'0:13.961',1.5
'0:13.965',-3.57
'0:13.969',-7.06
'0:13.973',-9.04
'0:13.977',-9.78
'0:13.980',-9.22
'0:13.984',-7.6
'0:13.988',-6.25
'0:13.992',-5.35
'0:13.996',-4.77
'0:14.000',-4.65
'0:14.004',-4.08
'0:14.008',-3.15
'0:14.012',-2.9
'0:14.016',-2.84
'0:14.020',-2.35
'0:14.023',-1.65
'0:14.027',-1.19
'0:14.031',-0.77
'0:14.035',-0.46
'0:14.039',-0.53
'0:14.043',-0.42
'0:14.047',0.29
'0:14.051',1.35
'0:14.055',2.1
'0:14.059',2.13
'0:14.063',2.35
'0:14.066',2.6
'0:14.070',2.74
'0:14.074',2.75
'0:14.078',2.71
'0:14.082',2.95
'0:14.086',3.1
'0:14.090',3.03
'0:14.094',3.02
'0:14.098',3.08
'0:14.102',2.97
'0:14.105',2.73
'0:14.109',2.39
'0:14.113',2.17
'0:14.117',2.05
'0:14.121',1.78
'0:14.125',1.53
'0:14.129',1.07
'0:14.133',0.91
'0:14.137',1.1
'0:14.141',1.03
'0:14.145',1.23
'0:14.148',1.63
'0:14.152',1.46
'0:14.156',1.12
'0:14.160',1.28
'0:14.164',1.72
'0:14.168',2.05
'0:14.172',2.2
'0:14.176',2.43
'0:14.180',2.21
'0:14.184',1.75
'0:14.188',1.34
'0:14.191',0.7
'0:14.195',-0.15
'0:14.199',-0.75
'0:14.203',-0.89
'0:14.207',-0.99
'0:14.211',-1.14
'0:14.215',-1.46
'0:14.219',-1.7
'0:14.223',-1.77
'0:14.227',-1.77
'0:14.230',-1.85
'0:14.234',-1.96
'0:14.238',-1.72
'0:14.242',-1.41
'0:14.246',-1.27
'0:14.250',-1.23
'0:14.254',-0.96
'0:14.258',-0.62
'0:14.262',0.04
'0:14.266',2.12
'0:14.270',5.46
'0:14.273',9.1
'0:14.277',11.59
'0:14.281',11.8
'0:14.285',9.68
'0:14.289',5.42
'0:14.293',0.34
'0:14.297',-3.56
'0:14.301',-6.18
'0:14.305',-7.42
'0:14.309',-7.41
'0:14.313',-6.49
'0:14.316',-5.27
'0:14.320',-4.12
'0:14.324',-3.14
'0:14.328',-2.42
'0:14.332',-2.02
'0:14.336',-1.72
'0:14.340',-1.28
'0:14.344',-0.69
'0:14.348',-0.4
'0:14.352',-0.29
'0:14.355',0.02
'0:14.359',0.3
'0:14.363',0.5
'0:14.367',0.76
'0:14.371',0.85
'0:14.375',1.07
'0:14.379',1.6
'0:14.383',1.91
'0:14.387',2.05
'0:14.391',2.1
'0:14.395',2.04
'0:14.398',2.33
'0:14.402',2.71
'0:14.406',3.03
'0:14.410',3.45
'0:14.414',3.85
'0:14.418',3.85
'0:14.422',3.58
'0:14.426',3.22
'0:14.430',2.88
'0:14.434',2.53
'0:14.438',2.04
'0:14.441',1.46
'0:14.445',0.97
'0:14.449',0.71
'0:14.453',0.71
'0:14.457',0.83
'0:14.461',0.65
'0:14.465',0.43
'0:14.469',0.59
'0:14.473',1.03
'0:14.477',1.28
'0:14.480',1.17
'0:14.484',1.01
'0:14.488',1.1
'0:14.492',1.29
'0:14.496',1.32
'0:14.500',1.49
'0:14.504',1.83
'0:14.508',1.97
'0:14.512',1.74
'0:14.516',1.28
'0:14.520',0.4
'0:14.523',-0.33
'0:14.527',-0.75
'0:14.531',-1.07
'0:14.535',-1.21
'0:14.539',-1.26
'0:14.543',-1.32
'0:14.547',-1.81
'0:14.551',-2.29
'0:14.555',-2.18
'0:14.559',-1.9
'0:14.563',-1.73
'0:14.566',-1.68
'0:14.570',-1.63
'0:14.574',-1.65
'0:14.578',-1.81
'0:14.582',-2.06
'0:14.586',-1.83
'0:14.590',-0.62
'0:14.594',1.83
'0:14.598',5.34
'0:14.602',9.21
'0:14.605',11.79
'0:14.609',12.07
'0:14.613',9.76
'0:14.617',4.89
'0:14.621',-0.89
'0:14.625',-5.33
'0:14.629',-8
'0:14.633',-8.96
'0:14.637',-8.66
'0:14.641',-7.26
'0:14.645',-5.44
'0:14.648',-4.1
'0:14.652',-3.32
'0:14.656',-2.6
'0:14.660',-2.41
'0:14.664',-2.44
'0:14.668',-2.33
'0:14.672',-2.29
'0:14.676',-2.09
'0:14.680',-1.82
'0:14.684',-1.45
'0:14.688',-0.9
'0:14.691',-0.43
'0:14.695',-0.14
'0:14.699',0.2
'0:14.703',0.64
'0:14.707',0.82
'0:14.711',1.32
'0:14.715',1.89
'0:14.719',2.25
'0:14.723',2.57
'0:14.727',2.91
'0:14.730',3.4
'0:14.734',3.93
'0:14.738',4.03
'0:14.742',4.14
'0:14.746',3.92
'0:14.750',3.49
'0:14.754',2.99
'0:14.758',2.71
'0:14.762',2.61
'0:14.766',2.2
'0:14.770',1.97
'0:14.773',1.41
'0:14.777',0.55
'0:14.781',-0.49
'0:14.785',-1.19
'0:14.789',-1.46
'0:14.793',-1.38
'0:14.797',-1.27
'0:14.801',-1.51
'0:14.805',-1.42
'0:14.809',-0.77
'0:14.813',-0.31
'0:14.816',-0.41
'0:14.820',-0.41
'0:14.824',-0.14
'0:14.828',-0.11
'0:14.832',0.01
'0:14.836',-0.07
'0:14.840',-0.12
'0:14.844',-0.23
'0:14.848',-0.15
'0:14.852',-0.27
'0:14.855',-0.99
'0:14.859',-2.42
'0:14.863',-3.31
'0:14.867',-3.3
'0:14.871',-3.27
'0:14.875',-3.09
'0:14.879',-2.72
'0:14.883',-2.3
'0:14.887',-2.39
'0:14.891',-2.41
'0:14.895',-1.9
'0:14.898',-2.05
'0:14.902',-2.66
'0:14.906',-2.8
'0:14.910',-2.76
'0:14.914',-2.03
'0:14.918',-0.51
'0:14.922',2.22
'0:14.926',6.05
'0:14.930',10.1
'0:14.934',12.38
'0:14.938',12.46
'0:14.941',10.34
'0:14.945',5.61
'0:14.949',-0.11
'0:14.953',-4.89
'0:14.957',-7.61
'0:14.961',-8.92
'0:14.965',-9.1
'0:14.969',-7.82
'0:14.973',-5.97
'0:14.977',-4.09
'0:14.980',-3.17
'0:14.984',-3.41
'0:14.988',-3.3
'0:14.992',-2.92
'0:14.996',-2.52
'0:15.000',-2.03
'0:15.004',-1.64
'0:15.008',-1.4
'0:15.012',-1.24
'0:15.016',-1.04
'0:15.020',-0.85
'0:15.023',-0.6
'0:15.027',-0.4
'0:15.031',-0.23
'0:15.035',0.08
'0:15.039',0.45
'0:15.043',0.81
'0:15.047',1.16
'0:15.051',1.83
'0:15.055',2.52
'0:15.059',3.08
'0:15.063',3.35
'0:15.066',3.4
'0:15.070',3.63
'0:15.074',3.53
'0:15.078',3.25
'0:15.082',2.77
'0:15.086',2.39
'0:15.090',1.79
'0:15.094',1.17
'0:15.098',0.69
'0:15.102',0.32
'0:15.105',-0.05
'0:15.109',-0.36
'0:15.113',-0.43
'0:15.117',-0.26
'0:15.121',-0.16
'0:15.125',-0.14
'0:15.129',-0.07
'0:15.133',0.01
'0:15.137',-0.04
'0:15.141',-0.03
'0:15.145',0.11
'0:15.148',0.11
'0:15.152',-0.02
'0:15.156',-0.25
'0:15.160',-0.36
'0:15.164',-0.28
'0:15.168',-0.16
'0:15.172',-0.17
'0:15.176',-0.25
'0:15.180',-0.45
'0:15.184',-0.81
'0:15.188',-1.32
'0:15.191',-1.76
'0:15.195',-2.02
'0:15.199',-2.22
'0:15.203',-2.33
'0:15.207',-2.39
'0:15.211',-2.53
'0:15.215',-2.58
'0:15.219',-2.58
'0:15.223',-2.66
'0:15.227',-2.72
'0:15.230',-2.8
'0:15.234',-3.03
'0:15.238',-3.33
'0:15.242',-3.3
'0:15.246',-2.66
'0:15.250',-0.97
'0:15.254',1.95
'0:15.258',5.88
'0:15.262',9.57
'0:15.266',11.14
'0:15.270',10.27
'0:15.273',6.81
'0:15.277',1.64
'0:15.281',-3.17
'0:15.285',-6.61
'0:15.289',-8.56
'0:15.293',-9.06
'0:15.297',-8.59
'0:15.301',-7.22
'0:15.305',-5.7
'0:15.309',-4.42
'0:15.313',-3.47
'0:15.316',-2.72
'0:15.320',-1.94
'0:15.324',-1.38
'0:15.328',-0.95
'0:15.332',-0.8
'0:15.336',-0.87
'0:15.340',-0.84
'0:15.344',-0.82
'0:15.348',-0.8
'0:15.352',-0.74
'0:15.355',-0.47
'0:15.359',-0.06
'0:15.363',0.23
'0:15.367',0.36
'0:15.371',0.56
'0:15.375',0.62
'0:15.379',0.84
'0:15.383',1.25
'0:15.387',1.81
'0:15.391',2.37
'0:15.395',2.7
'0:15.398',2.73
'0:15.402',2.72
'0:15.406',2.48
'0:15.410',2.12
'0:15.414',1.87
'0:15.418',1.49
'0:15.422',0.97
'0:15.426',0.66
'0:15.430',0.84
'0:15.434',0.74
'0:15.438',0.39
'0:15.441',0.07
'0:15.445',-0.12
'0:15.449',-0.22
'0:15.453',-0.17
'0:15.457',-0.09
'0:15.461',-0.04
'0:15.465',0.03
'0:15.469',0.09
'0:15.473',0.06
'0:15.477',0.3
'0:15.480',0.76
'0:15.484',0.99
'0:15.488',0.82
'0:15.492',0.28
'0:15.496',-0.39
'0:15.500',-0.48
'0:15.504',-0.19
'0:15.508',-0.41
'0:15.512',-0.86
'0:15.516',-1.32
'0:15.520',-1.81
'0:15.523',-2.13
'0:15.527',-2.28
'0:15.531',-2.7
'0:15.535',-2.75
'0:15.539',-2.66
'0:15.543',-2.49
'0:15.547',-2.42
'0:15.551',-2.28
'0:15.555',-2.26
'0:15.559',-2.39
'0:15.563',-2.57
'0:15.566',-2.83
'0:15.570',-2.61
'0:15.574',-1.81
'0:15.578',-0.55
'0:15.582',1.75
'0:15.586',5.11
'0:15.590',9.12
'0:15.594',12.22
'0:15.598',12.52
'0:15.602',9.71
'0:15.605',4.69
'0:15.609',-1.19
'0:15.613',-5.79
'0:15.617',-8.69
'0:15.621',-10.06
'0:15.625',-10.1
'0:15.629',-8.93
'0:15.633',-7.08
'0:15.637',-5.31
'0:15.641',-4.08
'0:15.645',-3.05
'0:15.648',-2.13
'0:15.652',-1.71
'0:15.656',-1.65
'0:15.660',-1.36
'0:15.664',-1.02
'0:15.668',-0.75
'0:15.672',-0.75
'0:15.676',-0.94
'0:15.680',-1.05
'0:15.684',-0.47
'0:15.688',0.18
'0:15.691',0.1
'0:15.695',0.24
'0:15.699',1.19
'0:15.703',2.04
'0:15.707',2.89
'0:15.711',3.51
'0:15.715',3.76
'0:15.719',3.92
'0:15.723',3.53
'0:15.727',3
'0:15.730',3.12
'0:15.734',3.42
'0:15.738',3.66
'0:15.742',3.5
'0:15.746',3.02
'0:15.750',2.6
'0:15.754',2.34
'0:15.758',2.39
'0:15.762',2.25
'0:15.766',1.74
'0:15.770',1.32
'0:15.773',1.07
'0:15.777',0.84
'0:15.781',0.91
'0:15.785',1.21
'0:15.789',1.25
'0:15.793',1.35
'0:15.797',1.43
'0:15.801',1.94
'0:15.805',2.61
'0:15.809',2.93
'0:15.813',2.88
'0:15.816',2.66
'0:15.820',2.47
'0:15.824',2.21
'0:15.828',1.87
'0:15.832',1.38
'0:15.836',0.9
'0:15.840',0.49
'0:15.844',0.08
'0:15.848',-0.54
'0:15.852',-0.89
'0:15.855',-0.78
'0:15.859',-1.28
'0:15.863',-2.34
'0:15.867',-2.7
'0:15.871',-2.19
'0:15.875',-1.47
'0:15.879',-1.08
'0:15.883',-0.68
'0:15.887',-0.72
'0:15.891',-1.25
'0:15.895',-1.75
'0:15.898',-2.04
'0:15.902',-1.71
'0:15.906',-0.96
'0:15.910',0.54
'0:15.914',2.9
'0:15.918',6.31
'0:15.922',9.91
'0:15.926',12.37
'0:15.930',12.63
'0:15.934',9.22
'0:15.938',3.38
'0:15.941',-1.98
'0:15.945',-5.66
'0:15.949',-7.54
'0:15.953',-8.08
'0:15.957',-7.54
'0:15.961',-6.06
'0:15.965',-4.29
'0:15.969',-2.94
'0:15.973',-2.42
'0:15.977',-2.13
'0:15.980',-1.85
'0:15.984',-1.48
'0:15.988',-0.93
'0:15.992',-0.39
'0:15.996',0.08
'0:16.000',0.37
'0:16.004',0.23
'0:16.008',0
'0:16.012',0.34
'0:16.016',0.78
'0:16.020',0.58
'0:16.023',0.47
'0:16.027',0.65
'0:16.031',1.11
'0:16.035',1.56
'0:16.039',1.67
'0:16.043',1.91
'0:16.047',2.62
'0:16.051',3.6
'0:16.055',4.1
'0:16.059',4.17
'0:16.063',3.94
'0:16.066',3.75
'0:16.070',3.76
'0:16.074',3.7
'0:16.078',3.45
'0:16.082',3.22
'0:16.086',2.74
'0:16.090',1.97
'0:16.094',1.56
'0:16.098',1.37
'0:16.102',1.13
'0:16.105',0.58
'0:16.109',0.25
'0:16.113',0.3
'0:16.117',0.59
'0:16.121',0.84
'0:16.125',1
'0:16.129',1.1
'0:16.133',1.39
'0:16.137',1.75
'0:16.141',1.85
'0:16.145',1.7
'0:16.148',1.68
'0:16.152',1.63
'0:16.156',1.4
'0:16.160',1.39
'0:16.164',1.37
'0:16.168',0.79
'0:16.172',0.14
'0:16.176',-0.32
'0:16.180',-0.87
'0:16.184',-1.06
'0:16.188',-0.99
'0:16.191',-1.28
'0:16.195',-1.66
'0:16.199',-1.75
'0:16.203',-1.87
'0:16.207',-2.17
'0:16.211',-2.29
'0:16.215',-2.31
'0:16.219',-2.46
'0:16.223',-2.51
'0:16.227',-2.42
'0:16.230',-2.43
'0:16.234',-2.17
'0:16.238',-0.61
'0:16.242',2.37
'0:16.246',5.99
'0:16.250',9.55
'0:16.254',11.44
'0:16.258',10.97
'0:16.262',7.79
'0:16.266',2.67
'0:16.270',-2.37
'0:16.273',-6.05
'0:16.277',-8.27
'0:16.281',-9.16
'0:16.285',-8.9
'0:16.289',-7.77
'0:16.293',-6.36
'0:16.297',-4.99
'0:16.301',-3.89
'0:16.305',-3.23
'0:16.309',-3.02
'0:16.313',-2.82
'0:16.316',-2.53
'0:16.320',-2.33
'0:16.324',-2.11
'0:16.328',-1.78
'0:16.332',-1.47
'0:16.336',-1.29
'0:16.340',-1.12
'0:16.344',-0.59
'0:16.348',0.14
'0:16.352',0.6
'0:16.355',0.91
'0:16.359',1.46
'0:16.363',2.13
'0:16.367',2.54
'0:16.371',2.58
'0:16.375',2.61
'0:16.379',2.98
'0:16.383',3.84
'0:16.387',4.29
'0:16.391',4.16
'0:16.395',3.7
'0:16.398',2.85
'0:16.402',2.09
'0:16.406',1.78
'0:16.410',1.53
'0:16.414',1.14
'0:16.418',0.83
'0:16.422',0.5
'0:16.426',0.12
'0:16.430',-0.19
'0:16.434',-0.24
'0:16.438',-0.12
'0:16.441',0.08
'0:16.445',0.4
'0:16.449',0.39
'0:16.453',-0.02
'0:16.457',-0.11
'0:16.461',0.2
'0:16.465',0.35
'0:16.469',0.4
'0:16.473',0.24
'0:16.477',-0.02
'0:16.480',0.01
'0:16.484',-0.24
'0:16.488',-0.33
'0:16.492',-0.23
'0:16.496',-0.34
'0:16.500',-0.77
'0:16.504',-1.56
'0:16.508',-1.82
'0:16.512',-1.61
'0:16.516',-1.46
'0:16.520',-1.74
'0:16.523',-2.31
'0:16.527',-2.6
'0:16.531',-2.48
'0:16.535',-2.44
'0:16.539',-2.58
'0:16.543',-2.66
'0:16.547',-2.89
'0:16.551',-2.87
'0:16.555',-3.16
'0:16.559',-3.31
'0:16.563',-2.73
'0:16.566',-1.31
'0:16.570',1.08
'0:16.574',4.5
'0:16.578',8.42
'0:16.582',11.51
'0:16.586',12.54
'0:16.590',10.85
'0:16.594',6.58
'0:16.598',0.97
'0:16.602',-3.88
'0:16.605',-7.19
'0:16.609',-8.89
'0:16.613',-9.35
'0:16.617',-8.72
'0:16.621',-7.38
'0:16.625',-5.98
'0:16.629',-4.5
'0:16.633',-3.15
'0:16.637',-2.35
'0:16.641',-1.96
'0:16.645',-1.98
'0:16.648',-1.97
'0:16.652',-1.87
'0:16.656',-1.75
'0:16.660',-1.6
'0:16.664',-1.35
'0:16.668',-0.97
'0:16.672',-0.51
'0:16.676',-0.24
'0:16.680',-0.14
'0:16.684',0.01
'0:16.688',0.28
'0:16.691',0.57
'0:16.695',0.96
'0:16.699',1.48
'0:16.703',2.16
'0:16.707',2.64
'0:16.711',2.99
'0:16.715',3.3
'0:16.719',3.69
'0:16.723',3.76
'0:16.727',3.39
'0:16.730',2.89
'0:16.734',2.29
'0:16.738',2
'0:16.742',1.81
'0:16.746',1.31
'0:16.750',0.65
'0:16.754',-0.01
'0:16.758',-0.38
'0:16.762',-0.7
'0:16.766',-0.7
'0:16.770',-0.56
'0:16.773',-0.53
'0:16.777',-0.33
'0:16.781',-0.22
'0:16.785',-0.26
'0:16.789',-0.16
'0:16.793',0.11
'0:16.797',0.57
'0:16.801',0.83
'0:16.805',0.75
'0:16.809',0.47
'0:16.813',0
'0:16.816',-0.19
'0:16.820',-0.16
'0:16.824',-0.5
'0:16.828',-1.03
'0:16.832',-1.54
'0:16.836',-2.16
'0:16.840',-2.65
'0:16.844',-2.76
'0:16.848',-2.75
'0:16.852',-3.06
'0:16.855',-3.6
'0:16.859',-4.03
'0:16.863',-4.19
'0:16.867',-4.03
'0:16.871',-3.72
'0:16.875',-3.77
'0:16.879',-3.9
'0:16.883',-3.89
'0:16.887',-3.97
'0:16.891',-3.92
'0:16.895',-3.45
'0:16.898',-2.17
'0:16.902',0.2
'0:16.906',3.68
'0:16.910',7.65
'0:16.914',10.57
'0:16.918',10.82
'0:16.922',8.29
'0:16.926',3.77
'0:16.930',-1.24
'0:16.934',-5.33
'0:16.938',-8.09
'0:16.941',-9.27
'0:16.945',-9.24
'0:16.949',-8.4
'0:16.953',-6.98
'0:16.957',-5.6
'0:16.961',-4.38
'0:16.965',-3.37
'0:16.969',-2.69
'0:16.973',-2.17
'0:16.977',-1.75
'0:16.980',-1.53
'0:16.984',-1.55
'0:16.988',-1.4
'0:16.992',-1.29
'0:16.996',-1.2
'0:17.000',-1.12
'0:17.004',-1
'0:17.008',-0.83
'0:17.012',-0.64
'0:17.016',-0.38
'0:17.020',-0.1
'0:17.023',0.13
'0:17.027',0.3
'0:17.031',0.37
'0:17.035',0.92
'0:17.039',1.59
'0:17.043',2.17
'0:17.047',2.47
'0:17.051',2.43
'0:17.055',2.13
'0:17.059',2.22
'0:17.063',2.13
'0:17.066',1.8
'0:17.070',1.37
'0:17.074',0.89
'0:17.078',0.48
'0:17.082',0.16
'0:17.086',-0.07
'0:17.090',-0.4
'0:17.094',-0.46
'0:17.098',-0.39
'0:17.102',-0.44
'0:17.105',-0.6
'0:17.109',-0.65
'0:17.113',-0.51
'0:17.117',-0.19
'0:17.121',0.06
'0:17.125',0.15
'0:17.129',0.33
'0:17.133',0.51
'0:17.137',0.86
'0:17.141',1.01
'0:17.145',0.9
'0:17.148',0.78
'0:17.152',0.39
'0:17.156',-0.07
'0:17.160',-0.47
'0:17.164',-1.02
'0:17.168',-1.39
'0:17.172',-1.48
'0:17.176',-1.88
'0:17.180',-2.22
'0:17.184',-2.43
'0:17.188',-2.38
'0:17.191',-2.51
'0:17.195',-2.68
'0:17.199',-2.92
'0:17.203',-3.13
'0:17.207',-3.26
'0:17.211',-3.34
'0:17.215',-3.48
'0:17.219',-3.37
'0:17.223',-2.83
'0:17.227',-1.59
'0:17.230',0.8
'0:17.234',3.69
'0:17.238',7.38
'0:17.242',11.05
'0:17.246',13.02
'0:17.250',11.65
'0:17.254',7.26
'0:17.258',1.68
'0:17.262',-3.2
'0:17.266',-6.75
'0:17.270',-8.65
'0:17.273',-8.91
'0:17.277',-7.98
'0:17.281',-6.03
'0:17.285',-4.66
'0:17.289',-3.76
'0:17.293',-2.66
'0:17.297',-1.82
'0:17.301',-1.41
'0:17.305',-1.29
'0:17.309',-1.28
'0:17.313',-1.14
'0:17.316',-0.77
'0:17.320',-0.18
'0:17.324',-0.01
'0:17.328',0.13
'0:17.332',0.08
'0:17.336',0.23
'0:17.340',0.72
'0:17.344',1.3
'0:17.348',1.69
'0:17.352',2.11
'0:17.355',2.74
'0:17.359',3.24
'0:17.363',3.61
'0:17.367',3.88
'0:17.371',3.93
'0:17.375',3.91
'0:17.379',3.91
'0:17.383',3.81
'0:17.387',3.46
'0:17.391',3.18
'0:17.395',2.96
'0:17.398',2.83
'0:17.402',2.43
'0:17.406',1.96
'0:17.410',1.88
'0:17.414',1.68
'0:17.418',1.12
'0:17.422',0.75
'0:17.426',0.63
'0:17.430',0.68
'0:17.434',0.74
'0:17.438',0.78
'0:17.441',0.85
'0:17.445',0.87
'0:17.449',1.31
'0:17.453',1.72
'0:17.457',1.93
'0:17.461',1.83
'0:17.465',1.66
'0:17.469',1.58
'0:17.473',1.47
'0:17.477',1.34
'0:17.480',1.44
'0:17.484',1.33
'0:17.488',0.74
'0:17.492',0.1
'0:17.496',-0.28
'0:17.500',-0.46
'0:17.504',-0.64
'0:17.508',-0.78
'0:17.512',-1
'0:17.516',-1.22
'0:17.520',-1.33
'0:17.523',-1.17
'0:17.527',-0.28
'0:17.531',0.01
'0:17.535',-0.92
'0:17.539',-2.04
'0:17.543',-2.63
'0:17.547',-2.73
'0:17.551',-3.04
'0:17.555',-3.16
'0:17.559',-2.51
'0:17.563',-0.64
'0:17.566',2.78
'0:17.570',7.34
'0:17.574',11.53
'0:17.578',13.36
'0:17.582',11.89
'0:17.586',7.5
'0:17.590',1.61
'0:17.594',-3.2
'0:17.598',-6.09
'0:17.602',-7.53
'0:17.605',-8.02
'0:17.609',-7.45
'0:17.613',-6.24
'0:17.617',-5.07
'0:17.621',-3.96
'0:17.625',-3.23
'0:17.629',-2.65
'0:17.633',-1.99
'0:17.637',-1.33
'0:17.641',-0.85
'0:17.645',-0.42
'0:17.648',-0.09
'0:17.652',0.23
'0:17.656',0.37
'0:17.660',0.32
'0:17.664',0.25
'0:17.668',0.33
'0:17.672',0.5
'0:17.676',0.99
'0:17.680',1.55
'0:17.684',2.04
'0:17.688',2.34
'0:17.691',2.43
'0:17.695',2.56
'0:17.699',2.84
'0:17.703',3.18
'0:17.707',3.5
'0:17.711',3.78
'0:17.715',3.83
'0:17.719',3.43
'0:17.723',2.82
'0:17.727',2.27
'0:17.730',1.87
'0:17.734',1.63
'0:17.738',1.41
'0:17.742',1.06
'0:17.746',0.89
'0:17.750',0.83
'0:17.754',0.68
'0:17.758',0.39
'0:17.762',0.03
'0:17.766',-0.17
'0:17.770',-0.31
'0:17.773',-0.26
'0:17.777',-0.09
'0:17.781',0.28
'0:17.785',0.96
'0:17.789',1.44
'0:17.793',1.55
'0:17.797',1.52
'0:17.801',1.42
'0:17.805',1.25
'0:17.809',1.25
'0:17.813',1.17
'0:17.816',0.85
'0:17.820',0.18
'0:17.824',-0.57
'0:17.828',-1.33
'0:17.832',-1.82
'0:17.836',-1.87
'0:17.840',-2
'0:17.844',-2.43
'0:17.848',-2.5
'0:17.852',-2.41
'0:17.855',-2.39
'0:17.859',-2.48
'0:17.863',-2.33
'0:17.867',-2.05
'0:17.871',-2.15
'0:17.875',-2.51
'0:17.879',-2.78
'0:17.883',-2.69
'0:17.887',-1.86
'0:17.891',0.23
'0:17.895',3.34
'0:17.898',7.14
'0:17.902',10.55
'0:17.906',11.83
'0:17.910',10.42
'0:17.914',6.35
'0:17.918',0.74
'0:17.922',-3.96
'0:17.926',-7.17
'0:17.930',-8.96
'0:17.934',-9.34
'0:17.938',-8.35
'0:17.941',-6.91
'0:17.945',-5.41
'0:17.949',-4.21
'0:17.953',-3.14
'0:17.957',-2.6
'0:17.961',-2.28
'0:17.965',-2.07
'0:17.969',-1.91
'0:17.973',-1.25
'0:17.977',-0.84
'0:17.980',-0.81
'0:17.984',-0.68
'0:17.988',-0.4
'0:17.992',0.23
'0:17.996',0.66
'0:18.000',0.99
'0:18.004',1.37
'0:18.008',1.76
'0:18.012',2.13
'0:18.016',2.15
'0:18.020',2.27
'0:18.023',2.28
'0:18.027',2.08
'0:18.031',2.27
'0:18.035',2.33
'0:18.039',2.54
'0:18.043',2.31
'0:18.047',1.88
'0:18.051',1.5
'0:18.055',1.43
'0:18.059',1.35
'0:18.063',0.86
'0:18.066',0.64
'0:18.070',0.26
'0:18.074',-0.29
'0:18.078',-0.54
'0:18.082',-0.79
'0:18.086',-1.16
'0:18.090',-1.16
'0:18.094',-0.95
'0:18.098',-0.47
'0:18.102',-0.07
'0:18.105',-0.07
'0:18.109',0.11
'0:18.113',0.66
'0:18.117',1.75
'0:18.121',2.29
'0:18.125',2.1
'0:18.129',1.54
'0:18.133',1.73
'0:18.137',2.09
'0:18.141',1.43
'0:18.145',0.65
'0:18.148',0.21
'0:18.152',-0.33
'0:18.156',-0.63
'0:18.160',-0.99
'0:18.164',-1.49
'0:18.168',-1.93
'0:18.172',-2.21
'0:18.176',-1.89
'0:18.180',-1.3
'0:18.184',-1.18
'0:18.188',-1.44
'0:18.191',-1.8
'0:18.195',-1.95
'0:18.199',-2.24
'0:18.203',-2.56
'0:18.207',-2.55
'0:18.211',-2.4
'0:18.215',-1.9
'0:18.219',-0.26
'0:18.223',2.89
'0:18.227',6.41
'0:18.230',9.68
'0:18.234',11.68
'0:18.238',11.26
'0:18.242',8.2
'0:18.246',3.33
'0:18.250',-2.25
'0:18.254',-6.63
'0:18.258',-8.99
'0:18.262',-9.72
'0:18.266',-9.26
'0:18.270',-7.95
'0:18.273',-6.36
'0:18.277',-4.99
'0:18.281',-4.13
'0:18.285',-3.52
'0:18.289',-2.97
'0:18.293',-2.31
'0:18.297',-1.71
'0:18.301',-1.23
'0:18.305',-1.02
'0:18.309',-1
'0:18.313',-0.74
'0:18.316',-0.31
'0:18.320',0.03
'0:18.324',0.29
'0:18.328',0.57
'0:18.332',1.11
'0:18.336',1.54
'0:18.340',1.59
'0:18.344',1.59
'0:18.348',1.78
'0:18.352',2.03
'0:18.355',2.44
'0:18.359',2.84
'0:18.363',3.11
'0:18.367',3.35
'0:18.371',3.56
'0:18.375',3.57
'0:18.379',3.46
'0:18.383',3.13
'0:18.387',2.51
'0:18.391',1.92
'0:18.395',1.34
'0:18.398',0.92
'0:18.402',0.66
'0:18.406',0.43
'0:18.410',0.07
'0:18.414',-0.12
'0:18.418',-0.2
'0:18.422',-0.27
'0:18.426',-0.33
'0:18.430',-0.02
'0:18.434',0.05
'0:18.438',0.25
'0:18.441',0.53
'0:18.445',0.74
'0:18.449',1
'0:18.453',1.07
'0:18.457',0.94
'0:18.461',0.76
'0:18.465',0.49
'0:18.469',0.25
'0:18.473',0.07
'0:18.477',-0.46
'0:18.480',-1.11
'0:18.484',-1.68
'0:18.488',-2.15
'0:18.492',-2.53
'0:18.496',-2.73
'0:18.500',-2.83
'0:18.504',-2.94
'0:18.508',-3
'0:18.512',-2.9
'0:18.516',-2.89
'0:18.520',-2.85
'0:18.523',-2.77
'0:18.527',-2.68
'0:18.531',-2.76
'0:18.535',-3.1
'0:18.539',-3.44
'0:18.543',-3.27
'0:18.547',-2.4
'0:18.551',-0.55
'0:18.555',2.51
'0:18.559',6.4
'0:18.563',9.98
'0:18.566',11.5
'0:18.570',10.5
'0:18.574',7.15
'0:18.578',2.08
'0:18.582',-2.92
'0:18.586',-6.54
'0:18.590',-8.79
'0:18.594',-9.62
'0:18.598',-9.36
'0:18.602',-8.2
'0:18.605',-6.72
'0:18.609',-5.52
'0:18.613',-4.81
'0:18.617',-4.4
'0:18.621',-4.02
'0:18.625',-3.45
'0:18.629',-2.76
'0:18.633',-2.03
'0:18.637',-1.45
'0:18.641',-1.03
'0:18.645',-0.68
'0:18.648',-0.42
'0:18.652',-0.28
'0:18.656',-0.05
'0:18.660',0.01
'0:18.664',0.23
'0:18.668',0.44
'0:18.672',0.59
'0:18.676',0.86
'0:18.680',1.21
'0:18.684',1.44
'0:18.688',1.72
'0:18.691',2.1
'0:18.695',2.35
'0:18.699',2.37
'0:18.703',2.32
'0:18.707',2.09
'0:18.711',1.99
'0:18.715',2.01
'0:18.719',1.6
'0:18.723',1.24
'0:18.727',0.97
'0:18.730',0.51
'0:18.734',0.1
'0:18.738',0.01
'0:18.742',0.21
'0:18.746',0.12
'0:18.750',0.01
'0:18.754',-0.05
'0:18.758',-0.17
'0:18.762',-0.18
'0:18.766',-0.13
'0:18.770',0.11
'0:18.773',0.51
'0:18.777',0.88
'0:18.781',1.01
'0:18.785',1.15
'0:18.789',0.98
'0:18.793',0.56
'0:18.797',0.25
'0:18.801',-0.18
'0:18.805',-0.89
'0:18.809',-1.64
'0:18.813',-2.37
'0:18.816',-2.88
'0:18.820',-3.18
'0:18.824',-3.23
'0:18.828',-3.31
'0:18.832',-3.49
'0:18.836',-3.76
'0:18.840',-3.84
'0:18.844',-3.32
'0:18.848',-2.89
'0:18.852',-2.62
'0:18.855',-2.38
'0:18.859',-2.04
'0:18.863',-2.42
'0:18.867',-3.21
'0:18.871',-3.49
'0:18.875',-3.34
'0:18.879',-1.76
'0:18.883',1.6
'0:18.887',5.61
'0:18.891',9.4
'0:18.895',12.01
'0:18.898',12.51
'0:18.902',9.91
'0:18.906',5.48
'0:18.910',0.84
'0:18.914',-3.38
'0:18.918',-6.51
'0:18.922',-7.97
'0:18.926',-8.04
'0:18.930',-7.23
'0:18.934',-6.07
'0:18.938',-4.84
'0:18.941',-4.03
'0:18.945',-3.3
'0:18.949',-2.28
'0:18.953',-0.92
'0:18.957',-0.59
'0:18.961',-0.65
'0:18.965',-0.65
'0:18.969',-0.57
'0:18.973',-0.21
'0:18.977',0.14
'0:18.980',0.5
'0:18.984',0.69
'0:18.988',0.74
'0:18.992',0.9
'0:18.996',1.2
'0:19.000',1.45
'0:19.004',1.64
'0:19.008',1.91
'0:19.012',2.2
'0:19.016',2.47
'0:19.020',2.7
'0:19.023',2.91
'0:19.027',2.99
'0:19.031',3.15
'0:19.035',3.41
'0:19.039',3.18
'0:19.043',2.48
'0:19.047',2
'0:19.051',1.5
'0:19.055',0.86
'0:19.059',0.14
'0:19.063',-0.27
'0:19.066',-0.21
'0:19.070',-0.01
'0:19.074',0.26
'0:19.078',0.45
'0:19.082',0.65
'0:19.086',0.71
'0:19.090',0.76
'0:19.094',0.93
'0:19.098',1.32
'0:19.102',1.88
'0:19.105',2.25
'0:19.109',2.4
'0:19.113',2.37
'0:19.117',2.42
'0:19.121',2.51
'0:19.125',2.37
'0:19.129',2.2
'0:19.133',2.09
'0:19.137',1.77
'0:19.141',1.08
'0:19.145',0.41
'0:19.148',-0.22
'0:19.152',-0.96
'0:19.156',-1.71
'0:19.160',-2.05
'0:19.164',-2.14
'0:19.168',-2.14
'0:19.172',-2.2
'0:19.176',-2.69
'0:19.180',-2.82
'0:19.184',-2.25
'0:19.188',-1.74
'0:19.191',-1.59
'0:19.195',-1.86
'0:19.199',-2.14
'0:19.203',-2.01
'0:19.207',-1.33
'0:19.211',0.28
'0:19.215',2.93
'0:19.219',6.32
'0:19.223',9.93
'0:19.227',12.3
'0:19.230',12.34
'0:19.234',9.56
'0:19.238',4.69
'0:19.242',-0.62
'0:19.246',-4.53
'0:19.250',-6.84
'0:19.254',-7.67
'0:19.258',-7.46
'0:19.262',-6.42
'0:19.266',-4.97
'0:19.270',-3.68
'0:19.273',-2.69
'0:19.277',-1.93
'0:19.281',-1.2
'0:19.285',-0.67
'0:19.289',-0.32
'0:19.293',0.06
'0:19.297',0.46
'0:19.301',0.67
'0:19.305',0.73
'0:19.309',0.53
'0:19.313',0.54
'0:19.316',0.96
'0:19.320',1.3
'0:19.324',1.54
'0:19.328',1.78
'0:19.332',1.98
'0:19.336',2.19
'0:19.340',2.59
'0:19.344',2.91
'0:19.348',3.1
'0:19.352',3.32
'0:19.355',3.49
'0:19.359',3.39
'0:19.363',3.29
'0:19.367',3.42
'0:19.371',3.46
'0:19.375',3.14
'0:19.379',2.86
'0:19.383',2.35
'0:19.387',1.82
'0:19.391',1.64
'0:19.395',1.51
'0:19.398',1.18
'0:19.402',0.62
'0:19.406',0.14
'0:19.410',-0.2
'0:19.414',-0.43
'0:19.418',-0.44
'0:19.422',-0.15
'0:19.426',0.3
'0:19.430',0.67
'0:19.434',0.98
'0:19.438',1.35
'0:19.441',1.71
'0:19.445',2.05
'0:19.449',2.19
'0:19.453',1.9
'0:19.457',1.53
'0:19.461',1.16
'0:19.465',0.65
'0:19.469',0.04
'0:19.473',-0.6
'0:19.477',-1.11
'0:19.480',-1.66
'0:19.484',-2.23
'0:19.488',-2.65
'0:19.492',-2.87
'0:19.496',-2.92
'0:19.500',-2.78
'0:19.504',-2.85
'0:19.508',-3.02
'0:19.512',-2.99
'0:19.516',-2.9
'0:19.520',-2.85
'0:19.523',-2.75
'0:19.527',-3.4
