'0:00.000',-1.73
'0:00.004',-1.73
'0:00.008',-1.73
'0:00.012',-1.72
'0:00.016',-1.73
'0:00.020',-1.05
'0:00.023',-0.86
'0:00.027',-0.8
'0:00.031',-0.79
'0:00.035',-0.69
'0:00.039',-0.52
'0:00.043',-0.26
'0:00.047',0
'0:00.051',0.1
'0:00.055',0.21
'0:00.059',0.3
'0:00.063',0.32
'0:00.066',0.42
'0:00.070',0.54
'0:00.074',0.67
'0:00.078',0.73
'0:00.082',0.73
'0:00.086',0.74
'0:00.090',0.74
'0:00.094',0.49
'0:00.098',0.63
'0:00.102',0.73
'0:00.105',0.71
'0:00.109',0.62
'0:00.113',0.64
'0:00.117',0.65
'0:00.121',0.44
'0:00.125',0.15
'0:00.129',-0.1
'0:00.133',-0.29
'0:00.137',-0.3
'0:00.141',-0.34
'0:00.145',-0.26
'0:00.148',-0.26
'0:00.152',-0.13
'0:00.156',-0.02
'0:00.160',0.07
'0:00.164',0.12
'0:00.168',0.15
'0:00.172',0.02
'0:00.176',-0.08
'0:00.180',-0.05
'0:00.184',0.09
'0:00.188',0.2
'0:00.191',0.18
'0:00.195',0.2
'0:00.199',0.25
'0:00.203',0.26
'0:00.207',0.17
'0:00.211',0.06
'0:00.215',-0.03
'0:00.219',-0.24
'0:00.223',-0.3
'0:00.227',-0.47
'0:00.230',-0.84
'0:00.234',-1.01
'0:00.238',-1.02
'0:00.242',-1.05
'0:00.246',-1.18
'0:00.250',-1.37
'0:00.254',-1.57
'0:00.258',-1.65
'0:00.262',-1.47
'0:00.266',-1.18
'0:00.270',-1
'0:00.273',-1.06
'0:00.277',-1.12
'0:00.281',-1.13
'0:00.285',-1.16
'0:00.289',-1.46
'0:00.293',-2.05
'0:00.297',-2.43
'0:00.301',-2.17
'0:00.305',-1.09
'0:00.309',1.46
'0:00.313',5.27
'0:00.316',8.83
'0:00.320',11.11
'0:00.324',10.87
'0:00.328',8.07
'0:00.332',3.8
'0:00.336',-0.33
'0:00.340',-3.19
'0:00.344',-4.53
'0:00.348',-4.84
'0:00.352',-4.65
'0:00.355',-4.21
'0:00.359',-3.77
'0:00.363',-3.36
'0:00.367',-2.94
'0:00.371',-2.61
'0:00.375',-2.37
'0:00.379',-2.24
'0:00.383',-2.08
'0:00.387',-1.76
'0:00.391',-1.56
'0:00.395',-1.45
'0:00.398',-1.27
'0:00.402',-1.04
'0:00.406',-0.87
'0:00.410',-0.73
'0:00.414',-0.49
'0:00.418',-0.26
'0:00.422',-0.05
'0:00.426',0.21
'0:00.430',0.4
'0:00.434',0.33
'0:00.438',0.41
'0:00.441',0.52
'0:00.445',0.44
'0:00.449',0.6
'0:00.453',0.93
'0:00.457',1.19
'0:00.461',1.38
'0:00.465',1.43
'0:00.469',1.24
'0:00.473',1.01
'0:00.477',0.82
'0:00.480',0.67
'0:00.484',0.59
'0:00.488',0.56
'0:00.492',0.59
'0:00.496',0.63
'0:00.500',0.69
'0:00.504',0.52
'0:00.508',0.2
'0:00.512',-0.06
'0:00.516',-0.09
'0:00.520',-0.11
'0:00.523',-0.35
'0:00.527',-0.47
'0:00.531',-0.64
'0:00.535',-0.85
'0:00.539',-0.83
'0:00.543',-0.48
'0:00.547',-0.13
'0:00.551',0.05
'0:00.555',0.17
'0:00.559',0.38
'0:00.563',0.69
'0:00.566',1.03
'0:00.570',1.26
'0:00.574',1.18
'0:00.578',1.14
'0:00.582',1.19
'0:00.586',1.03
'0:00.590',0.73
'0:00.594',0.43
'0:00.598',0.21
'0:00.602',0
'0:00.605',-0.4
'0:00.609',-0.82
'0:00.613',-1.08
'0:00.617',-1.14
'0:00.621',-1.36
'0:00.625',-1.74
'0:00.629',-1.99
'0:00.633',-1.88
'0:00.637',-1.82
'0:00.641',-2.01
'0:00.645',-2.25
'0:00.648',-2.33
'0:00.652',-2.46
'0:00.656',-2.66
'0:00.660',-2.66
'0:00.664',-2.73
'0:00.668',-2.96
'0:00.672',-3.15
'0:00.676',-3.36
'0:00.680',-3.32
'0:00.684',-2.68
'0:00.688',-1.22
'0:00.691',1.38
'0:00.695',4.61
'0:00.699',7.54
'0:00.703',9.26
'0:00.707',8.28
'0:00.711',5.47
'0:00.715',2.04
'0:00.719',-1.45
'0:00.723',-4.01
'0:00.727',-5.09
'0:00.730',-5.19
'0:00.734',-4.95
'0:00.738',-4.23
'0:00.742',-3.24
'0:00.746',-2.56
'0:00.750',-2.14
'0:00.754',-1.72
'0:00.758',-1.43
'0:00.762',-1.11
'0:00.766',-0.92
'0:00.770',-0.9
'0:00.773',-0.76
'0:00.777',-0.49
'0:00.781',-0.5
'0:00.785',-0.6
'0:00.789',-0.43
'0:00.793',-0.11
'0:00.797',0.17
'0:00.801',0.24
'0:00.805',0.34
'0:00.809',0.61
'0:00.813',0.74
'0:00.816',0.72
'0:00.820',0.61
'0:00.824',0.65
'0:00.828',0.92
'0:00.832',1.05
'0:00.836',1.03
'0:00.840',1.04
'0:00.844',1.19
'0:00.848',1.2
'0:00.852',1.11
'0:00.855',1.21
'0:00.859',1.3
'0:00.863',1.18
'0:00.867',1.05
'0:00.871',1.16
'0:00.875',1.43
'0:00.879',1.48
'0:00.883',1.27
'0:00.887',1.03
'0:00.891',0.79
'0:00.895',0.5
'0:00.898',0.36
'0:00.902',0.3
'0:00.906',0.25
'0:00.910',0.27
'0:00.914',0.32
'0:00.918',0.51
'0:00.922',0.7
'0:00.926',0.92
'0:00.930',1.25
'0:00.934',1.53
'0:00.938',1.88
'0:00.941',2.33
'0:00.945',2.51
'0:00.949',2.67
'0:00.953',2.94
'0:00.957',3.15
'0:00.961',3.24
'0:00.965',3.32
'0:00.969',3.2
'0:00.973',2.94
'0:00.977',2.61
'0:00.980',2.31
'0:00.984',2.13
'0:00.988',2.08
'0:00.992',1.89
'0:00.996',1.51
'0:01.000',1.18
'0:01.004',0.99
'0:01.008',0.82
'0:01.012',0.69
'0:01.016',0.64
'0:01.020',0.56
'0:01.023',0.5
'0:01.027',0.33
'0:01.031',0.3
'0:01.035',0.43
'0:01.039',0.63
'0:01.043',0.78
'0:01.047',0.66
'0:01.051',0.39
'0:01.055',0
'0:01.059',-0.19
'0:01.063',-0.01
'0:01.066',0.73
'0:01.070',2.43
'0:01.074',5.37
'0:01.078',8.63
'0:01.082',11.1
'0:01.086',11.75
'0:01.090',9.83
'0:01.094',6.19
'0:01.098',2.19
'0:01.102',-1.08
'0:01.105',-2.91
'0:01.109',-3.71
'0:01.113',-3.85
'0:01.117',-3.5
'0:01.121',-2.92
'0:01.125',-2.4
'0:01.129',-2.06
'0:01.133',-1.9
'0:01.137',-1.76
'0:01.141',-1.54
'0:01.145',-1.32
'0:01.148',-1.08
'0:01.152',-0.92
'0:01.156',-0.85
'0:01.160',-0.73
'0:01.164',-0.65
'0:01.168',-0.51
'0:01.172',-0.37
'0:01.176',-0.2
'0:01.180',0.02
'0:01.184',0.15
'0:01.188',0.21
'0:01.191',0.27
'0:01.195',0.39
'0:01.199',0.6
'0:01.203',0.81
'0:01.207',0.99
'0:01.211',1.19
'0:01.215',1.36
'0:01.219',1.48
'0:01.223',1.56
'0:01.227',1.65
'0:01.230',1.68
'0:01.234',1.66
'0:01.238',1.5
'0:01.242',1.33
'0:01.246',1.2
'0:01.250',1.13
'0:01.254',1.03
'0:01.258',0.78
'0:01.262',0.37
'0:01.266',0.16
'0:01.270',0.09
'0:01.273',-0.11
'0:01.277',-0.3
'0:01.281',-0.56
'0:01.285',-0.95
'0:01.289',-1.26
'0:01.293',-1.34
'0:01.297',-1.24
'0:01.301',-1.15
'0:01.305',-1
'0:01.309',-0.83
'0:01.313',-0.62
'0:01.316',-0.37
'0:01.320',-0.24
'0:01.324',-0.24
'0:01.328',-0.29
'0:01.332',-0.22
'0:01.336',0
'0:01.340',0.15
'0:01.344',0.09
'0:01.348',-0.11
'0:01.352',-0.25
'0:01.355',-0.45
'0:01.359',-0.81
'0:01.363',-1.22
'0:01.367',-1.59
'0:01.371',-1.89
'0:01.375',-2.13
'0:01.379',-2.35
'0:01.383',-2.59
'0:01.387',-2.75
'0:01.391',-2.93
'0:01.395',-3.15
'0:01.398',-3.47
'0:01.402',-3.63
'0:01.406',-3.45
'0:01.410',-3.25
'0:01.414',-3.11
'0:01.418',-3
'0:01.422',-2.86
'0:01.426',-2.86
'0:01.430',-3.08
'0:01.434',-3.49
'0:01.438',-4
'0:01.441',-4.12
'0:01.445',-3.52
'0:01.449',-2.02
'0:01.453',0.61
'0:01.457',4.05
'0:01.461',7.2
'0:01.465',9.06
'0:01.469',8.48
'0:01.473',5.51
'0:01.477',1.46
'0:01.480',-2.37
'0:01.484',-4.94
'0:01.488',-6.12
'0:01.492',-6.38
'0:01.496',-6.02
'0:01.500',-5.3
'0:01.504',-4.46
'0:01.508',-3.7
'0:01.512',-3.11
'0:01.516',-2.76
'0:01.520',-2.52
'0:01.523',-2.23
'0:01.527',-2.21
'0:01.531',-2.22
'0:01.535',-1.18
'0:01.539',-0.89
'0:01.543',-0.64
'0:01.547',-0.45
'0:01.551',-0.2
'0:01.555',0.05
'0:01.559',0.24
'0:01.563',0.4
'0:01.566',0.51
'0:01.570',0.65
'0:01.574',0.87
'0:01.578',1.09
'0:01.582',1.34
'0:01.586',1.68
'0:01.590',1.97
'0:01.594',2.19
'0:01.598',2.36
'0:01.602',2.51
'0:01.605',2.44
'0:01.609',2.39
'0:01.613',2.51
'0:01.617',2.52
'0:01.621',2.4
'0:01.625',2.26
'0:01.629',2.2
'0:01.633',2.09
'0:01.637',1.82
'0:01.641',1.63
'0:01.645',1.52
'0:01.648',1.35
'0:01.652',1.13
'0:01.656',0.91
'0:01.660',0.72
'0:01.664',0.5
'0:01.668',0.35
'0:01.672',0.2
'0:01.676',0.04
'0:01.680',-0.07
'0:01.684',0.05
'0:01.688',0.5
'0:01.691',0.98
'0:01.695',1.35
'0:01.699',1.54
'0:01.703',1.6
'0:01.707',1.66
'0:01.711',1.69
'0:01.715',1.76
'0:01.719',2
'0:01.723',1.93
'0:01.727',1.93
'0:01.730',1.93
'0:01.734',1.93
'0:01.738',1.93
'0:01.742',1.93
'0:01.746',1.93
'0:01.750',1.93
'0:01.754',1.93
'0:01.758',0.83
'0:01.762',0.02
'0:01.766',-0.28
'0:01.770',-0.53
'0:01.773',-0.77
'0:01.777',-0.87
'0:01.781',-0.86
'0:01.785',-0.85
'0:01.789',-0.87
'0:01.793',-0.84
'0:01.797',-0.78
'0:01.801',-0.75
'0:01.805',-0.7
'0:01.809',-0.84
'0:01.813',-1.21
'0:01.816',-1.64
'0:01.820',-1.75
'0:01.824',-1.43
'0:01.828',-0.36
'0:01.832',1.99
'0:01.836',5.47
'0:01.840',8.91
'0:01.844',11.09
'0:01.848',10.69
'0:01.852',7.6
'0:01.855',3.12
'0:01.859',-1.19
'0:01.863',-4.09
'0:01.867',-5.4
'0:01.871',-5.68
'0:01.875',-5.28
'0:01.879',-4.61
'0:01.883',-3.99
'0:01.887',-3.54
'0:01.891',-3.27
'0:01.895',-3.02
'0:01.898',-2.71
'0:01.902',-2.49
'0:01.906',-2.33
'0:01.910',-2.31
'0:01.914',-2.29
'0:01.918',-2.19
'0:01.922',-2.05
'0:01.926',-1.9
'0:01.930',-1.71
'0:01.934',-1.51
'0:01.938',-1.32
'0:01.941',-1.17
'0:01.945',-1.02
'0:01.949',-0.88
'0:01.953',-0.66
'0:01.957',-0.38
'0:01.961',-0.17
'0:01.965',0.04
'0:01.969',0.16
'0:01.973',0.32
'0:01.977',0.65
'0:01.980',0.99
'0:01.984',1.19
'0:01.988',1.41
'0:01.992',1.54
'0:01.996',1.41
'0:02.000',1.35
'0:02.004',1.37
'0:02.008',1.28
'0:02.012',1.18
'0:02.016',1.1
'0:02.020',1.02
'0:02.023',0.91
'0:02.027',0.69
'0:02.031',0.43
'0:02.035',0.06
'0:02.039',-0.3
'0:02.043',-0.5
'0:02.047',-0.74
'0:02.051',-1.01
'0:02.055',-1.08
'0:02.059',-0.97
'0:02.063',-0.94
'0:02.066',-0.85
'0:02.070',-0.66
'0:02.074',-0.56
'0:02.078',-0.34
'0:02.082',-0.05
'0:02.086',0.1
'0:02.090',0.15
'0:02.094',0.12
'0:02.098',0.02
'0:02.102',-0.14
'0:02.105',-0.36
'0:02.109',-0.55
'0:02.113',-0.65
'0:02.117',-0.63
'0:02.121',-0.58
'0:02.125',-0.6
'0:02.129',-0.65
'0:02.133',-0.81
'0:02.137',-1.08
'0:02.141',-1.41
'0:02.145',-1.67
'0:02.148',-1.9
'0:02.152',-2.13
'0:02.156',-2.3
'0:02.160',-2.41
'0:02.164',-2.55
'0:02.168',-2.65
'0:02.172',-2.65
'0:02.176',-2.68
'0:02.180',-2.7
'0:02.184',-2.82
'0:02.188',-2.95
'0:02.191',-3.02
'0:02.195',-3.08
'0:02.199',-3.09
'0:02.203',-2.79
'0:02.207',-1.79
'0:02.211',0.17
'0:02.215',3.19
'0:02.219',6.56
'0:02.223',9.13
'0:02.227',9.95
'0:02.230',8.03
'0:02.234',4.31
'0:02.238',0.36
'0:02.242',-2.87
'0:02.246',-4.7
'0:02.250',-5.44
'0:02.254',-5.46
'0:02.258',-5.1
'0:02.262',-4.61
'0:02.266',-4.12
'0:02.270',-3.71
'0:02.273',-3.34
'0:02.277',-2.98
'0:02.281',-2.61
'0:02.285',-2.25
'0:02.289',-1.9
'0:02.293',-1.61
'0:02.297',-1.32
'0:02.301',-0.93
'0:02.305',-0.59
'0:02.309',-0.18
'0:02.313',0.23
'0:02.316',0.42
'0:02.320',0.44
'0:02.324',0.49
'0:02.328',0.6
'0:02.332',0.78
'0:02.336',0.91
'0:02.340',1.07
'0:02.344',1.32
'0:02.348',1.67
'0:02.352',1.91
'0:02.355',2.03
'0:02.359',1.93
'0:02.363',1.86
'0:02.367',1.87
'0:02.371',1.95
'0:02.375',1.98
'0:02.379',1.98
'0:02.383',1.89
'0:02.387',1.81
'0:02.391',1.64
'0:02.395',1.45
'0:02.398',1.27
'0:02.402',1.2
'0:02.406',1.05
'0:02.410',0.76
'0:02.414',0.29
'0:02.418',-0.18
'0:02.422',-0.5
'0:02.426',-0.61
'0:02.430',-0.63
'0:02.434',-0.72
'0:02.438',-0.87
'0:02.441',-0.95
'0:02.445',-0.92
'0:02.449',-0.62
'0:02.453',-0.13
'0:02.457',0.27
'0:02.461',0.65
'0:02.465',1.06
'0:02.469',1.39
'0:02.473',1.58
'0:02.477',1.66
'0:02.480',1.64
'0:02.484',1.69
'0:02.488',1.64
'0:02.492',1.54
'0:02.496',1.68
'0:02.500',1.9
'0:02.504',1.86
'0:02.508',1.64
'0:02.512',1.54
'0:02.516',1.5
'0:02.520',1.27
'0:02.523',0.94
'0:02.527',0.69
'0:02.531',0.36
'0:02.535',0.01
'0:02.539',-0.32
'0:02.543',-0.52
'0:02.547',-0.77
'0:02.551',-0.94
'0:02.555',-0.9
'0:02.559',-0.68
'0:02.563',-0.51
'0:02.566',-0.41
'0:02.570',-0.36
'0:02.574',-0.5
'0:02.578',-0.98
'0:02.582',-1.47
'0:02.586',-1.48
'0:02.590',-0.81
'0:02.594',0.97
'0:02.598',4.12
'0:02.602',7.72
'0:02.605',10.72
'0:02.609',11.72
'0:02.613',9.84
'0:02.617',5.94
'0:02.621',1.8
'0:02.625',-1.52
'0:02.629',-3.41
'0:02.633',-4.01
'0:02.637',-3.88
'0:02.641',-3.39
'0:02.645',-2.81
'0:02.648',-2.34
'0:02.652',-1.98
'0:02.656',-1.66
'0:02.660',-1.38
'0:02.664',-1.1
'0:02.668',-0.93
'0:02.672',-0.81
'0:02.676',-0.67
'0:02.680',-0.61
'0:02.684',-0.44
'0:02.688',-0.27
'0:02.691',-0.12
'0:02.695',-0.09
'0:02.699',-0.05
'0:02.703',0.08
'0:02.707',0.3
'0:02.711',0.54
'0:02.715',0.69
'0:02.719',0.81
'0:02.723',0.92
'0:02.727',0.98
'0:02.730',0.96
'0:02.734',1.14
'0:02.738',1.36
'0:02.742',1.52
'0:02.746',1.68
'0:02.750',1.85
'0:02.754',1.93
'0:02.758',1.9
'0:02.762',1.86
'0:02.766',1.88
'0:02.770',2.02
'0:02.773',2.08
'0:02.777',2.01
'0:02.781',1.86
'0:02.785',1.86
'0:02.789',1.83
'0:02.793',1.71
'0:02.797',1.42
'0:02.801',1.15
'0:02.805',0.96
'0:02.809',0.81
'0:02.813',0.57
'0:02.816',0.4
'0:02.820',0.23
'0:02.824',0.15
'0:02.828',0.27
'0:02.832',0.43
'0:02.836',0.63
'0:02.840',0.8
'0:02.844',0.88
'0:02.848',0.93
'0:02.852',0.99
'0:02.855',1.12
'0:02.859',1.29
'0:02.863',1.43
'0:02.867',1.49
'0:02.871',1.31
'0:02.875',1.01
'0:02.879',0.83
'0:02.883',0.63
'0:02.887',0.35
'0:02.891',-0.01
'0:02.895',-0.38
'0:02.898',-0.69
'0:02.902',-0.78
'0:02.906',-0.75
'0:02.910',-0.94
'0:02.914',-1.21
'0:02.918',-1.32
'0:02.922',-1.43
'0:02.926',-1.58
'0:02.930',-1.68
'0:02.934',-1.7
'0:02.938',-1.68
'0:02.941',-1.7
'0:02.945',-1.7
'0:02.949',-1.59
'0:02.953',-1.62
'0:02.957',-2.04
'0:02.961',-2.38
'0:02.965',-2.41
'0:02.969',-1.9
'0:02.973',-0.65
'0:02.977',1.86
'0:02.980',5.38
'0:02.984',8.62
'0:02.988',10.36
'0:02.992',9.34
'0:02.996',5.99
'0:03.000',1.76
'0:03.004',-1.83
'0:03.008',-4.02
'0:03.012',-5.22
'0:03.016',-5.64
'0:03.020',-5.55
'0:03.023',-5.02
'0:03.027',-4.28
'0:03.031',-3.64
'0:03.035',-3.12
'0:03.039',-2.84
'0:03.043',-2.63
'0:03.047',-2.29
'0:03.051',-1.9
'0:03.055',-1.44
'0:03.059',-1.12
'0:03.063',-1.08
'0:03.066',-1.11
'0:03.070',-0.95
'0:03.074',-0.73
'0:03.078',-0.65
'0:03.082',-0.49
'0:03.086',-0.22
'0:03.090',-0.02
'0:03.094',0.08
'0:03.098',0.25
'0:03.102',0.42
'0:03.105',0.72
'0:03.109',1
'0:03.113',1.19
'0:03.117',1.37
'0:03.121',1.37
'0:03.125',1.24
'0:03.129',1.25
'0:03.133',1.37
'0:03.137',1.53
'0:03.141',1.77
'0:03.145',1.91
'0:03.148',1.92
'0:03.152',1.86
'0:03.156',1.75
'0:03.160',1.63
'0:03.164',1.59
'0:03.168',1.65
'0:03.172',1.61
'0:03.176',1.13
'0:03.180',0.74
'0:03.184',0.69
'0:03.188',0.52
'0:03.191',0.18
'0:03.195',-0.06
'0:03.199',-0.04
'0:03.203',0.13
'0:03.207',0.44
'0:03.211',0.64
'0:03.215',0.61
'0:03.219',0.73
'0:03.223',0.97
'0:03.227',1.26
'0:03.230',1.61
'0:03.234',1.97
'0:03.238',2.37
'0:03.242',2.37
'0:03.246',2.08
'0:03.250',2.07
'0:03.254',2.06
'0:03.258',1.85
'0:03.262',1.63
'0:03.266',1.56
'0:03.270',1.53
'0:03.273',1.2
'0:03.277',0.83
'0:03.281',0.78
'0:03.285',0.75
'0:03.289',0.61
'0:03.293',0.37
'0:03.297',0.27
'0:03.301',0.25
'0:03.305',0.13
'0:03.309',0.28
'0:03.313',0.47
'0:03.316',0.51
'0:03.320',0.34
'0:03.324',0.39
'0:03.328',0.52
'0:03.332',0.46
'0:03.336',0.15
'0:03.340',-0.26
'0:03.344',-0.54
'0:03.348',-0.24
'0:03.352',0.68
'0:03.355',2.66
'0:03.359',5.79
'0:03.363',9.23
'0:03.367',11.92
'0:03.371',12.26
'0:03.375',9.9
'0:03.379',5.96
'0:03.383',1.8
'0:03.387',-1.27
'0:03.391',-2.74
'0:03.395',-3.14
'0:03.398',-2.97
'0:03.402',-2.55
'0:03.406',-2.05
'0:03.410',-1.58
'0:03.414',-1.14
'0:03.418',-0.78
'0:03.422',-0.61
'0:03.426',-0.43
'0:03.430',-0.17
'0:03.434',-0.02
'0:03.438',0.05
'0:03.441',0.16
'0:03.445',0.2
'0:03.449',0.14
'0:03.453',0.04
'0:03.457',0
'0:03.461',0.06
'0:03.465',0.25
'0:03.469',0.34
'0:03.473',0.35
'0:03.477',0.44
'0:03.480',0.59
'0:03.484',0.83
'0:03.488',1.05
'0:03.492',1.1
'0:03.496',1.07
'0:03.500',1.08
'0:03.504',1.2
'0:03.508',1.34
'0:03.512',1.42
'0:03.516',1.4
'0:03.520',1.35
'0:03.523',1.34
'0:03.527',1.24
'0:03.531',1.05
'0:03.535',0.83
'0:03.539',0.7
'0:03.543',0.76
'0:03.547',0.96
'0:03.551',1.02
'0:03.555',0.96
'0:03.559',0.56
'0:03.563',-0.01
'0:03.566',-0.38
'0:03.570',-0.51
'0:03.574',-0.8
'0:03.578',-1.23
'0:03.582',-1.48
'0:03.586',-1.53
'0:03.590',-1.49
'0:03.594',-1.31
'0:03.598',-1.19
'0:03.602',-1.07
'0:03.605',-1.04
'0:03.609',-1.09
'0:03.613',-1.09
'0:03.617',-1.04
'0:03.621',-0.92
'0:03.625',-0.9
'0:03.629',-0.85
'0:03.633',-0.82
'0:03.637',-0.8
'0:03.641',-0.83
'0:03.645',-1.1
'0:03.648',-1.46
'0:03.652',-1.82
'0:03.656',-2.17
'0:03.660',-2.46
'0:03.664',-2.57
'0:03.668',-2.77
'0:03.672',-2.94
'0:03.676',-3.05
'0:03.680',-3.14
'0:03.684',-3.26
'0:03.688',-3.31
'0:03.691',-3.23
'0:03.695',-3.18
'0:03.699',-3.13
'0:03.703',-3.12
'0:03.707',-3.06
'0:03.711',-2.99
'0:03.715',-3.04
'0:03.719',-3.35
'0:03.723',-3.65
'0:03.727',-3.63
'0:03.730',-2.91
'0:03.734',-1.07
'0:03.738',2.12
'0:03.742',5.79
'0:03.746',8.68
'0:03.750',9.75
'0:03.754',8.14
'0:03.758',4.52
'0:03.762',0.31
'0:03.766',-3.3
'0:03.770',-5.68
'0:03.773',-6.57
'0:03.777',-6.43
'0:03.781',-6.03
'0:03.785',-5.53
'0:03.789',-5.01
'0:03.793',-4.41
'0:03.797',-3.84
'0:03.801',-3.48
'0:03.805',-3.41
'0:03.809',-3.36
'0:03.813',-3.25
'0:03.816',-2.97
'0:03.820',-2.73
'0:03.824',-2.56
'0:03.828',-2.48
'0:03.832',-2.36
'0:03.836',-2.12
'0:03.840',-1.8
'0:03.844',-1.46
'0:03.848',-1.24
'0:03.852',-1.12
'0:03.855',-0.95
'0:03.859',-0.73
'0:03.863',-0.58
'0:03.867',-0.43
'0:03.871',-0.36
'0:03.875',-0.24
'0:03.879',-0.04
'0:03.883',0.15
'0:03.887',0.26
'0:03.891',0.52
'0:03.895',0.58
'0:03.898',0.51
'0:03.902',0.56
'0:03.906',0.51
'0:03.910',0.35
'0:03.914',0.2
'0:03.918',-0.02
'0:03.922',-0.17
'0:03.926',-0.33
'0:03.930',-0.39
'0:03.934',-0.41
'0:03.938',-0.51
'0:03.941',-0.61
'0:03.945',-0.73
'0:03.949',-0.82
'0:03.953',-1.04
'0:03.957',-1.17
'0:03.961',-1.02
'0:03.965',-0.82
'0:03.969',-0.65
'0:03.973',-0.48
'0:03.977',-0.39
'0:03.980',-0.24
'0:03.984',-0.09
'0:03.988',0.11
'0:03.992',0.27
'0:03.996',0.39
'0:04.000',0.56
'0:04.004',0.69
'0:04.008',0.71
'0:04.012',0.74
'0:04.016',0.67
'0:04.020',0.56
'0:04.023',0.31
'0:04.027',0.03
'0:04.031',-0.04
'0:04.035',-0.16
'0:04.039',-0.45
'0:04.043',-0.68
'0:04.047',-0.73
'0:04.051',-0.83
'0:04.055',-0.9
'0:04.059',-0.94
'0:04.063',-0.97
'0:04.066',-0.96
'0:04.070',-0.88
'0:04.074',-0.8
'0:04.078',-0.84
'0:04.082',-0.79
'0:04.086',-0.66
'0:04.090',-0.71
'0:04.094',-1.17
'0:04.098',-1.82
'0:04.102',-2.06
'0:04.105',-1.65
'0:04.109',-0.45
'0:04.113',1.98
'0:04.117',5.51
'0:04.121',8.97
'0:04.125',11.37
'0:04.129',11.25
'0:04.133',8.55
'0:04.137',4.53
'0:04.141',0.44
'0:04.145',-2.58
'0:04.148',-4.17
'0:04.152',-4.68
'0:04.156',-4.52
'0:04.160',-3.92
'0:04.164',-3.33
'0:04.168',-2.85
'0:04.172',-2.5
'0:04.176',-2.15
'0:04.180',-1.79
'0:04.184',-1.51
'0:04.188',-1.37
'0:04.191',-1.27
'0:04.195',-1.24
'0:04.199',-1.16
'0:04.203',-0.88
'0:04.207',-0.75
'0:04.211',-0.74
'0:04.215',-0.69
'0:04.219',-0.57
'0:04.223',-0.31
'0:04.227',-0.1
'0:04.230',0.03
'0:04.234',0.11
'0:04.238',0.3
'0:04.242',0.51
'0:04.246',0.68
'0:04.250',0.73
'0:04.254',0.73
'0:04.258',0.81
'0:04.262',1.08
'0:04.266',1.39
'0:04.270',1.55
'0:04.273',1.6
'0:04.277',1.65
'0:04.281',1.71
'0:04.285',1.66
'0:04.289',1.51
'0:04.293',1.36
'0:04.297',1.34
'0:04.301',1.25
'0:04.305',1.08
'0:04.309',0.98
'0:04.313',0.78
'0:04.316',0.72
'0:04.320',0.59
'0:04.324',0.45
'0:04.328',0.23
'0:04.332',0.13
'0:04.336',0
'0:04.340',-0.14
'0:04.344',0.07
'0:04.348',0.3
'0:04.352',0.54
'0:04.355',0.76
'0:04.359',0.98
'0:04.363',0.93
'0:04.367',0.83
'0:04.371',1
'0:04.375',1.2
'0:04.379',1.39
'0:04.383',1.37
'0:04.387',1.2
'0:04.391',0.96
'0:04.395',0.72
'0:04.398',0.57
'0:04.402',0.44
'0:04.406',0.26
'0:04.410',0.11
'0:04.414',-0.17
'0:04.418',-0.45
'0:04.422',-0.75
'0:04.426',-0.92
'0:04.430',-1.15
'0:04.434',-1.43
'0:04.438',-1.65
'0:04.441',-1.75
'0:04.445',-1.61
'0:04.449',-1.53
'0:04.453',-1.49
'0:04.457',-1.43
'0:04.461',-1.32
'0:04.465',-1.32
'0:04.469',-1.48
'0:04.473',-1.75
'0:04.477',-2.07
'0:04.480',-2.19
'0:04.484',-1.82
'0:04.488',-0.79
'0:04.492',1.49
'0:04.496',4.84
'0:04.500',8.04
'0:04.504',10.05
'0:04.508',9.74
'0:04.512',6.88
'0:04.516',2.83
'0:04.520',-1.1
'0:04.523',-3.85
'0:04.527',-5.13
'0:04.531',-5.4
'0:04.535',-5.14
'0:04.539',-4.67
'0:04.543',-4.06
'0:04.547',-3.27
'0:04.551',-2.53
'0:04.555',-2.15
'0:04.559',-1.99
'0:04.563',-1.92
'0:04.566',-1.78
'0:04.570',-1.63
'0:04.574',-1.34
'0:04.578',-1.02
'0:04.582',-0.9
'0:04.586',-0.97
'0:04.590',-0.96
'0:04.594',-0.68
'0:04.598',-0.38
'0:04.602',-0.29
'0:04.605',-0.17
'0:04.609',0.07
'0:04.613',0.05
'0:04.617',-0.07
'0:04.621',-0.19
'0:04.625',-0.14
'0:04.629',0.11
'0:04.633',0.27
'0:04.637',0.3
'0:04.641',0.23
'0:04.645',0.23
'0:04.648',0.37
'0:04.652',0.56
'0:04.656',0.61
'0:04.660',0.51
'0:04.664',0.47
'0:04.668',0.59
'0:04.672',0.63
'0:04.676',0.64
'0:04.680',0.69
'0:04.684',0.65
'0:04.688',0.58
'0:04.691',0.43
'0:04.695',0.11
'0:04.699',-0.11
'0:04.703',-0.11
'0:04.707',-0.12
'0:04.711',-0.12
'0:04.715',-0.93
'0:04.719',-1.18
'0:04.723',-1.02
'0:04.727',-0.75
'0:04.730',-0.46
'0:04.734',-0.21
'0:04.738',-0.09
'0:04.742',-0.02
'0:04.746',0.05
'0:04.750',0.15
'0:04.754',0.32
'0:04.758',0.42
'0:04.762',0.49
'0:04.766',0.48
'0:04.770',0.42
'0:04.773',0.35
'0:04.777',0.25
'0:04.781',0.08
'0:04.785',-0.12
'0:04.789',-0.4
'0:04.793',-0.65
'0:04.797',-0.89
'0:04.801',-1.04
'0:04.805',-1.09
'0:04.809',-1.09
'0:04.813',-1.21
'0:04.816',-1.4
'0:04.820',-1.43
'0:04.824',-1.23
'0:04.828',-0.92
'0:04.832',-0.84
'0:04.836',-0.99
'0:04.840',-1.07
'0:04.844',-1.09
'0:04.848',-1.24
'0:04.852',-1.41
'0:04.855',-1.75
'0:04.859',-2.45
'0:04.863',-2.94
'0:04.867',-2.67
'0:04.871',-1.35
'0:04.875',1.43
'0:04.879',5.03
'0:04.883',8.17
'0:04.887',9.83
'0:04.891',8.96
'0:04.895',5.98
'0:04.898',2.17
'0:04.902',-1.23
'0:04.906',-3.43
'0:04.910',-4.53
'0:04.914',-4.67
'0:04.918',-4.26
'0:04.922',-3.67
'0:04.926',-3.08
'0:04.930',-2.66
'0:04.934',-2.37
'0:04.938',-2.07
'0:04.941',-1.72
'0:04.945',-1.43
'0:04.949',-1.14
'0:04.953',-0.99
'0:04.957',-0.99
'0:04.961',-0.77
'0:04.965',-0.36
'0:04.969',-0.04
'0:04.973',-0.02
'0:04.977',-0.05
'0:04.980',0.06
'0:04.984',0.2
'0:04.988',0.4
'0:04.992',0.61
'0:04.996',0.71
'0:05.000',0.64
'0:05.004',0.59
'0:05.008',0.78
'0:05.012',1.08
'0:05.016',1.31
'0:05.020',1.37
'0:05.023',1.31
'0:05.027',1.2
'0:05.031',1.12
'0:05.035',1.19
'0:05.039',1.34
'0:05.043',1.37
'0:05.047',1.35
'0:05.051',1.27
'0:05.055',1.18
'0:05.059',1.1
'0:05.063',0.93
'0:05.066',0.8
'0:05.070',0.74
'0:05.074',0.63
'0:05.078',0.49
'0:05.082',0.38
'0:05.086',0.16
'0:05.090',-0.02
'0:05.094',-0.11
'0:05.098',0
'0:05.102',0.17
'0:05.105',0.09
'0:05.109',0.1
'0:05.113',0.38
'0:05.117',0.71
'0:05.121',0.83
'0:05.125',0.81
'0:05.129',0.91
'0:05.133',1.18
'0:05.137',1.27
'0:05.141',1.24
'0:05.145',1.2
'0:05.148',1.12
'0:05.152',0.98
'0:05.156',0.78
'0:05.160',0.43
'0:05.164',0.15
'0:05.168',-0.18
'0:05.172',-0.46
'0:05.176',-0.82
'0:05.180',-1.17
'0:05.184',-1.33
'0:05.188',-1.36
'0:05.191',-1.56
'0:05.195',-1.92
'0:05.199',-2.24
'0:05.203',-2.31
'0:05.207',-2.4
'0:05.211',-2.5
'0:05.215',-2.53
'0:05.219',-2.48
'0:05.223',-2.38
'0:05.227',-2.14
'0:05.230',-2.09
'0:05.234',-2.38
'0:05.238',-2.93
'0:05.242',-3.19
'0:05.246',-2.73
'0:05.250',-1.47
'0:05.254',0.9
'0:05.258',4.28
'0:05.262',7.53
'0:05.266',9.37
'0:05.270',8.56
'0:05.273',5.35
'0:05.277',1.13
'0:05.281',-2.71
'0:05.285',-5.08
'0:05.289',-6.02
'0:05.293',-6.14
'0:05.297',-5.96
'0:05.301',-5.4
'0:05.305',-4.53
'0:05.309',-3.65
'0:05.313',-2.97
'0:05.316',-2.51
'0:05.320',-2.41
'0:05.324',-2.23
'0:05.328',-1.81
'0:05.332',-1.41
'0:05.336',-1.21
'0:05.340',-1.14
'0:05.344',-1.07
'0:05.348',-0.99
'0:05.352',-0.99
'0:05.355',-0.9
'0:05.359',-0.75
'0:05.363',-0.82
'0:05.367',-0.84
'0:05.371',-0.79
'0:05.375',-0.57
'0:05.379',-0.26
'0:05.383',-0.21
'0:05.387',-0.26
'0:05.391',-0.14
'0:05.395',0.1
'0:05.398',0.29
'0:05.402',0.4
'0:05.406',0.53
'0:05.410',0.48
'0:05.414',0.56
'0:05.418',0.94
'0:05.422',1.24
'0:05.426',1.04
'0:05.430',0.59
'0:05.434',0.46
'0:05.438',0.39
'0:05.441',0.38
'0:05.445',0.18
'0:05.449',-0.23
'0:05.453',-0.46
'0:05.457',-0.47
'0:05.461',-0.39
'0:05.465',-0.38
'0:05.469',-0.46
'0:05.473',-0.55
'0:05.477',-0.72
'0:05.480',-0.77
'0:05.484',-0.7
'0:05.488',-0.5
'0:05.492',-0.14
'0:05.496',0.15
'0:05.500',0.31
'0:05.504',0.4
'0:05.508',0.61
'0:05.512',0.79
'0:05.516',0.85
'0:05.520',0.93
'0:05.523',0.87
'0:05.527',0.79
'0:05.531',0.69
'0:05.535',0.65
'0:05.539',0.58
'0:05.543',0.44
'0:05.547',0.25
'0:05.551',0.08
'0:05.555',-0.04
'0:05.559',-0.16
'0:05.563',-0.46
'0:05.566',-0.77
'0:05.570',-0.88
'0:05.574',-0.97
'0:05.578',-1.07
'0:05.582',-1.16
'0:05.586',-1.11
'0:05.590',-0.95
'0:05.594',-0.8
'0:05.598',-0.78
'0:05.602',-0.66
'0:05.605',-0.63
'0:05.609',-0.8
'0:05.613',-1.17
'0:05.617',-1.43
'0:05.621',-1.48
'0:05.625',-1.14
'0:05.629',0.35
'0:05.633',3.39
'0:05.637',6.86
'0:05.641',9.6
'0:05.645',10.64
'0:05.648',9.15
'0:05.652',5.82
'0:05.656',1.93
'0:05.660',-1.32
'0:05.664',-3.21
'0:05.668',-4
'0:05.672',-3.99
'0:05.676',-3.6
'0:05.680',-3.01
'0:05.684',-2.45
'0:05.688',-1.94
'0:05.691',-1.63
'0:05.695',-1.29
'0:05.699',-0.84
'0:05.703',-0.57
'0:05.707',-0.48
'0:05.711',-0.29
'0:05.715',-0.1
'0:05.719',0
'0:05.723',0.22
'0:05.727',0.44
'0:05.730',0.49
'0:05.734',0.46
'0:05.738',0.42
'0:05.742',0.42
'0:05.746',0.54
'0:05.750',0.74
'0:05.754',0.85
'0:05.758',0.96
'0:05.762',1.05
'0:05.766',0.98
'0:05.770',0.92
'0:05.773',0.94
'0:05.777',1.03
'0:05.781',1.2
'0:05.785',1.42
'0:05.789',1.58
'0:05.793',1.56
'0:05.797',1.47
'0:05.801',1.39
'0:05.805',1.37
'0:05.809',1.33
'0:05.813',1.17
'0:05.816',1.01
'0:05.820',0.93
'0:05.824',0.85
'0:05.828',0.68
'0:05.832',0.42
'0:05.836',0.13
'0:05.840',-0.02
'0:05.844',-0.17
'0:05.848',-0.32
'0:05.852',-0.46
'0:05.855',-0.46
'0:05.859',-0.33
'0:05.863',-0.17
'0:05.867',-0.02
'0:05.871',0.2
'0:05.875',0.37
'0:05.879',0.52
'0:05.883',0.66
'0:05.887',0.8
'0:05.891',0.9
'0:05.895',0.88
'0:05.898',0.91
'0:05.902',0.85
'0:05.906',0.93
'0:05.910',0.79
'0:05.914',0.41
'0:05.918',0.08
'0:05.922',0.05
'0:05.926',0.01
'0:05.930',-0.28
'0:05.934',-0.56
'0:05.938',-0.73
'0:05.941',-0.89
'0:05.945',-1.04
'0:05.949',-1.22
'0:05.953',-1.37
'0:05.957',-1.63
'0:05.961',-1.77
'0:05.965',-1.77
'0:05.969',-1.73
'0:05.973',-1.68
'0:05.977',-1.7
'0:05.980',-1.71
'0:05.984',-1.82
'0:05.988',-2.2
'0:05.992',-2.82
'0:05.996',-3.16
'0:06.000',-3.01
'0:06.004',-2.14
'0:06.008',0.05
'0:06.012',3.43
'0:06.016',6.88
'0:06.020',9.39
'0:06.023',9.55
'0:06.027',6.95
'0:06.031',2.83
'0:06.035',-1.25
'0:06.039',-4.2
'0:06.043',-5.64
'0:06.047',-5.91
'0:06.051',-5.53
'0:06.055',-4.91
'0:06.059',-4.3
'0:06.063',-3.8
'0:06.066',-3.4
'0:06.070',-3.11
'0:06.074',-2.75
'0:06.078',-2.47
'0:06.082',-2.17
'0:06.086',-1.92
'0:06.090',-1.72
'0:06.094',-1.65
'0:06.098',-1.65
'0:06.102',-1.68
'0:06.105',-1.67
'0:06.109',-1.5
'0:06.113',-1.29
'0:06.117',-1.02
'0:06.121',-0.92
'0:06.125',-0.75
'0:06.129',-0.53
'0:06.133',-0.45
'0:06.137',-0.38
'0:06.141',-0.11
'0:06.145',0.21
'0:06.148',0.62
'0:06.152',1.03
'0:06.156',1.29
'0:06.160',1.24
'0:06.164',1.08
'0:06.168',1.19
'0:06.172',1.28
'0:06.176',1.39
'0:06.180',1.31
'0:06.184',1.22
'0:06.188',1.14
'0:06.191',1
'0:06.195',0.8
'0:06.199',0.57
'0:06.203',0.44
'0:06.207',0
'0:06.211',-0.29
'0:06.215',-0.56
'0:06.219',-0.74
'0:06.223',-0.82
'0:06.227',-0.83
'0:06.230',-0.75
'0:06.234',-0.6
'0:06.238',-0.41
'0:06.242',-0.28
'0:06.246',-0.24
'0:06.250',-0.26
'0:06.254',-0.19
'0:06.258',0.09
'0:06.262',0.36
'0:06.266',0.62
'0:06.270',0.76
'0:06.273',0.93
'0:06.277',0.93
'0:06.281',0.93
'0:06.285',0.93
'0:06.289',0.93
'0:06.293',0.73
'0:06.297',0.24
'0:06.301',0.1
'0:06.305',-0.09
'0:06.309',-0.27
'0:06.313',-0.53
'0:06.316',-0.8
'0:06.320',-1.09
'0:06.324',-1.22
'0:06.328',-1.26
'0:06.332',-1.22
'0:06.336',-1.08
'0:06.340',-1.02
'0:06.344',-1.02
'0:06.348',-0.99
'0:06.352',-0.97
'0:06.355',-1.02
'0:06.359',-1.15
'0:06.363',-1.65
'0:06.367',-2.09
'0:06.371',-2.23
'0:06.375',-1.81
'0:06.379',-0.34
'0:06.383',2.65
'0:06.387',6.48
'0:06.391',9.98
'0:06.395',12.04
'0:06.398',11.27
'0:06.402',8.07
'0:06.406',3.74
'0:06.410',-0.16
'0:06.414',-2.75
'0:06.418',-4
'0:06.422',-4.1
'0:06.426',-3.57
'0:06.430',-2.88
'0:06.434',-2.23
'0:06.438',-1.68
'0:06.441',-1.26
'0:06.445',-0.9
'0:06.449',-0.61
'0:06.453',-0.36
'0:06.457',-0.21
'0:06.461',-0.09
'0:06.465',0.15
'0:06.469',0.38
'0:06.473',0.5
'0:06.477',0.54
'0:06.480',0.56
'0:06.484',0.61
'0:06.488',0.76
'0:06.492',0.93
'0:06.496',1.1
'0:06.500',1.22
'0:06.504',1.29
'0:06.508',1.39
'0:06.512',1.47
'0:06.516',1.66
'0:06.520',1.99
'0:06.523',2.23
'0:06.527',2.35
'0:06.531',2.46
'0:06.535',2.56
'0:06.539',2.64
'0:06.543',2.76
'0:06.547',2.69
'0:06.551',2.62
'0:06.555',2.56
'0:06.559',2.41
'0:06.563',2.32
'0:06.566',2.28
'0:06.570',2.19
'0:06.574',1.81
'0:06.578',1.31
'0:06.582',1
'0:06.586',0.86
'0:06.590',0.8
'0:06.594',0.71
'0:06.598',0.56
'0:06.602',0.4
'0:06.605',0.3
'0:06.609',0.3
'0:06.613',0.42
'0:06.617',0.56
'0:06.621',0.64
'0:06.625',0.81
'0:06.629',0.98
'0:06.633',1.05
'0:06.637',1.13
'0:06.641',1.17
'0:06.645',1.19
'0:06.648',1.23
'0:06.652',1.36
'0:06.656',1.44
'0:06.660',1.49
'0:06.664',1.45
'0:06.668',1.21
'0:06.672',0.82
'0:06.676',0.49
'0:06.680',0.31
'0:06.684',0.17
'0:06.688',0
'0:06.691',-0.14
'0:06.695',-0.35
'0:06.699',-0.65
'0:06.703',-0.89
'0:06.707',-0.93
'0:06.711',-0.92
'0:06.715',-1
'0:06.719',-1.26
'0:06.723',-1.45
'0:06.727',-1.57
'0:06.730',-1.69
'0:06.734',-1.82
'0:06.738',-2.15
'0:06.742',-2.52
'0:06.746',-2.7
'0:06.750',-2.47
'0:06.754',-1.42
'0:06.758',0.96
'0:06.762',4.35
'0:06.766',7.51
'0:06.770',9.44
'0:06.773',8.97
'0:06.777',6.13
'0:06.781',2.17
'0:06.785',-1.67
'0:06.789',-4.44
'0:06.793',-5.75
'0:06.797',-6.01
'0:06.801',-5.61
'0:06.805',-5.01
'0:06.809',-4.4
'0:06.813',-3.82
'0:06.816',-3.33
'0:06.820',-2.92
'0:06.824',-2.73
'0:06.828',-2.57
'0:06.832',-2.3
'0:06.836',-2.09
'0:06.840',-1.88
'0:06.844',-1.65
'0:06.848',-1.43
'0:06.852',-1.41
'0:06.855',-1.24
'0:06.859',-0.77
'0:06.863',-0.58
'0:06.867',-0.7
'0:06.871',-0.75
'0:06.875',-0.65
'0:06.879',-0.63
'0:06.883',-0.64
'0:06.887',-0.73
'0:06.891',-0.8
'0:06.895',-0.62
'0:06.898',-0.15
'0:06.902',0.25
'0:06.906',0.37
'0:06.910',0.37
'0:06.914',0.54
'0:06.918',0.75
'0:06.922',0.95
'0:06.926',1.18
'0:06.930',1.26
'0:06.934',1.25
'0:06.938',1.21
'0:06.941',1.1
'0:06.945',0.74
'0:06.949',0.27
'0:06.953',0.06
'0:06.957',0.03
'0:06.961',-0.22
'0:06.965',-0.58
'0:06.969',-0.75
'0:06.973',-0.85
'0:06.977',-1
'0:06.980',-1.05
'0:06.984',-1.14
'0:06.988',-1.17
'0:06.992',-0.94
'0:06.996',-0.6
'0:07.000',-0.42
'0:07.004',-0.34
'0:07.008',-0.25
'0:07.012',-0.11
'0:07.016',0.07
'0:07.020',0.36
'0:07.023',0.59
'0:07.027',0.61
'0:07.031',0.66
'0:07.035',0.71
'0:07.039',0.63
'0:07.043',0.51
'0:07.047',0.39
'0:07.051',0.23
'0:07.055',0.09
'0:07.059',-0.18
'0:07.063',-0.48
'0:07.066',-0.8
'0:07.070',-0.99
'0:07.074',-1.07
'0:07.078',-1.04
'0:07.082',-1.13
'0:07.086',-1.25
'0:07.090',-1.33
'0:07.094',-1.45
'0:07.098',-1.43
'0:07.102',-1.21
'0:07.105',-0.99
'0:07.109',-1.02
'0:07.113',-1.35
'0:07.117',-1.91
'0:07.121',-2.46
'0:07.125',-2.63
'0:07.129',-1.82
'0:07.133',0.45
'0:07.137',3.61
'0:07.141',6.68
'0:07.145',8.9
'0:07.148',9.23
'0:07.152',7.03
'0:07.156',3.32
'0:07.160',-0.37
'0:07.164',-3.2
'0:07.168',-4.77
'0:07.172',-5.35
'0:07.176',-5.15
'0:07.180',-4.39
'0:07.184',-3.48
'0:07.188',-2.71
'0:07.191',-2.08
'0:07.195',-1.95
'0:07.199',-1.5
'0:07.203',-1.21
'0:07.207',-0.9
'0:07.211',-0.63
'0:07.215',-0.5
'0:07.219',-0.45
'0:07.223',-0.29
'0:07.227',-0.06
'0:07.230',0.1
'0:07.234',0.18
'0:07.238',0.23
'0:07.242',0.16
'0:07.246',0.18
'0:07.250',0.47
'0:07.254',0.89
'0:07.258',1.08
'0:07.262',1.05
'0:07.266',0.98
'0:07.270',1
'0:07.273',1.03
'0:07.277',1.2
'0:07.281',1.39
'0:07.285',1.45
'0:07.289',1.62
'0:07.293',1.89
'0:07.297',2.03
'0:07.301',1.94
'0:07.305',1.86
'0:07.309',1.85
'0:07.313',1.85
'0:07.316',1.89
'0:07.320',1.82
'0:07.324',1.71
'0:07.328',1.62
'0:07.332',1.44
'0:07.336',1.07
'0:07.340',0.64
'0:07.344',0.55
'0:07.348',0.59
'0:07.352',0.5
'0:07.355',0.27
'0:07.359',0.1
'0:07.363',0.11
'0:07.367',0.3
'0:07.371',0.44
'0:07.375',0.41
'0:07.379',0.28
'0:07.383',0.24
'0:07.387',0.44
'0:07.391',0.64
'0:07.395',0.69
'0:07.398',0.73
'0:07.402',0.85
'0:07.406',0.77
'0:07.410',0.51
'0:07.414',0.3
'0:07.418',0.27
'0:07.422',0.11
'0:07.426',-0.19
'0:07.430',-0.39
'0:07.434',-0.56
'0:07.438',-0.85
'0:07.441',-0.96
'0:07.445',-1.06
'0:07.449',-1.14
'0:07.453',-1.19
'0:07.457',-1.22
'0:07.461',-1.36
'0:07.465',-1.47
'0:07.469',-1.51
'0:07.473',-1.53
'0:07.477',-1.5
'0:07.480',-1.43
'0:07.484',-1.54
'0:07.488',-2.03
'0:07.492',-2.53
'0:07.496',-2.63
'0:07.500',-2.12
'0:07.504',-1.04
'0:07.508',1.39
'0:07.512',4.82
'0:07.516',7.81
'0:07.520',9.5
'0:07.523',8.62
'0:07.527',5.56
'0:07.531',1.48
'0:07.535',-2.32
'0:07.539',-4.67
'0:07.543',-5.86
'0:07.547',-6.25
'0:07.551',-5.92
'0:07.555',-5.3
'0:07.559',-4.61
'0:07.563',-3.98
'0:07.566',-3.74
'0:07.570',-3.65
'0:07.574',-3.28
'0:07.578',-2.77
'0:07.582',-2.5
'0:07.586',-2.46
'0:07.590',-2.45
'0:07.594',-2.37
'0:07.598',-2.11
'0:07.602',-1.77
'0:07.605',-1.65
'0:07.609',-1.6
'0:07.613',-1.46
'0:07.617',-1.34
'0:07.621',-1.39
'0:07.625',-1.36
'0:07.629',-1.26
'0:07.633',-1.23
'0:07.637',-1.13
'0:07.641',-0.83
'0:07.645',-0.65
'0:07.648',-0.56
'0:07.652',-0.45
'0:07.656',-0.23
'0:07.660',-0.09
'0:07.664',0
'0:07.668',0.11
'0:07.672',0.23
'0:07.676',0.45
'0:07.680',0.61
'0:07.684',0.49
'0:07.688',0.32
'0:07.691',0.12
'0:07.695',0.1
'0:07.699',0.08
'0:07.703',-0.17
'0:07.707',-0.54
'0:07.711',-0.93
'0:07.715',-1.26
'0:07.719',-1.43
'0:07.723',-1.48
'0:07.727',-1.41
'0:07.730',-1.44
'0:07.734',-1.5
'0:07.738',-1.61
'0:07.742',-1.72
'0:07.746',-1.7
'0:07.750',-1.58
'0:07.754',-1.31
'0:07.758',-1.1
'0:07.762',-0.97
'0:07.766',-0.84
'0:07.770',-0.63
'0:07.773',-0.53
'0:07.777',-0.53
'0:07.781',-0.54
'0:07.785',-0.63
'0:07.789',-0.77
'0:07.793',-0.94
'0:07.797',-1.02
'0:07.801',-1.07
'0:07.805',-1.11
'0:07.809',-1.24
'0:07.813',-1.37
'0:07.816',-1.56
'0:07.820',-1.73
'0:07.824',-1.95
'0:07.828',-2.21
'0:07.832',-2.48
'0:07.836',-2.68
'0:07.840',-2.67
'0:07.844',-2.57
'0:07.848',-2.35
'0:07.852',-2.16
'0:07.855',-2.09
'0:07.859',-2.28
'0:07.863',-2.7
'0:07.867',-3.13
'0:07.871',-3.23
'0:07.875',-2.8
'0:07.879',-1.26
'0:07.883',1.65
'0:07.887',5.29
'0:07.891',8.51
'0:07.895',10.25
'0:07.898',8.88
'0:07.902',4.98
'0:07.906',0.51
'0:07.910',-3.02
'0:07.914',-4.99
'0:07.918',-5.8
'0:07.922',-5.94
'0:07.926',-5.44
'0:07.930',-4.6
'0:07.934',-3.81
'0:07.938',-3.26
'0:07.941',-2.86
'0:07.945',-2.38
'0:07.949',-1.94
'0:07.953',-1.68
'0:07.957',-1.51
'0:07.961',-1.38
'0:07.965',-1.08
'0:07.969',-0.75
'0:07.973',-0.38
'0:07.977',0.07
'0:07.980',0.38
'0:07.984',0.54
'0:07.988',0.71
'0:07.992',0.96
'0:07.996',1.1
'0:08.000',1.26
'0:08.004',1.49
'0:08.008',1.78
'0:08.012',2.02
'0:08.016',2.2
'0:08.020',2.4
'0:08.023',2.54
'0:08.027',2.81
'0:08.031',3.24
'0:08.035',3.62
'0:08.039',3.86
'0:08.043',3.95
'0:08.047',3.95
'0:08.051',3.95
'0:08.055',3.88
'0:08.059',3.83
'0:08.063',3.7
'0:08.066',3.5
'0:08.070',3.13
'0:08.074',2.63
'0:08.078',2.32
'0:08.082',2.12
'0:08.086',2
'0:08.090',1.8
'0:08.094',1.56
'0:08.098',1.34
'0:08.102',1.14
'0:08.105',1.03
'0:08.109',1.02
'0:08.113',1.13
'0:08.117',1.3
'0:08.121',1.49
'0:08.125',1.62
'0:08.129',1.82
'0:08.133',2.05
'0:08.137',2.17
'0:08.141',2.3
'0:08.145',2.42
'0:08.148',2.44
'0:08.152',2.39
'0:08.156',2.12
'0:08.160',1.71
'0:08.164',1.4
'0:08.168',1.12
'0:08.172',0.88
'0:08.176',0.64
'0:08.180',0.41
'0:08.184',0.18
'0:08.188',-0.08
'0:08.191',-0.33
'0:08.195',-0.45
'0:08.199',-0.56
'0:08.203',-0.6
'0:08.207',-0.71
'0:08.211',-0.87
'0:08.215',-0.97
'0:08.219',-0.87
'0:08.223',-0.7
'0:08.227',-0.58
'0:08.230',-0.59
'0:08.234',-0.81
'0:08.238',-1.27
'0:08.242',-1.67
'0:08.246',-1.75
'0:08.250',-1.06
'0:08.254',1.02
'0:08.258',4.32
'0:08.262',7.83
'0:08.266',10.54
'0:08.270',11.14
'0:08.273',8.89
'0:08.277',4.89
'0:08.281',0.72
'0:08.285',-2.5
'0:08.289',-4.23
'0:08.293',-4.93
'0:08.297',-4.97
'0:08.301',-4.54
'0:08.305',-3.94
'0:08.309',-3.35
'0:08.313',-2.92
'0:08.316',-2.59
'0:08.320',-2.28
'0:08.324',-1.99
'0:08.328',-1.79
'0:08.332',-1.59
'0:08.336',-1.46
'0:08.340',-1.41
'0:08.344',-1.4
'0:08.348',-1.31
'0:08.352',-1.18
'0:08.355',-1.08
'0:08.359',-1.03
'0:08.363',-0.99
'0:08.367',-0.92
'0:08.371',-0.8
'0:08.375',-0.65
'0:08.379',-0.45
'0:08.383',-0.26
'0:08.387',-0.09
'0:08.391',0.02
'0:08.395',0.18
'0:08.398',0.44
'0:08.402',0.66
'0:08.406',0.76
'0:08.410',0.98
'0:08.414',1.08
'0:08.418',0.95
'0:08.422',0.81
'0:08.426',0.86
'0:08.430',0.85
'0:08.434',0.73
'0:08.438',0.44
'0:08.441',0.12
'0:08.445',-0.24
'0:08.449',-0.41
'0:08.453',-0.45
'0:08.457',-0.61
'0:08.461',-0.96
'0:08.465',-1.34
'0:08.469',-1.34
'0:08.473',-1.41
'0:08.477',-1.71
'0:08.480',-1.83
'0:08.484',-1.7
'0:08.488',-1.45
'0:08.492',-1.21
'0:08.496',-0.99
'0:08.500',-0.79
'0:08.504',-0.62
'0:08.508',-0.51
'0:08.512',-0.4
'0:08.516',-0.23
'0:08.520',0
'0:08.523',0.25
'0:08.527',0.35
'0:08.531',0.36
'0:08.535',0.42
'0:08.539',0.26
'0:08.543',-0.01
'0:08.547',-0.24
'0:08.551',-0.38
'0:08.555',-0.48
'0:08.559',-0.68
'0:08.563',-0.9
'0:08.566',-1.19
'0:08.570',-1.48
'0:08.574',-1.76
'0:08.578',-1.97
'0:08.582',-1.99
'0:08.586',-1.99
'0:08.590',-1.7
'0:08.594',-1.58
'0:08.598',-1.46
'0:08.602',-1.49
'0:08.605',-1.57
'0:08.609',-1.93
'0:08.613',-2.3
'0:08.617',-2.41
'0:08.621',-1.96
'0:08.625',-0.61
'0:08.629',1.95
'0:08.633',5.51
'0:08.637',8.76
'0:08.641',10.74
'0:08.645',10.08
'0:08.648',6.98
'0:08.652',2.85
'0:08.656',-1.04
'0:08.660',-3.74
'0:08.664',-5.03
'0:08.668',-5.37
'0:08.672',-5.03
'0:08.676',-4.34
'0:08.680',-3.63
'0:08.684',-3.03
'0:08.688',-2.62
'0:08.691',-2.37
'0:08.695',-2.36
'0:08.699',-2.36
'0:08.703',-2.36
'0:08.707',-1.39
'0:08.711',-1.1
'0:08.715',-0.79
'0:08.719',-0.43
'0:08.723',-0.54
'0:08.727',-0.72
'0:08.730',-0.65
'0:08.734',-0.48
'0:08.738',-0.11
'0:08.742',0.04
'0:08.746',0.19
'0:08.750',0.44
'0:08.754',0.69
'0:08.758',0.86
'0:08.762',0.98
'0:08.766',1.03
'0:08.770',1.24
'0:08.773',1.52
'0:08.777',1.76
'0:08.781',1.96
'0:08.785',2.11
'0:08.789',2.17
'0:08.793',2.15
'0:08.797',2.07
'0:08.801',2.02
'0:08.805',2.11
'0:08.809',2.21
'0:08.813',2.24
'0:08.816',2.07
'0:08.820',1.77
'0:08.824',1.41
'0:08.828',1.07
'0:08.832',0.76
'0:08.836',0.43
'0:08.840',0.06
'0:08.844',-0.22
'0:08.848',-0.46
'0:08.852',-0.48
'0:08.855',-0.39
'0:08.859',-0.28
'0:08.863',-0.16
'0:08.867',-0.01
'0:08.871',0.11
'0:08.875',0.18
'0:08.879',0.23
'0:08.883',0.31
'0:08.887',0.38
'0:08.891',0.51
'0:08.895',0.52
'0:08.898',0.37
'0:08.902',0.12
'0:08.906',-0.14
'0:08.910',-0.34
'0:08.914',-0.49
'0:08.918',-0.71
'0:08.922',-0.85
'0:08.926',-1.08
'0:08.930',-1.47
'0:08.934',-1.78
'0:08.938',-1.92
'0:08.941',-2.11
'0:08.945',-2.46
'0:08.949',-2.68
'0:08.953',-2.87
'0:08.957',-2.94
'0:08.961',-2.89
'0:08.965',-2.72
'0:08.969',-2.53
'0:08.973',-2.48
'0:08.977',-2.61
'0:08.980',-2.95
'0:08.984',-3.4
'0:08.988',-3.55
'0:08.992',-3.44
'0:08.996',-2.71
'0:09.000',-0.75
'0:09.004',2.56
'0:09.008',6.03
'0:09.012',8.68
'0:09.016',9.28
'0:09.020',7.17
'0:09.023',3.52
'0:09.027',-0.29
'0:09.031',-3.33
'0:09.035',-5.08
'0:09.039',-5.73
'0:09.043',-5.71
'0:09.047',-5.24
'0:09.051',-4.54
'0:09.055',-4.04
'0:09.059',-3.77
'0:09.063',-3.52
'0:09.066',-3.23
'0:09.070',-2.91
'0:09.074',-2.68
'0:09.078',-2.6
'0:09.082',-2.62
'0:09.086',-2.52
'0:09.090',-2.31
'0:09.094',-2.1
'0:09.098',-2.02
'0:09.102',-1.89
'0:09.105',-1.77
'0:09.109',-1.7
'0:09.113',-1.65
'0:09.117',-1.61
'0:09.121',-1.58
'0:09.125',-1.45
'0:09.129',-1.24
'0:09.133',-1.17
'0:09.137',-1.17
'0:09.141',-1.15
'0:09.145',-1.01
'0:09.148',-0.76
'0:09.152',-0.49
'0:09.156',-0.25
'0:09.160',-0.21
'0:09.164',-0.23
'0:09.168',-0.13
'0:09.172',-0.07
'0:09.176',-0.18
'0:09.180',-0.34
'0:09.184',-0.41
'0:09.188',-0.49
'0:09.191',-0.68
'0:09.195',-0.92
'0:09.199',-1.02
'0:09.203',-1.07
'0:09.207',-1.34
'0:09.211',-1.64
'0:09.215',-1.92
'0:09.219',-1.99
'0:09.223',-1.9
'0:09.227',-1.79
'0:09.230',-1.52
'0:09.234',-1.26
'0:09.238',-1.09
'0:09.242',-1.02
'0:09.246',-0.98
'0:09.250',-0.97
'0:09.254',-0.89
'0:09.258',-0.78
'0:09.262',-0.61
'0:09.266',-0.54
'0:09.270',-0.58
'0:09.273',-0.68
'0:09.277',-0.69
'0:09.281',-0.61
'0:09.285',-0.71
'0:09.289',-0.89
'0:09.293',-1.08
'0:09.297',-1.22
'0:09.301',-1.31
'0:09.305',-1.28
'0:09.309',-1.26
'0:09.313',-1.31
'0:09.316',-1.46
'0:09.320',-1.6
'0:09.324',-1.58
'0:09.328',-1.46
'0:09.332',-1.56
'0:09.336',-1.67
'0:09.340',-1.75
'0:09.344',-1.77
'0:09.348',-1.75
'0:09.352',-1.7
'0:09.355',-1.78
'0:09.359',-2.19
'0:09.363',-2.59
'0:09.367',-2.62
'0:09.371',-2.01
'0:09.375',-0.15
'0:09.379',3.13
'0:09.383',6.77
'0:09.387',9.49
'0:09.391',9.89
'0:09.395',7.67
'0:09.398',4.06
'0:09.402',0.35
'0:09.406',-2.6
'0:09.410',-4.33
'0:09.414',-4.95
'0:09.418',-4.86
'0:09.422',-4.32
'0:09.426',-3.62
'0:09.430',-3.03
'0:09.434',-2.43
'0:09.438',-1.97
'0:09.441',-1.65
'0:09.445',-1.57
'0:09.449',-1.45
'0:09.453',-1.18
'0:09.457',-0.77
'0:09.461',-0.54
'0:09.465',-0.53
'0:09.469',-0.53
'0:09.473',-0.46
'0:09.477',-0.39
'0:09.480',-0.26
'0:09.484',-0.07
'0:09.488',0.13
'0:09.492',0.18
'0:09.496',0.14
'0:09.500',0.29
'0:09.504',0.67
'0:09.508',1.04
'0:09.512',1.17
'0:09.516',1.3
'0:09.520',1.57
'0:09.523',1.91
'0:09.527',2.03
'0:09.531',2.02
'0:09.535',2.1
'0:09.539',2.23
'0:09.543',2.49
'0:09.547',2.51
'0:09.551',2.49
'0:09.555',2.57
'0:09.559',2.58
'0:09.563',2.39
'0:09.566',2.09
'0:09.570',1.86
'0:09.574',1.81
'0:09.578',1.63
'0:09.582',1.29
'0:09.586',0.95
'0:09.590',0.78
'0:09.594',0.62
'0:09.598',0.61
'0:09.602',0.81
'0:09.605',0.96
'0:09.609',1.11
'0:09.613',1.25
'0:09.617',1.05
'0:09.621',0.8
'0:09.625',0.91
'0:09.629',1.2
'0:09.633',1.25
'0:09.637',1.23
'0:09.641',1.32
'0:09.645',1.37
'0:09.648',1.24
'0:09.652',1.03
'0:09.656',0.97
'0:09.660',1.15
'0:09.664',1.12
'0:09.668',0.67
'0:09.672',0.17
'0:09.676',-0.07
'0:09.680',-0.2
'0:09.684',-0.38
'0:09.688',-0.61
'0:09.691',-0.73
'0:09.695',-0.77
'0:09.699',-1.05
'0:09.703',-1.51
'0:09.707',-1.82
'0:09.711',-1.79
'0:09.715',-1.72
'0:09.719',-1.62
'0:09.723',-1.6
'0:09.727',-1.81
'0:09.730',-2.23
'0:09.734',-2.69
'0:09.738',-2.76
'0:09.742',-2.27
'0:09.746',-1.02
'0:09.750',1.62
'0:09.754',5.21
'0:09.758',8.47
'0:09.762',10.19
'0:09.766',9.3
'0:09.770',5.93
'0:09.773',1.48
'0:09.777',-2.56
'0:09.781',-5.02
'0:09.785',-6.05
'0:09.789',-6.37
'0:09.793',-6.25
'0:09.797',-5.73
'0:09.801',-5.04
'0:09.805',-4.39
'0:09.809',-3.98
'0:09.813',-3.7
'0:09.816',-3.43
'0:09.820',-3.33
'0:09.824',-3.25
'0:09.828',-3.04
'0:09.832',-2.77
'0:09.836',-2.5
'0:09.840',-2.23
'0:09.844',-1.98
'0:09.848',-1.72
'0:09.852',-1.55
'0:09.855',-1.41
'0:09.859',-1.34
'0:09.863',-1.28
'0:09.867',-1.14
'0:09.871',-1.09
'0:09.875',-1.14
'0:09.879',-1.08
'0:09.883',-0.98
'0:09.887',-0.8
'0:09.891',-0.67
'0:09.895',-0.56
'0:09.898',-0.48
'0:09.902',-0.38
'0:09.906',-0.16
'0:09.910',-0.03
'0:09.914',0
'0:09.918',0.04
'0:09.922',0.2
'0:09.926',0.47
'0:09.930',0.62
'0:09.934',0.69
'0:09.938',0.53
'0:09.941',0.24
'0:09.945',0.07
'0:09.949',0.03
'0:09.953',-0.05
'0:09.957',-0.22
'0:09.961',-0.37
'0:09.965',-0.4
'0:09.969',-0.31
'0:09.973',-0.21
'0:09.977',-0.23
'0:09.980',-0.38
'0:09.984',-0.58
'0:09.988',-0.43
'0:09.992',-0.23
'0:09.996',-0.21
'0:10.000',-0.13
'0:10.004',0.08
'0:10.008',0.38
'0:10.012',0.75
'0:10.016',1.02
'0:10.020',1.03
'0:10.023',1
'0:10.027',0.93
'0:10.031',0.86
'0:10.035',0.87
'0:10.039',0.87
'0:10.043',0.61
'0:10.047',0.34
'0:10.051',0.2
'0:10.055',0.15
'0:10.059',0.15
'0:10.063',0.06
'0:10.066',0.01
'0:10.070',-0.02
'0:10.074',0.07
'0:10.078',0.12
'0:10.082',0.08
'0:10.086',0.05
'0:10.090',0.04
'0:10.094',-0.08
'0:10.098',-0.11
'0:10.102',-0.15
'0:10.105',-0.31
'0:10.109',-0.37
'0:10.113',-0.3
'0:10.117',0.33
'0:10.121',1.95
'0:10.125',4.79
'0:10.129',8.17
'0:10.133',10.87
'0:10.137',11.92
'0:10.141',10.4
'0:10.145',7.03
'0:10.148',3.33
'0:10.152',0.24
'0:10.156',-1.65
'0:10.160',-2.44
'0:10.164',-2.53
'0:10.168',-2.23
'0:10.172',-1.73
'0:10.176',-1.07
'0:10.180',-0.42
'0:10.184',0.02
'0:10.188',0.29
'0:10.191',0.52
'0:10.195',0.74
'0:10.199',0.89
'0:10.203',1.03
'0:10.207',1.15
'0:10.211',1.22
'0:10.215',1.35
'0:10.219',1.54
'0:10.223',1.8
'0:10.227',1.96
'0:10.230',2.01
'0:10.234',2.15
'0:10.238',2.32
'0:10.242',2.34
'0:10.246',2.38
'0:10.250',2.41
'0:10.254',2.55
'0:10.258',2.71
'0:10.262',2.94
'0:10.266',3.05
'0:10.270',3.07
'0:10.273',3.17
'0:10.277',3.28
'0:10.281',3.45
'0:10.285',3.56
'0:10.289',3.48
'0:10.293',3.39
'0:10.297',3.36
'0:10.301',3.29
'0:10.305',3.29
'0:10.309',3.17
'0:10.313',2.98
'0:10.316',2.83
'0:10.320',2.56
'0:10.324',2.29
'0:10.328',2.05
'0:10.332',1.82
'0:10.336',1.66
'0:10.340',1.59
'0:10.344',1.27
'0:10.348',1.22
'0:10.352',1.22
'0:10.355',1.22
'0:10.359',1.22
'0:10.363',1.35
'0:10.367',1.63
'0:10.371',1.75
'0:10.375',1.78
'0:10.379',1.73
'0:10.383',1.83
'0:10.387',1.91
'0:10.391',1.91
'0:10.395',1.8
'0:10.398',1.53
'0:10.402',1.24
'0:10.406',1.07
'0:10.410',0.85
'0:10.414',0.58
'0:10.418',0.22
'0:10.422',-0.16
'0:10.426',-0.34
'0:10.430',-0.43
'0:10.434',-0.56
'0:10.438',-0.71
'0:10.441',-0.9
'0:10.445',-1.01
'0:10.449',-1.07
'0:10.453',-1.11
'0:10.457',-1.12
'0:10.461',-1.22
'0:10.465',-1.41
'0:10.469',-1.63
'0:10.473',-1.85
'0:10.477',-2.23
'0:10.480',-2.64
'0:10.484',-2.84
'0:10.488',-2.45
'0:10.492',-1.11
'0:10.496',1.57
'0:10.500',5.18
'0:10.504',8.49
'0:10.508',10.39
'0:10.512',9.5
'0:10.516',6.19
'0:10.520',2
'0:10.523',-1.76
'0:10.527',-4.38
'0:10.531',-5.6
'0:10.535',-5.73
'0:10.539',-5.24
'0:10.543',-4.61
'0:10.547',-4.2
'0:10.551',-3.71
'0:10.555',-3.24
'0:10.559',-3.01
'0:10.563',-2.89
'0:10.566',-2.7
'0:10.570',-2.42
'0:10.574',-2.21
'0:10.578',-2.02
'0:10.582',-1.79
'0:10.586',-1.67
'0:10.590',-1.7
'0:10.594',-1.75
'0:10.598',-1.63
'0:10.602',-1.49
'0:10.605',-1.41
'0:10.609',-1.31
'0:10.613',-1.14
'0:10.617',-0.99
'0:10.621',-0.74
'0:10.625',-0.53
'0:10.629',-0.36
'0:10.633',-0.22
'0:10.637',-0.18
'0:10.641',-0.09
'0:10.645',0.17
'0:10.648',0.48
'0:10.652',0.65
'0:10.656',0.73
'0:10.660',0.82
'0:10.664',0.8
'0:10.668',0.68
'0:10.672',0.49
'0:10.676',0.29
'0:10.680',-0.03
'0:10.684',-0.45
'0:10.688',-0.85
'0:10.691',-1.13
'0:10.695',-1.34
'0:10.699',-1.47
'0:10.703',-1.81
'0:10.707',-2.44
'0:10.711',-2.66
'0:10.715',-2.9
'0:10.719',-2.81
'0:10.723',-2.53
'0:10.727',-2.36
'0:10.730',-2.36
'0:10.734',-2.19
'0:10.738',-1.97
'0:10.742',-1.92
'0:10.746',-1.86
'0:10.750',-1.74
'0:10.754',-1.6
'0:10.758',-1.48
'0:10.762',-1.34
'0:10.766',-1.39
'0:10.770',-1.43
'0:10.773',-1.21
'0:10.777',-0.85
'0:10.781',-0.75
'0:10.785',-0.95
'0:10.789',-1.09
'0:10.793',-1.21
'0:10.797',-1.31
'0:10.801',-1.3
'0:10.805',-1.28
'0:10.809',-1.48
'0:10.813',-1.72
'0:10.816',-1.7
'0:10.820',-1.45
'0:10.824',-1.01
'0:10.828',-0.85
'0:10.832',-0.92
'0:10.836',-1.06
'0:10.840',-1.07
'0:10.844',-1.19
'0:10.848',-1.31
'0:10.852',-1.36
'0:10.855',-1.51
'0:10.859',-1.53
'0:10.863',-0.97
'0:10.867',0.47
'0:10.871',3.13
'0:10.875',6.65
'0:10.879',9.75
'0:10.883',11.58
'0:10.887',10.83
'0:10.891',7.5
'0:10.895',3.16
'0:10.898',-0.69
'0:10.902',-2.34
'0:10.906',-2.34
'0:10.910',-2.34
'0:10.914',-2.33
'0:10.918',-2.33
'0:10.922',-2.34
'0:10.926',-2.34
'0:10.930',-1.6
'0:10.934',-1.38
'0:10.938',-1.16
'0:10.941',-0.99
'0:10.945',-0.82
'0:10.949',-0.58
'0:10.953',-0.43
'0:10.957',-0.33
'0:10.961',-0.22
'0:10.965',-0.12
'0:10.969',-0.07
'0:10.973',-0.09
'0:10.977',0.04
'0:10.980',0.28
'0:10.984',0.54
'0:10.988',0.74
'0:10.992',0.78
'0:10.996',0.8
'0:11.000',0.89
'0:11.004',1
'0:11.008',1.06
'0:11.012',1.11
'0:11.016',1.23
'0:11.020',1.29
'0:11.023',1.3
'0:11.027',1.32
'0:11.031',1.34
'0:11.035',1.34
'0:11.039',1.34
'0:11.043',1.34
'0:11.047',1.34
'0:11.051',1.35
'0:11.055',1.35
'0:11.059',1.34
'0:11.063',1.34
'0:11.066',1.34
'0:11.070',1.34
'0:11.074',1.34
'0:11.078',1.35
'0:11.082',1.34
'0:11.086',1.34
'0:11.090',1.35
'0:11.094',1.35
'0:11.098',1.35
'0:11.102',1.34
'0:11.105',1.34
'0:11.109',1.34
'0:11.113',1.34
'0:11.117',1.34
'0:11.121',1.34
'0:11.125',1.34
'0:11.129',1.34
'0:11.133',1.34
'0:11.137',1.35
'0:11.141',1.34
'0:11.145',1.34
'0:11.148',1.34
'0:11.152',1.34
'0:11.156',1.35
'0:11.160',0.3
'0:11.164',0.33
'0:11.168',0.2
'0:11.172',0.08
'0:11.176',-0.05
'0:11.180',-0.29
'0:11.184',-0.34
'0:11.188',-0.37
'0:11.191',-0.5
'0:11.195',-0.53
'0:11.199',-0.53
'0:11.203',-0.62
'0:11.207',-0.68
'0:11.211',-0.65
'0:11.215',-0.45
'0:11.219',-0.35
'0:11.223',-0.41
'0:11.227',-0.79
'0:11.230',-1.33
'0:11.234',-1.59
'0:11.238',-1.18
'0:11.242',0.29
'0:11.246',3.03
'0:11.250',6.48
'0:11.254',9.56
'0:11.258',11.11
'0:11.262',9.94
'0:11.266',6.69
'0:11.270',2.81
'0:11.273',-0.77
'0:11.277',-3.13
'0:11.281',-4.12
'0:11.285',-4.15
'0:11.289',-3.68
'0:11.293',-2.95
'0:11.297',-2.27
'0:11.301',-1.68
'0:11.305',-1.3
'0:11.309',-1.09
'0:11.313',-0.76
'0:11.316',-0.26
'0:11.320',0.06
'0:11.324',0.2
'0:11.328',0.26
'0:11.332',0.45
'0:11.336',0.67
'0:11.340',0.83
'0:11.344',0.96
'0:11.348',1.2
'0:11.352',1.49
'0:11.355',1.71
'0:11.359',1.88
'0:11.363',1.84
'0:11.367',1.71
'0:11.371',1.59
'0:11.375',1.58
'0:11.379',1.68
'0:11.383',1.84
'0:11.387',2.01
'0:11.391',1.9
'0:11.395',1.64
'0:11.398',1.42
'0:11.402',1.41
'0:11.406',1.46
'0:11.410',1.63
'0:11.414',1.71
'0:11.418',1.51
'0:11.422',1.26
'0:11.426',1.07
'0:11.430',0.9
'0:11.434',0.73
'0:11.438',0.57
'0:11.441',0.41
'0:11.445',0.17
'0:11.449',-0.14
'0:11.453',-0.43
'0:11.457',-0.74
'0:11.461',-0.93
'0:11.465',-1.11
'0:11.469',-1.14
'0:11.473',-1
'0:11.477',-0.64
'0:11.480',-0.31
'0:11.484',-0.16
'0:11.488',-0.09
'0:11.492',0.14
'0:11.496',0.32
'0:11.500',0.44
'0:11.504',0.54
'0:11.508',0.54
'0:11.512',0.56
'0:11.516',0.5
'0:11.520',0.29
'0:11.523',0.07
'0:11.527',-0.1
'0:11.531',-0.12
'0:11.535',-0.16
'0:11.539',-0.47
'0:11.543',-0.98
'0:11.547',-1.28
'0:11.551',-1.36
'0:11.555',-1.38
'0:11.559',-1.49
'0:11.563',-1.66
'0:11.566',-1.88
'0:11.570',-1.94
'0:11.574',-1.85
'0:11.578',-1.75
'0:11.582',-1.6
'0:11.586',-1.51
'0:11.590',-1.5
'0:11.594',-1.59
'0:11.598',-1.76
'0:11.602',-1.97
'0:11.605',-2.37
'0:11.609',-2.77
'0:11.613',-2.78
'0:11.617',-1.84
'0:11.621',0.56
'0:11.625',4.09
'0:11.629',7.62
'0:11.633',10.14
'0:11.637',10.43
'0:11.641',8.01
'0:11.645',3.94
'0:11.648',-0.14
'0:11.652',-3
'0:11.656',-4.59
'0:11.660',-5.01
'0:11.664',-4.71
'0:11.668',-4.18
'0:11.672',-3.7
'0:11.676',-3.13
'0:11.680',-2.42
'0:11.684',-1.77
'0:11.688',-1.51
'0:11.691',-1.61
'0:11.695',-1.67
'0:11.699',-1.37
'0:11.703',-1.03
'0:11.707',-0.89
'0:11.711',-0.83
'0:11.715',-0.63
'0:11.719',-0.45
'0:11.723',-0.36
'0:11.727',-0.33
'0:11.730',-0.18
'0:11.734',-0.02
'0:11.738',0.1
'0:11.742',0.22
'0:11.746',0.29
'0:11.750',0.41
'0:11.754',0.55
'0:11.758',0.61
'0:11.762',0.7
'0:11.766',0.81
'0:11.770',0.86
'0:11.773',0.9
'0:11.777',1.14
'0:11.781',1.47
'0:11.785',1.59
'0:11.789',1.48
'0:11.793',1.44
'0:11.797',1.46
'0:11.801',1.39
'0:11.805',1.35
'0:11.809',1.22
'0:11.813',1.04
'0:11.816',0.98
'0:11.820',0.93
'0:11.824',0.85
'0:11.828',0.63
'0:11.832',0.54
'0:11.836',0.63
'0:11.840',0.66
'0:11.844',0.73
'0:11.848',1.19
'0:11.852',1.68
'0:11.855',1.88
'0:11.859',2.01
'0:11.863',2.06
'0:11.867',2.11
'0:11.871',2.3
'0:11.875',2.54
'0:11.879',2.75
'0:11.883',2.81
'0:11.887',2.78
'0:11.891',2.74
'0:11.895',2.63
'0:11.898',2.61
'0:11.902',2.6
'0:11.906',2.43
'0:11.910',2.01
'0:11.914',1.59
'0:11.918',1.21
'0:11.922',0.84
'0:11.926',0.55
'0:11.930',0.38
'0:11.934',0.37
'0:11.938',0.35
'0:11.941',0.33
'0:11.945',0.35
'0:11.949',0.28
'0:11.953',0.2
'0:11.957',0.16
'0:11.961',0.28
'0:11.965',0.44
'0:11.969',0.42
'0:11.973',0.25
'0:11.977',0.02
'0:11.980',-0.41
'0:11.984',-0.5
'0:11.988',-0.15
'0:11.992',0.41
'0:11.996',2.19
'0:12.000',5.26
'0:12.004',8.7
'0:12.008',11.4
'0:12.012',11.88
'0:12.016',9.52
'0:12.020',5.37
'0:12.023',1.08
'0:12.027',-2.14
'0:12.031',-3.93
'0:12.035',-4.51
'0:12.039',-4.32
'0:12.043',-3.99
'0:12.047',-3.59
'0:12.051',-2.94
'0:12.055',-2.27
'0:12.059',-1.81
'0:12.063',-1.57
'0:12.066',-1.23
'0:12.070',-0.99
'0:12.074',-1.15
'0:12.078',-1.16
'0:12.082',-0.87
'0:12.086',-0.7
'0:12.090',-0.37
'0:12.094',-0.12
'0:12.098',-0.21
'0:12.102',-0.18
'0:12.105',0.04
'0:12.109',0.22
'0:12.113',0.21
'0:12.117',0.14
'0:12.121',0.14
'0:12.125',0.18
'0:12.129',0.16
'0:12.133',0.31
'0:12.137',0.63
'0:12.141',0.83
'0:12.145',0.78
'0:12.148',0.74
'0:12.152',0.89
'0:12.156',0.93
'0:12.160',0.78
'0:12.164',0.64
'0:12.168',0.58
'0:12.172',0.43
'0:12.176',0.28
'0:12.180',0.22
'0:12.184',0.08
'0:12.188',0.06
'0:12.191',-0.08
'0:12.195',-0.48
'0:12.199',-0.86
'0:12.203',-1.17
'0:12.207',-1.44
'0:12.211',-1.52
'0:12.215',-1.43
'0:12.219',-1.34
'0:12.223',-1.33
'0:12.227',-0.96
'0:12.230',-0.7
'0:12.234',-0.76
'0:12.238',-0.89
'0:12.242',-0.84
'0:12.246',-0.87
'0:12.250',-0.92
'0:12.254',-0.76
'0:12.258',-0.41
'0:12.262',-0.51
'0:12.266',-0.81
'0:12.270',-1.24
'0:12.273',-1.54
'0:12.277',-1.65
'0:12.281',-1.73
'0:12.285',-1.88
'0:12.289',-2.1
'0:12.293',-2.35
'0:12.297',-2.63
'0:12.301',-2.74
'0:12.305',-2.77
'0:12.309',-2.93
'0:12.313',-3.17
'0:12.316',-3.37
'0:12.320',-3.43
'0:12.324',-3.46
'0:12.328',-3.4
'0:12.332',-3.25
'0:12.336',-3.14
'0:12.340',-3.12
'0:12.344',-3.24
'0:12.348',-3.54
'0:12.352',-3.77
'0:12.355',-4.23
'0:12.359',-4.57
'0:12.363',-4.23
'0:12.367',-3.25
'0:12.371',-1.25
'0:12.375',1.96
'0:12.379',5.38
'0:12.383',7.91
'0:12.387',8.21
'0:12.391',5.87
'0:12.395',2.07
'0:12.398',-1.79
'0:12.402',-4.62
'0:12.406',-6.09
'0:12.410',-6.45
'0:12.414',-6.31
'0:12.418',-5.75
'0:12.422',-5.09
'0:12.426',-4.57
'0:12.430',-4.01
'0:12.434',-3.62
'0:12.438',-3.39
'0:12.441',-3.11
'0:12.445',-2.77
'0:12.449',-2.53
'0:12.453',-2.17
'0:12.457',-1.89
'0:12.461',-1.66
'0:12.465',-1.35
'0:12.469',-1.18
'0:12.473',-1.01
'0:12.477',-0.81
'0:12.480',-0.55
'0:12.484',-0.3
'0:12.488',-0.15
'0:12.492',-0.07
'0:12.496',-0.09
'0:12.500',-0.01
'0:12.504',0.29
'0:12.508',0.47
'0:12.512',0.56
'0:12.516',0.68
'0:12.520',0.92
'0:12.523',1.25
'0:12.527',1.43
'0:12.531',1.51
'0:12.535',1.58
'0:12.539',1.68
'0:12.543',1.62
'0:12.547',1.55
'0:12.551',1.54
'0:12.555',1.6
'0:12.559',1.76
'0:12.563',2.01
'0:12.566',1.94
'0:12.570',1.69
'0:12.574',1.36
'0:12.578',1.05
'0:12.582',0.82
'0:12.586',0.65
'0:12.590',0.57
'0:12.594',0.74
'0:12.598',1.04
'0:12.602',1.43
'0:12.605',1.78
'0:12.609',2.11
'0:12.613',2.35
'0:12.617',2.6
'0:12.621',2.88
'0:12.625',3.11
'0:12.629',3.29
'0:12.633',3.29
'0:12.637',3.36
'0:12.641',3.44
'0:12.645',3.37
'0:12.648',3.3
'0:12.652',3.23
'0:12.656',3.12
'0:12.660',2.97
'0:12.664',2.65
'0:12.668',2.24
'0:12.672',1.92
'0:12.676',1.73
'0:12.680',1.64
'0:12.684',1.53
'0:12.688',1.31
'0:12.691',1.22
'0:12.695',1.2
'0:12.699',1.04
'0:12.703',0.98
'0:12.707',1.05
'0:12.711',1.11
'0:12.715',1.17
'0:12.719',1.18
'0:12.723',1.04
'0:12.727',0.76
'0:12.730',0.21
'0:12.734',-0.24
'0:12.738',-0.22
'0:12.742',0.49
'0:12.746',2.33
'0:12.750',5.38
'0:12.754',8.86
'0:12.758',11.59
'0:12.762',12.21
'0:12.766',10.15
'0:12.770',6.34
'0:12.773',2.24
'0:12.777',-1.07
'0:12.781',-3.08
'0:12.785',-3.92
'0:12.789',-3.97
'0:12.793',-3.56
'0:12.797',-2.92
'0:12.801',-2.27
'0:12.805',-1.88
'0:12.809',-1.66
'0:12.813',-1.6
'0:12.816',-1.55
'0:12.820',-1.48
'0:12.824',-1.33
'0:12.828',-1.16
'0:12.832',-1.02
'0:12.836',-0.82
'0:12.840',-0.62
'0:12.844',-0.52
'0:12.848',-0.51
'0:12.852',-0.48
'0:12.855',-0.47
'0:12.859',-0.29
'0:12.863',-0.07
'0:12.867',0.09
'0:12.871',0.38
'0:12.875',0.62
'0:12.879',0.71
'0:12.883',0.81
'0:12.887',1.05
'0:12.891',1.37
'0:12.895',1.5
'0:12.898',1.46
'0:12.902',1.51
'0:12.906',1.61
'0:12.910',1.63
'0:12.914',1.63
'0:12.918',1.41
'0:12.922',1.16
'0:12.926',1
'0:12.930',0.85
'0:12.934',0.65
'0:12.938',0.47
'0:12.941',0.19
'0:12.945',-0.02
'0:12.949',-0.15
'0:12.953',-0.24
'0:12.957',-0.43
'0:12.961',-0.71
'0:12.965',-0.82
'0:12.969',-0.69
'0:12.973',-0.56
'0:12.977',-0.5
'0:12.980',-0.35
'0:12.984',-0.21
'0:12.988',0.06
'0:12.992',0.29
'0:12.996',0.47
'0:13.000',0.56
'0:13.004',0.56
'0:13.008',0.61
'0:13.012',0.69
'0:13.016',0.64
'0:13.020',0.53
'0:13.023',0.36
'0:13.027',0.07
'0:13.031',-0.24
'0:13.035',-0.51
'0:13.039',-0.71
'0:13.043',-0.97
'0:13.047',-1.11
'0:13.051',-1.09
'0:13.055',-1.13
'0:13.059',-1.3
'0:13.063',-1.39
'0:13.066',-1.54
'0:13.070',-1.62
'0:13.074',-1.79
'0:13.078',-2.1
'0:13.082',-2.47
'0:13.086',-2.8
'0:13.090',-2.82
'0:13.094',-2.83
'0:13.098',-3.1
'0:13.102',-3.54
'0:13.105',-3.9
'0:13.109',-3.77
'0:13.113',-3.08
'0:13.117',-1.94
'0:13.121',0.29
'0:13.125',3.67
'0:13.129',7.02
'0:13.133',9.58
'0:13.137',9.85
'0:13.141',7.59
'0:13.145',3.82
'0:13.148',-0.06
'0:13.152',-2.97
'0:13.156',-4.85
'0:13.160',-5.66
'0:13.164',-5.85
'0:13.168',-5.64
'0:13.172',-5.06
'0:13.176',-4.24
'0:13.180',-3.48
'0:13.184',-2.96
'0:13.188',-2.76
'0:13.191',-2.57
'0:13.195',-2.51
'0:13.199',-2.45
'0:13.203',-2.26
'0:13.207',-2.11
'0:13.211',-1.91
'0:13.215',-1.72
'0:13.219',-1.64
'0:13.223',-1.58
'0:13.227',-1.49
'0:13.230',-1.42
'0:13.234',-1.26
'0:13.238',-1.08
'0:13.242',-1.03
'0:13.246',-0.86
'0:13.250',-0.83
'0:13.254',-0.94
'0:13.258',-0.71
'0:13.262',-0.12
'0:13.266',0.36
'0:13.270',0.8
'0:13.273',1.1
'0:13.277',1.18
'0:13.281',1.08
'0:13.285',0.99
'0:13.289',0.83
'0:13.293',0.7
'0:13.297',0.62
'0:13.301',0.53
'0:13.305',0.37
'0:13.309',0.1
'0:13.313',-0.12
'0:13.316',-0.41
'0:13.320',-0.55
'0:13.324',-0.6
'0:13.328',-0.75
'0:13.332',-0.84
'0:13.336',-0.93
'0:13.340',-1.02
'0:13.344',-0.94
'0:13.348',-0.79
'0:13.352',-0.69
'0:13.355',-0.53
'0:13.359',-0.33
'0:13.363',-0.16
'0:13.367',-0.05
'0:13.371',-0.07
'0:13.375',-0.02
'0:13.379',0.1
'0:13.383',0.08
'0:13.387',-0.07
'0:13.391',-0.22
'0:13.395',-0.37
'0:13.398',-0.39
'0:13.402',-0.38
'0:13.406',-0.36
'0:13.410',-0.34
'0:13.414',-0.33
'0:13.418',-0.34
'0:13.422',-0.34
'0:13.426',-0.34
'0:13.430',-0.34
'0:13.434',-0.34
'0:13.438',-0.34
'0:13.441',-1.17
'0:13.445',-1.14
'0:13.449',-1.12
'0:13.453',-0.99
'0:13.457',-0.85
'0:13.461',-0.8
'0:13.465',-0.83
'0:13.469',-0.84
'0:13.473',-0.93
'0:13.477',-1.28
'0:13.480',-1.71
'0:13.484',-1.92
'0:13.488',-1.62
'0:13.492',-0.5
'0:13.496',1.7
'0:13.500',4.86
'0:13.504',7.88
'0:13.508',9.88
'0:13.512',9.74
'0:13.516',7.1
'0:13.520',3.23
'0:13.523',-0.47
'0:13.527',-3.26
'0:13.531',-4.75
'0:13.535',-5.06
'0:13.539',-4.83
'0:13.543',-4.23
'0:13.547',-3.56
'0:13.551',-3.1
'0:13.555',-2.69
'0:13.559',-2.29
'0:13.563',-1.96
'0:13.566',-1.79
'0:13.570',-1.67
'0:13.574',-1.57
'0:13.578',-1.43
'0:13.582',-1.39
'0:13.586',-1.46
'0:13.590',-1.48
'0:13.594',-1.38
'0:13.598',-1.16
'0:13.602',-0.94
'0:13.605',-0.77
'0:13.609',-0.82
'0:13.613',-0.87
'0:13.617',-0.79
'0:13.621',-0.59
'0:13.625',-0.25
'0:13.629',0.03
'0:13.633',0.26
'0:13.637',0.4
'0:13.641',0.53
'0:13.645',0.61
'0:13.648',0.6
'0:13.652',0.69
'0:13.656',0.76
'0:13.660',0.73
'0:13.664',0.66
'0:13.668',0.5
'0:13.672',0.44
'0:13.676',0.49
'0:13.680',0.62
'0:13.684',0.67
'0:13.688',0.56
'0:13.691',0.39
'0:13.695',0.23
'0:13.699',0
'0:13.703',-0.22
'0:13.707',-0.33
'0:13.711',-0.38
'0:13.715',-0.29
'0:13.719',-0.12
'0:13.723',0.15
'0:13.727',0.4
'0:13.730',0.71
'0:13.734',0.99
'0:13.738',1.23
'0:13.742',1.37
'0:13.746',1.49
'0:13.750',1.44
'0:13.754',1.39
'0:13.758',1.39
'0:13.762',1.34
'0:13.766',1.19
'0:13.770',1.02
'0:13.773',0.78
'0:13.777',0.43
'0:13.781',0.09
'0:13.785',-0.14
'0:13.789',-0.31
'0:13.793',-0.67
'0:13.797',-0.98
'0:13.801',-1.15
'0:13.805',-1.35
'0:13.809',-1.6
'0:13.813',-1.81
'0:13.816',-1.95
'0:13.820',-2.08
'0:13.824',-2.16
'0:13.828',-2.17
'0:13.832',-2.13
'0:13.836',-2.08
'0:13.840',-2.02
'0:13.844',-2.04
'0:13.848',-2.05
'0:13.852',-2.12
'0:13.855',-2.48
'0:13.859',-3.04
'0:13.863',-3.31
'0:13.867',-2.86
'0:13.871',-1.06
'0:13.875',2.21
'0:13.879',5.92
'0:13.883',8.93
'0:13.887',9.99
'0:13.891',8.31
'0:13.895',4.75
'0:13.898',0.81
'0:13.902',-2.52
'0:13.906',-4.63
'0:13.910',-5.59
'0:13.914',-5.66
'0:13.918',-5.19
'0:13.922',-4.66
'0:13.926',-4.1
'0:13.930',-3.41
'0:13.934',-2.88
'0:13.938',-2.61
'0:13.941',-2.56
'0:13.945',-2.37
'0:13.949',-2.14
'0:13.953',-1.92
'0:13.957',-1.75
'0:13.961',-1.62
'0:13.965',-1.48
'0:13.969',-1.34
'0:13.973',-1.3
'0:13.977',-1.18
'0:13.980',-1.03
'0:13.984',-1.02
'0:13.988',-0.96
'0:13.992',-0.79
'0:13.996',-0.62
'0:14.000',-0.51
'0:14.004',-0.46
'0:14.008',-0.41
'0:14.012',-0.35
'0:14.016',-0.25
'0:14.020',-0.22
'0:14.023',-0.18
'0:14.027',-0.08
'0:14.031',-0.07
'0:14.035',-0.2
'0:14.039',-0.28
'0:14.043',-0.09
'0:14.047',0.13
'0:14.051',0.15
'0:14.055',-0.17
'0:14.059',-0.39
'0:14.063',-0.39
'0:14.066',-0.49
'0:14.070',-0.77
'0:14.074',-1.07
'0:14.078',-1.29
'0:14.082',-1.43
'0:14.086',-1.44
'0:14.090',-1.36
'0:14.094',-1.32
'0:14.098',-1.15
'0:14.102',-0.89
'0:14.105',-0.82
'0:14.109',-0.69
'0:14.113',-0.38
'0:14.117',-0.05
'0:14.121',0.29
'0:14.125',0.61
'0:14.129',0.84
'0:14.133',0.98
'0:14.137',1.13
'0:14.141',1.26
'0:14.145',1.09
'0:14.148',0.97
'0:14.152',0.83
'0:14.156',0.58
'0:14.160',0.45
'0:14.164',0.12
'0:14.168',-0.37
'0:14.172',-0.48
'0:14.176',-0.47
'0:14.180',-0.77
'0:14.184',-1.15
'0:14.188',-1.36
'0:14.191',-1.21
'0:14.195',-0.92
'0:14.199',-0.85
'0:14.203',-0.92
'0:14.207',-0.87
'0:14.211',-0.74
'0:14.215',-0.62
'0:14.219',-0.44
'0:14.223',-0.16
'0:14.227',-0.16
'0:14.230',-0.59
'0:14.234',-1.1
'0:14.238',-1.03
'0:14.242',-0.33
'0:14.246',1.27
'0:14.250',4.17
'0:14.254',7.71
'0:14.258',10.83
'0:14.262',12.33
'0:14.266',11.07
'0:14.270',7.6
'0:14.273',3.52
'0:14.277',0.16
'0:14.281',-2
'0:14.285',-3.13
'0:14.289',-3.37
'0:14.293',-2.98
'0:14.297',-2.28
'0:14.301',-1.51
'0:14.305',-0.71
'0:14.309',-0.2
'0:14.313',-0.02
'0:14.316',0.09
'0:14.320',0.26
'0:14.324',0.39
'0:14.328',0.59
'0:14.332',0.88
'0:14.336',0.95
'0:14.340',0.87
'0:14.344',0.91
'0:14.348',1.16
'0:14.352',1.4
'0:14.355',1.65
'0:14.359',1.8
'0:14.363',1.77
'0:14.367',1.75
'0:14.371',1.76
'0:14.375',1.76
'0:14.379',1.95
'0:14.383',2.2
'0:14.387',2.42
'0:14.391',2.45
'0:14.395',2.4
'0:14.398',2.37
'0:14.402',2.44
'0:14.406',2.45
'0:14.410',2.33
'0:14.414',2.11
'0:14.418',1.87
'0:14.422',1.76
'0:14.426',1.56
'0:14.430',1.33
'0:14.434',1.09
'0:14.438',0.89
'0:14.441',0.65
'0:14.445',0.51
'0:14.449',0.35
'0:14.453',0.17
'0:14.457',0.07
'0:14.461',0.04
'0:14.465',0.17
'0:14.469',0.24
'0:14.473',0.28
'0:14.477',0.37
'0:14.480',0.31
'0:14.484',0.17
'0:14.488',0.23
'0:14.492',0.58
'0:14.496',1.13
'0:14.500',1.7
'0:14.504',2.07
'0:14.508',2.17
'0:14.512',2.1
'0:14.516',1.85
'0:14.520',1.62
'0:14.523',1.36
'0:14.527',1.01
'0:14.531',0.68
'0:14.535',0.26
'0:14.539',-0.08
'0:14.543',-0.32
'0:14.547',-0.55
'0:14.551',-0.85
'0:14.555',-1.13
'0:14.559',-1.14
'0:14.563',-1.11
'0:14.566',-1.2
'0:14.570',-1.32
'0:14.574',-1.48
'0:14.578',-1.62
'0:14.582',-1.75
'0:14.586',-1.87
'0:14.590',-1.79
'0:14.594',-1.62
'0:14.598',-1.59
'0:14.602',-1.97
'0:14.605',-2.66
'0:14.609',-3.19
'0:14.613',-3.15
'0:14.617',-2.34
'0:14.621',-0.51
'0:14.625',2.57
'0:14.629',6.09
'0:14.633',8.97
'0:14.637',9.84
'0:14.641',7.88
'0:14.645',4.15
'0:14.648',0.09
'0:14.652',-3.14
'0:14.656',-4.91
'0:14.660',-5.62
'0:14.664',-5.63
'0:14.668',-5.21
'0:14.672',-4.63
'0:14.676',-4.08
'0:14.680',-3.71
'0:14.684',-3.45
'0:14.688',-3.14
'0:14.691',-2.75
'0:14.695',-2.37
'0:14.699',-2.06
'0:14.703',-1.89
'0:14.707',-1.8
'0:14.711',-1.72
'0:14.715',-1.53
'0:14.719',-1.26
'0:14.723',-0.99
'0:14.727',-0.74
'0:14.730',-0.4
'0:14.734',-0.19
'0:14.738',-0.17
'0:14.742',-0.16
'0:14.746',-0.07
'0:14.750',0
'0:14.754',0.15
'0:14.758',0.26
'0:14.762',0.37
'0:14.766',0.4
'0:14.770',0.51
'0:14.773',0.7
'0:14.777',0.93
'0:14.781',1.11
'0:14.785',1.17
'0:14.789',1.13
'0:14.793',1.15
'0:14.797',1.07
'0:14.801',0.7
'0:14.805',0.24
'0:14.809',-0.05
'0:14.813',-0.22
'0:14.816',-0.34
'0:14.820',-0.52
'0:14.824',-0.74
'0:14.828',-0.87
'0:14.832',-0.95
'0:14.836',-1.04
'0:14.840',-1.16
'0:14.844',-1.18
'0:14.848',-1.06
'0:14.852',-0.87
'0:14.855',-0.7
'0:14.859',-0.53
'0:14.863',-0.35
'0:14.867',-0.12
'0:14.871',0.16
'0:14.875',0.29
'0:14.879',0.34
'0:14.883',0.5
'0:14.887',0.68
'0:14.891',0.73
'0:14.895',0.67
'0:14.898',0.51
'0:14.902',0.29
'0:14.906',0.1
'0:14.910',-0.11
'0:14.914',-0.29
'0:14.918',-0.6
'0:14.922',-1.08
'0:14.926',-1.32
'0:14.930',-1.41
'0:14.934',-1.46
'0:14.938',-1.52
'0:14.941',-1.6
'0:14.945',-1.56
'0:14.949',-1.53
'0:14.953',-1.54
'0:14.957',-1.75
'0:14.961',-1.87
'0:14.965',-1.78
'0:14.969',-1.72
'0:14.973',-1.68
'0:14.977',-1.57
'0:14.980',-1.59
'0:14.984',-1.82
'0:14.988',-2.04
'0:14.992',-1.8
'0:14.996',-0.5
'0:15.000',2.35
'0:15.004',6.01
'0:15.008',9.31
'0:15.012',11.04
'0:15.016',9.94
'0:15.020',6.58
'0:15.023',2.51
'0:15.027',-1.23
'0:15.031',-3.36
'0:15.035',-3.36
'0:15.039',-3.36
'0:15.043',-3.36
'0:15.047',-3.36
'0:15.051',-2.5
'0:15.055',-2.23
'0:15.059',-1.93
'0:15.063',-1.61
'0:15.066',-1.38
'0:15.070',-1.26
'0:15.074',-1.16
'0:15.078',-0.98
'0:15.082',-0.85
'0:15.086',-0.78
'0:15.090',-0.67
'0:15.094',-0.46
'0:15.098',-0.21
'0:15.102',-0.01
'0:15.105',0.08
'0:15.109',0.17
'0:15.113',0.2
'0:15.117',0.2
'0:15.121',0.31
'0:15.125',0.43
'0:15.129',0.56
'0:15.133',0.69
'0:15.137',0.8
'0:15.141',0.9
'0:15.145',1.08
'0:15.148',1.28
'0:15.152',1.38
'0:15.156',1.42
'0:15.160',1.49
'0:15.164',1.38
'0:15.168',1.26
'0:15.172',1.17
'0:15.176',1
'0:15.180',0.75
'0:15.184',0.48
'0:15.188',0.29
'0:15.191',0.2
'0:15.195',0.12
'0:15.199',-0.18
'0:15.203',-0.4
'0:15.207',-0.57
'0:15.211',-0.68
'0:15.215',-0.85
'0:15.219',-1.04
'0:15.223',-1.13
'0:15.227',-1.05
'0:15.230',-0.79
'0:15.234',-0.54
'0:15.238',-0.27
'0:15.242',0
'0:15.246',0.25
'0:15.250',0.45
'0:15.254',0.62
'0:15.258',0.71
'0:15.262',0.76
'0:15.266',0.83
'0:15.270',0.88
'0:15.273',0.88
'0:15.277',0.78
'0:15.281',0.4
'0:15.285',-0.01
'0:15.289',-0.37
'0:15.293',-0.54
'0:15.297',-0.69
'0:15.301',-0.9
'0:15.305',-1.05
'0:15.309',-0.96
'0:15.313',-0.79
'0:15.316',-0.82
'0:15.320',-0.87
'0:15.324',-0.9
'0:15.328',-0.94
'0:15.332',-1.15
'0:15.336',-1.24
'0:15.340',-1.17
'0:15.344',-1.07
'0:15.348',-1.15
'0:15.352',-1.4
'0:15.355',-1.97
'0:15.359',-2.47
'0:15.363',-2.57
'0:15.367',-1.77
'0:15.371',0.49
'0:15.375',4.07
'0:15.379',7.75
'0:15.383',10.36
'0:15.387',10.55
'0:15.391',8.01
'0:15.395',3.96
'0:15.398',-0.16
'0:15.402',-3.25
'0:15.406',-4.9
'0:15.410',-5.48
'0:15.414',-5.27
'0:15.418',-4.71
'0:15.422',-4
'0:15.426',-3.37
'0:15.430',-2.88
'0:15.434',-2.57
'0:15.438',-2.49
'0:15.441',-2.37
'0:15.445',-2.17
'0:15.449',-1.83
'0:15.453',-1.55
'0:15.457',-1.27
'0:15.461',-1.08
'0:15.465',-1.02
'0:15.469',-0.96
'0:15.473',-1.03
'0:15.477',-1.14
'0:15.480',-1.09
'0:15.484',-0.78
'0:15.488',-0.48
'0:15.492',-0.36
'0:15.496',-0.41
'0:15.500',-0.4
'0:15.504',-0.14
'0:15.508',0.12
'0:15.512',0.39
'0:15.516',0.78
'0:15.520',1.03
'0:15.523',1.08
'0:15.527',1
'0:15.531',0.99
'0:15.535',1.1
'0:15.539',1.22
'0:15.543',1.32
'0:15.547',1.31
'0:15.551',1.25
'0:15.555',1.15
'0:15.559',1.05
'0:15.563',0.85
'0:15.566',0.64
'0:15.570',0.54
'0:15.574',0.41
'0:15.578',0.15
'0:15.582',-0.09
'0:15.586',-0.23
'0:15.590',-0.18
'0:15.594',-0.05
'0:15.598',0.04
'0:15.602',0.18
'0:15.605',0.46
'0:15.609',0.82
'0:15.613',1.11
'0:15.617',1.17
'0:15.621',1.16
'0:15.625',1.08
'0:15.629',1.04
'0:15.633',0.96
'0:15.637',0.91
'0:15.641',0.87
'0:15.645',0.77
'0:15.648',0.58
'0:15.652',0.28
'0:15.656',-0.07
'0:15.660',-0.41
'0:15.664',-0.59
'0:15.668',-0.68
'0:15.672',-0.85
'0:15.676',-1.05
'0:15.680',-1.27
'0:15.684',-1.37
'0:15.688',-1.41
'0:15.691',-1.39
'0:15.695',-1.41
'0:15.699',-1.48
'0:15.703',-1.48
'0:15.707',-1.46
'0:15.711',-1.47
'0:15.715',-1.43
'0:15.719',-1.51
'0:15.723',-1.83
'0:15.727',-2.23
'0:15.730',-2.51
'0:15.734',-2.46
'0:15.738',-1.73
'0:15.742',0.15
'0:15.746',3.24
'0:15.750',6.42
'0:15.754',8.63
'0:15.758',8.91
'0:15.762',6.77
'0:15.766',3.3
'0:15.770',-0.37
'0:15.773',-3.4
'0:15.777',-5.13
'0:15.781',-5.64
'0:15.785',-5.24
'0:15.789',-4.39
'0:15.793',-3.47
'0:15.797',-2.75
'0:15.801',-2.27
'0:15.805',-2.06
'0:15.809',-1.91
'0:15.813',-1.69
'0:15.816',-1.34
'0:15.820',-0.9
'0:15.824',-0.62
'0:15.828',-0.54
'0:15.832',-0.53
'0:15.836',-0.53
'0:15.840',-0.53
'0:15.844',-0.53
'0:15.848',0.08
'0:15.852',0.03
'0:15.855',0.11
'0:15.859',0.37
'0:15.863',0.6
'0:15.867',0.73
'0:15.871',0.78
'0:15.875',0.81
'0:15.879',1.05
'0:15.883',1.23
'0:15.887',1.32
'0:15.891',1.34
'0:15.895',1.38
'0:15.898',1.5
'0:15.902',1.63
'0:15.906',1.76
'0:15.910',1.75
'0:15.914',1.64
'0:15.918',1.61
'0:15.922',1.52
'0:15.926',1.47
'0:15.930',1.48
'0:15.934',1.36
'0:15.938',1.08
'0:15.941',0.8
'0:15.945',0.49
'0:15.949',0.22
'0:15.953',0.05
'0:15.957',-0.15
'0:15.961',-0.24
'0:15.965',-0.21
'0:15.969',-0.19
'0:15.973',-0.11
'0:15.977',0.07
'0:15.980',0.33
'0:15.984',0.49
'0:15.988',0.55
'0:15.992',0.56
'0:15.996',0.56
'0:16.000',0.63
'0:16.004',0.77
'0:16.008',0.76
'0:16.012',0.54
'0:16.016',0.41
'0:16.020',0.27
'0:16.023',0.05
'0:16.027',-0.2
'0:16.031',-0.29
'0:16.035',-0.35
'0:16.039',-0.63
'0:16.043',-0.93
'0:16.047',-1.08
'0:16.051',-1.06
'0:16.055',-1
'0:16.059',-1.2
'0:16.063',-1.55
'0:16.066',-1.77
'0:16.070',-1.69
'0:16.074',-1.45
'0:16.078',-1.34
'0:16.082',-1.37
'0:16.086',-1.48
'0:16.090',-1.44
'0:16.094',-1.45
'0:16.098',-1.83
'0:16.102',-2.38
'0:16.105',-2.65
'0:16.109',-2.16
'0:16.113',-0.44
'0:16.117',2.69
'0:16.121',6.27
'0:16.125',9.17
'0:16.129',10.24
'0:16.133',8.5
'0:16.137',4.69
'0:16.141',0.51
'0:16.145',-2.75
'0:16.148',-4.59
'0:16.152',-5.33
'0:16.156',-5.34
'0:16.160',-4.93
'0:16.164',-4.44
'0:16.168',-4.02
'0:16.172',-3.68
'0:16.176',-3.38
'0:16.180',-3.08
'0:16.184',-2.71
'0:16.188',-2.4
'0:16.191',-2.28
'0:16.195',-2.02
'0:16.199',-1.74
'0:16.203',-1.66
'0:16.207',-1.61
'0:16.211',-1.48
'0:16.215',-1.33
'0:16.219',-1.14
'0:16.223',-0.78
'0:16.227',-0.52
'0:16.230',-0.47
'0:16.234',-0.39
'0:16.238',-0.24
'0:16.242',-0.11
'0:16.246',0.04
'0:16.250',0.29
'0:16.254',0.58
'0:16.258',0.89
'0:16.262',0.91
'0:16.266',0.94
'0:16.270',0.97
'0:16.273',0.99
'0:16.277',1.1
'0:16.281',1.15
'0:16.285',1.06
'0:16.289',0.93
'0:16.293',0.88
'0:16.297',0.99
'0:16.301',1.01
'0:16.305',0.84
'0:16.309',0.68
'0:16.313',0.44
'0:16.316',0.11
'0:16.320',-0.13
'0:16.324',-0.29
'0:16.328',-0.36
'0:16.332',-0.26
'0:16.336',-0.19
'0:16.340',-0.25
'0:16.344',-0.29
'0:16.348',-0.16
'0:16.352',0.09
'0:16.355',0.22
'0:16.359',0.28
'0:16.363',0.44
'0:16.367',0.6
'0:16.371',0.81
'0:16.375',0.96
'0:16.379',0.98
'0:16.383',0.95
'0:16.387',0.91
'0:16.391',0.88
'0:16.395',0.85
'0:16.398',0.79
'0:16.402',0.6
'0:16.406',0.26
'0:16.410',-0.25
'0:16.414',-0.69
'0:16.418',-1
'0:16.422',-1.14
'0:16.426',-1.25
'0:16.430',-1.44
'0:16.434',-1.49
'0:16.438',-1.34
'0:16.441',-1.37
'0:16.445',-1.57
'0:16.449',-1.65
'0:16.453',-1.62
'0:16.457',-1.41
'0:16.461',-1.47
'0:16.465',-1.68
'0:16.469',-2.08
'0:16.473',-2.61
'0:16.477',-2.81
'0:16.480',-2.6
'0:16.484',-1.34
'0:16.488',1.47
'0:16.492',5.04
'0:16.496',8.11
'0:16.500',9.62
'0:16.504',8.63
'0:16.508',5.67
'0:16.512',2
'0:16.516',-1.41
'0:16.520',-3.81
'0:16.523',-5.04
'0:16.527',-5.5
'0:16.531',-5.37
'0:16.535',-4.69
'0:16.539',-3.99
'0:16.543',-3.49
'0:16.547',-3.12
'0:16.551',-2.73
'0:16.555',-2.32
'0:16.559',-1.86
'0:16.563',-1.61
'0:16.566',-1.58
'0:16.570',-1.49
'0:16.574',-1.33
'0:16.578',-1.07
'0:16.582',-0.71
'0:16.586',-0.31
'0:16.590',-0.17
'0:16.594',-0.2
'0:16.598',-0.28
'0:16.602',0.05
'0:16.605',0.4
'0:16.609',0.61
'0:16.613',0.66
'0:16.617',0.71
'0:16.621',0.81
'0:16.625',1.05
'0:16.629',1.37
'0:16.633',1.52
'0:16.637',1.56
'0:16.641',1.62
'0:16.645',1.86
'0:16.648',2.11
'0:16.652',2.11
'0:16.656',1.82
'0:16.660',1.5
'0:16.664',1.19
'0:16.668',1.04
'0:16.672',0.98
'0:16.676',1.02
'0:16.680',0.94
'0:16.684',0.81
'0:16.688',0.81
'0:16.691',0.61
'0:16.695',0.04
'0:16.699',-0.16
'0:16.703',-0.01
'0:16.707',0.21
'0:16.711',0.19
'0:16.715',0
'0:16.719',0.17
'0:16.723',0.26
'0:16.727',0.18
'0:16.730',0.38
'0:16.734',0.62
'0:16.738',0.82
'0:16.742',1.08
'0:16.746',1.22
'0:16.750',1.12
'0:16.754',0.9
'0:16.758',0.81
'0:16.762',0.84
'0:16.766',1.01
'0:16.770',0.87
'0:16.773',0.66
'0:16.777',0.42
'0:16.781',0.06
'0:16.785',-0.43
'0:16.789',-0.87
'0:16.793',-0.82
'0:16.797',-0.72
'0:16.801',-0.88
'0:16.805',-0.92
'0:16.809',-1.08
'0:16.813',-1.55
'0:16.816',-1.77
'0:16.820',-1.71
'0:16.824',-1.75
'0:16.828',-1.68
'0:16.832',-1.55
'0:16.836',-1.36
'0:16.840',-1.57
'0:16.844',-1.89
'0:16.848',-1.82
'0:16.852',-1.33
'0:16.855',0.02
'0:16.859',2.57
'0:16.863',5.81
'0:16.867',8.95
'0:16.871',10.73
'0:16.875',9.67
'0:16.879',6.3
'0:16.883',1.93
'0:16.887',-1.89
'0:16.891',-4.17
'0:16.895',-5.12
'0:16.898',-5.42
'0:16.902',-5.27
'0:16.906',-4.68
'0:16.910',-4.21
'0:16.914',-3.47
'0:16.918',-2.87
'0:16.922',-2.86
'0:16.926',-2.66
'0:16.930',-2.33
'0:16.934',-2.25
'0:16.938',-1.96
'0:16.941',-1.35
'0:16.945',-0.78
'0:16.949',-0.76
'0:16.953',-1.01
'0:16.957',-0.87
'0:16.961',-0.86
'0:16.965',-0.81
'0:16.969',-0.26
'0:16.973',0
'0:16.977',-0.47
'0:16.980',-0.51
'0:16.984',0.1
'0:16.988',0.27
'0:16.992',-0.23
'0:16.996',-0.39
'0:17.000',0.39
'0:17.004',1.11
'0:17.008',1.04
'0:17.012',0.94
'0:17.016',1.13
'0:17.020',1.6
'0:17.023',2.13
'0:17.027',2.02
'0:17.031',1.98
'0:17.035',1.89
'0:17.039',1.51
'0:17.043',1.59
'0:17.047',1.35
'0:17.051',1.15
'0:17.055',1.07
'0:17.059',0.72
'0:17.063',-0.02
'0:17.066',-0.04
'0:17.070',0.45
'0:17.074',0.36
'0:17.078',-0.05
'0:17.082',-0.27
'0:17.086',0.07
'0:17.090',0.4
'0:17.094',0.68
'0:17.098',0.83
'0:17.102',0.65
'0:17.105',0.72
'0:17.109',1.18
'0:17.113',1.52
'0:17.117',1.72
'0:17.121',1.62
'0:17.125',1.1
'0:17.129',1.07
'0:17.133',1.28
'0:17.137',1.18
'0:17.141',0.75
'0:17.145',0.67
'0:17.148',0.31
'0:17.152',0.16
'0:17.156',0.15
'0:17.160',-0.16
'0:17.164',-0.64
'0:17.168',-0.96
'0:17.172',-0.72
'0:17.176',-0.29
'0:17.180',-0.71
'0:17.184',-1.22
'0:17.188',-1.42
'0:17.191',-1.55
'0:17.195',-1.65
'0:17.199',-1.76
'0:17.203',-1.84
'0:17.207',-2
'0:17.211',-2.25
'0:17.215',-2.28
'0:17.219',-1.96
'0:17.223',-1.11
'0:17.227',0.94
'0:17.230',4.13
'0:17.234',7.52
'0:17.238',10.09
'0:17.242',10.05
'0:17.246',7.41
'0:17.250',3.35
'0:17.254',-0.7
'0:17.258',-3.41
'0:17.262',-4.73
'0:17.266',-5.04
'0:17.270',-4.93
'0:17.273',-4.59
'0:17.277',-3.93
'0:17.281',-3.2
'0:17.285',-2.35
'0:17.289',-1.78
'0:17.293',-1.6
'0:17.297',-1.62
'0:17.301',-1.34
'0:17.305',-1.02
'0:17.309',-0.84
'0:17.313',-0.67
'0:17.316',-0.56
'0:17.320',-0.47
'0:17.324',-0.31
'0:17.328',-0.09
'0:17.332',0.13
'0:17.336',0.21
'0:17.340',0.26
'0:17.344',0.46
'0:17.348',0.85
'0:17.352',1.08
'0:17.355',1.17
'0:17.359',1.15
'0:17.363',1.2
'0:17.367',1.3
'0:17.371',1.48
'0:17.375',1.7
'0:17.379',2.06
'0:17.383',2.28
'0:17.387',2.34
'0:17.391',2.34
'0:17.395',2.39
'0:17.398',2.37
'0:17.402',2.36
'0:17.406',2.42
'0:17.410',2.29
'0:17.414',2.06
'0:17.418',1.72
'0:17.422',1.53
'0:17.426',1.37
'0:17.430',1.21
'0:17.434',0.94
'0:17.438',0.61
'0:17.441',0.39
'0:17.445',0.25
'0:17.449',0.27
'0:17.453',0.36
'0:17.457',0.42
'0:17.461',0.62
'0:17.465',0.89
'0:17.469',1.13
'0:17.473',1.33
'0:17.477',1.51
'0:17.480',1.75
'0:17.484',1.99
'0:17.488',1.96
'0:17.492',1.85
'0:17.496',1.7
'0:17.500',1.56
'0:17.504',1.31
'0:17.508',1.07
'0:17.512',0.92
'0:17.516',0.81
'0:17.520',0.63
'0:17.523',0.27
'0:17.527',0
'0:17.531',-0.16
'0:17.535',-0.29
'0:17.539',-0.49
'0:17.543',-0.67
'0:17.547',-0.76
'0:17.551',-0.89
'0:17.555',-0.97
'0:17.559',-0.96
'0:17.563',-1.06
'0:17.566',-1.22
'0:17.570',-1.42
'0:17.574',-1.61
'0:17.578',-1.76
'0:17.582',-2.11
'0:17.586',-2.44
'0:17.590',-2.39
'0:17.594',-1.75
'0:17.598',0.02
'0:17.602',3.18
'0:17.605',6.73
'0:17.609',9.54
'0:17.613',10.04
'0:17.617',7.73
'0:17.621',3.61
'0:17.625',-0.4
'0:17.629',-3.27
'0:17.633',-4.79
'0:17.637',-5.19
'0:17.641',-4.86
'0:17.645',-4.19
'0:17.648',-3.48
'0:17.652',-2.92
'0:17.656',-2.41
'0:17.660',-1.98
'0:17.664',-1.58
'0:17.668',-1.34
'0:17.672',-1.26
'0:17.676',-1.22
'0:17.680',-1.13
'0:17.684',-0.89
'0:17.688',-0.71
'0:17.691',-0.63
'0:17.695',-0.6
'0:17.699',-0.56
'0:17.703',-0.65
'0:17.707',-0.73
'0:17.711',-0.68
'0:17.715',-0.52
'0:17.719',-0.36
'0:17.723',-0.26
'0:17.727',-0.17
'0:17.730',-0.03
'0:17.734',0.25
'0:17.738',0.5
'0:17.742',0.56
'0:17.746',0.49
'0:17.750',0.57
'0:17.754',0.68
'0:17.758',0.71
'0:17.762',0.69
'0:17.766',0.64
'0:17.770',0.55
'0:17.773',0.49
'0:17.777',0.58
'0:17.781',0.66
'0:17.785',0.61
'0:17.789',0.51
'0:17.793',0.34
'0:17.797',0.26
'0:17.801',0.12
'0:17.805',-0.12
'0:17.809',-0.39
'0:17.813',-0.57
'0:17.816',-0.65
'0:17.820',-0.67
'0:17.824',-0.68
'0:17.828',-0.68
'0:17.832',-0.52
'0:17.836',-0.23
'0:17.840',-0.12
'0:17.844',-0.02
'0:17.848',0.12
'0:17.852',0.28
'0:17.855',0.45
'0:17.859',0.6
'0:17.863',0.64
'0:17.867',0.48
'0:17.871',0.29
'0:17.875',0.17
'0:17.879',0.02
'0:17.883',-0.17
'0:17.887',-0.37
'0:17.891',-0.61
'0:17.895',-0.93
'0:17.898',-1.11
'0:17.902',-1.18
'0:17.906',-1.37
'0:17.910',-1.65
'0:17.914',-1.86
'0:17.918',-1.78
'0:17.922',-1.62
'0:17.926',-1.45
'0:17.930',-1.34
'0:17.934',-1.38
'0:17.938',-1.48
'0:17.941',-1.56
'0:17.945',-1.58
'0:17.949',-1.71
'0:17.953',-2.13
'0:17.957',-2.44
'0:17.961',-2.42
'0:17.965',-1.82
'0:17.969',-0.05
'0:17.973',3.01
'0:17.977',6.26
'0:17.980',8.67
'0:17.984',9.1
'0:17.988',7.15
'0:17.992',3.67
'0:17.996',0.07
'0:18.000',-2.88
'0:18.004',-4.6
'0:18.008',-5.22
'0:18.012',-5.01
'0:18.016',-4.32
'0:18.020',-3.68
'0:18.023',-3.17
'0:18.027',-2.92
'0:18.031',-2.74
'0:18.035',-2.52
'0:18.039',-2.2
'0:18.043',-1.83
'0:18.047',-1.56
'0:18.051',-1.4
'0:18.055',-1.23
'0:18.059',-1.01
'0:18.063',-0.84
'0:18.066',-0.75
'0:18.070',-0.65
'0:18.074',-0.53
'0:18.078',-0.53
'0:18.082',-0.53
'0:18.086',-0.49
'0:18.090',-0.34
'0:18.094',-0.2
'0:18.098',-0.04
'0:18.102',0.15
'0:18.105',0.31
'0:18.109',0.45
'0:18.113',0.55
'0:18.117',0.61
'0:18.121',0.64
'0:18.125',0.73
'0:18.129',0.89
'0:18.133',1.03
'0:18.137',1.09
'0:18.141',1.05
'0:18.145',1.05
'0:18.148',1.09
'0:18.152',1.16
'0:18.156',1.17
'0:18.160',1.07
'0:18.164',0.83
'0:18.168',0.6
'0:18.172',0.54
'0:18.176',-0.02
'0:18.180',-0.34
'0:18.184',-0.42
'0:18.188',-0.3
'0:18.191',-0.08
'0:18.195',-0.02
'0:18.199',0.06
'0:18.203',0.05
'0:18.207',0.05
'0:18.211',0.61
'0:18.215',0.66
'0:18.219',0.77
'0:18.223',1.06
'0:18.227',1.27
'0:18.230',1.4
'0:18.234',1.49
'0:18.238',1.41
'0:18.242',1.08
'0:18.246',0.8
'0:18.250',0.66
'0:18.254',0.48
'0:18.258',0.24
'0:18.262',0.05
'0:18.266',-0.15
'0:18.270',-0.39
'0:18.273',-0.61
'0:18.277',-0.71
'0:18.281',-0.75
'0:18.285',-0.84
'0:18.289',-0.96
'0:18.293',-1.08
'0:18.297',-1.08
'0:18.301',-1.04
'0:18.305',-1.09
'0:18.309',-1.06
'0:18.313',-1.1
'0:18.316',-1.27
'0:18.320',-1.5
'0:18.324',-1.84
'0:18.328',-2.23
'0:18.332',-2.32
'0:18.336',-1.46
'0:18.340',0.74
'0:18.344',4.08
'0:18.348',7.49
'0:18.352',10
'0:18.355',10.24
'0:18.359',7.77
'0:18.363',3.88
'0:18.367',-0.03
'0:18.371',-3.14
'0:18.375',-4.83
'0:18.379',-5.37
'0:18.383',-5.12
'0:18.387',-4.48
'0:18.391',-3.81
'0:18.395',-3.22
'0:18.398',-2.8
'0:18.402',-2.39
'0:18.406',-2.13
'0:18.410',-1.89
'0:18.414',-1.79
'0:18.418',-1.72
'0:18.422',-1.48
'0:18.426',-1.25
'0:18.430',-1.11
'0:18.434',-0.87
'0:18.438',-0.65
'0:18.441',-0.38
'0:18.445',-0.18
'0:18.449',-0.07
'0:18.453',-0.02
'0:18.457',0.04
'0:18.461',0.18
'0:18.465',0.49
'0:18.469',0.74
'0:18.473',0.84
'0:18.477',0.98
'0:18.480',1.08
'0:18.484',1.22
'0:18.488',1.15
'0:18.492',1.12
'0:18.496',1.3
'0:18.500',1.55
'0:18.504',1.66
'0:18.508',1.57
'0:18.512',1.3
'0:18.516',1.1
'0:18.520',0.99
'0:18.523',0.93
'0:18.527',0.83
'0:18.531',0.69
'0:18.535',0.62
'0:18.539',0.54
'0:18.543',0.28
'0:18.547',-0.06
'0:18.551',-0.36
'0:18.555',-0.44
'0:18.559',-0.58
'0:18.563',-0.6
'0:18.566',-0.58
'0:18.570',-0.45
'0:18.574',-0.3
'0:18.578',-0.11
'0:18.582',0.13
'0:18.586',0.33
'0:18.590',0.37
'0:18.594',0.35
'0:18.598',0.35
'0:18.602',0.37
'0:18.605',0.46
'0:18.609',0.41
'0:18.613',0.12
'0:18.617',-0.22
'0:18.621',-0.52
'0:18.625',-0.73
'0:18.629',-0.82
'0:18.633',-0.93
'0:18.637',-1.17
'0:18.641',-1.41
'0:18.645',-1.46
'0:18.648',-1.58
'0:18.652',-1.66
'0:18.656',-1.75
'0:18.660',-1.73
'0:18.664',-1.66
'0:18.668',-1.52
'0:18.672',-1.3
'0:18.676',-1.1
'0:18.680',-1.02
'0:18.684',-0.97
'0:18.688',-1.02
'0:18.691',-1.36
'0:18.695',-2.01
'0:18.699',-2.5
'0:18.703',-2.46
'0:18.707',-1.64
'0:18.711',0.33
'0:18.715',3.49
'0:18.719',6.75
'0:18.723',8.97
'0:18.727',8.96
'0:18.730',6.56
'0:18.734',2.91
'0:18.738',-0.85
'0:18.742',-3.78
'0:18.746',-5.4
'0:18.750',-5.87
'0:18.754',-5.57
'0:18.758',-4.81
'0:18.762',-4.06
'0:18.766',-3.54
'0:18.770',-3.2
'0:18.773',-3.01
'0:18.777',-2.78
'0:18.781',-2.57
'0:18.785',-2.33
'0:18.789',-2.1
'0:18.793',-1.74
'0:18.797',-1.5
'0:18.801',-1.47
'0:18.805',-1.46
'0:18.809',-1.41
'0:18.813',-1.28
'0:18.816',-1.25
'0:18.820',-1.26
'0:18.824',-1.19
'0:18.828',-1.09
'0:18.832',-0.83
'0:18.836',-0.44
'0:18.840',-0.22
'0:18.844',-0.11
'0:18.848',0.06
'0:18.852',0.28
'0:18.855',0.44
'0:18.859',0.54
'0:18.863',0.59
'0:18.867',0.61
'0:18.871',0.71
'0:18.875',0.98
'0:18.879',1.14
'0:18.883',1.1
'0:18.887',1.05
'0:18.891',1.03
'0:18.895',0.94
'0:18.898',0.71
'0:18.902',0.46
'0:18.906',0.43
'0:18.910',0.57
'0:18.914',0.61
'0:18.918',0.39
'0:18.922',0.08
'0:18.926',-0.08
'0:18.930',-0.07
'0:18.934',0
'0:18.938',0.11
'0:18.941',0.34
'0:18.945',0.53
'0:18.949',0.69
'0:18.953',0.96
'0:18.957',1.16
'0:18.961',1.22
'0:18.965',1.25
'0:18.969',1.33
'0:18.973',1.39
'0:18.977',1.46
'0:18.980',1.52
'0:18.984',1.51
'0:18.988',1.52
'0:18.992',1.51
'0:18.996',0.87
'0:19.000',0.68
'0:19.004',0.35
'0:19.008',0.02
'0:19.012',-0.14
'0:19.016',-0.22
'0:19.020',-0.26
'0:19.023',-0.4
'0:19.027',-0.75
'0:19.031',-1.05
'0:19.035',-1.17
'0:19.039',-1.17
'0:19.043',-1.12
'0:19.047',-1.09
'0:19.051',-1.06
'0:19.055',-1.01
'0:19.059',-1.13
'0:19.063',-1.51
'0:19.066',-2.01
'0:19.070',-2.16
'0:19.074',-1.75
'0:19.078',-0.55
'0:19.082',1.96
'0:19.086',5.42
'0:19.090',8.65
'0:19.094',10.51
'0:19.098',9.89
'0:19.102',6.95
'0:19.105',3.16
'0:19.109',-0.38
'0:19.113',-3.05
'0:19.117',-4.43
'0:19.121',-4.86
'0:19.125',-4.7
'0:19.129',-4.32
'0:19.133',-3.95
'0:19.137',-3.63
'0:19.141',-3.2
'0:19.145',-2.67
'0:19.148',-2.31
'0:19.152',-2.04
'0:19.156',-1.88
'0:19.160',-1.73
'0:19.164',-1.58
'0:19.168',-1.35
'0:19.172',-1.29
'0:19.176',-1.25
'0:19.180',-1.04
'0:19.184',-0.71
'0:19.188',-0.49
'0:19.191',-0.46
'0:19.195',-0.41
'0:19.199',-0.17
'0:19.203',0.12
'0:19.207',0.4
'0:19.211',0.54
'0:19.215',0.59
'0:19.219',0.77
'0:19.223',0.96
'0:19.227',1.07
'0:19.230',1.14
'0:19.234',1.31
'0:19.238',1.7
'0:19.242',1.98
'0:19.246',1.94
'0:19.250',1.68
'0:19.254',1.34
'0:19.258',1.15
'0:19.262',1.1
'0:19.266',0.99
'0:19.270',0.77
'0:19.273',0.51
'0:19.277',0.4
'0:19.281',0.26
'0:19.285',0.05
'0:19.289',-0.1
'0:19.293',-0.4
'0:19.297',-0.7
'0:19.301',-0.96
'0:19.305',-1.02
'0:19.309',-0.85
'0:19.313',-0.6
'0:19.316',-0.44
'0:19.320',-0.32
'0:19.324',-0.15
'0:19.328',0.01
'0:19.332',0.21
'0:19.336',0.38
'0:19.340',0.52
'0:19.344',0.66
'0:19.348',0.66
'0:19.352',0.59
'0:19.355',0.53
'0:19.359',0.41
'0:19.363',0.24
'0:19.367',0.02
'0:19.371',-0.09
'0:19.375',-0.25
'0:19.379',-0.6
'0:19.383',-1.06
'0:19.387',-1.32
'0:19.391',-1.42
'0:19.395',-1.56
'0:19.398',-1.63
'0:19.402',-1.75
'0:19.406',-1.88
'0:19.410',-2
'0:19.414',-2.07
'0:19.418',-2.01
'0:19.422',-1.91
'0:19.426',-1.71
'0:19.430',-1.51
'0:19.434',-1.64
'0:19.438',-2.23
'0:19.441',-2.84
'0:19.445',-2.94
'0:19.449',-2.3
'0:19.453',-0.71
'0:19.457',1.88
'0:19.461',5.02
'0:19.465',8.2
'0:19.469',10.13
'0:19.473',9.25
'0:19.477',6.07
'0:19.480',2
'0:19.484',-1.61
'0:19.488',-3.86
'0:19.492',-4.94
'0:19.496',-5.12
'0:19.500',-4.79
'0:19.504',-4.08
'0:19.508',-3.2
'0:19.512',-2.43
'0:19.516',-1.94
'0:19.520',-1.54
'0:19.523',-1.3
'0:19.527',-1.18
