'0:00.000',-2.41
'0:00.004',-2.67
'0:00.008',-2.23
'0:00.012',-1.45
'0:00.016',-0.49
'0:00.020',0.03
'0:00.023',0.04
'0:00.027',0.2
'0:00.031',-0.15
'0:00.035',-0.91
'0:00.039',-1.07
'0:00.043',-0.47
'0:00.047',0.9
'0:00.051',2.18
'0:00.055',2.83
'0:00.059',3.41
'0:00.063',4.45
'0:00.066',4.81
'0:00.070',4.44
'0:00.074',3.62
'0:00.078',3.72
'0:00.082',4.19
'0:00.086',4.23
'0:00.090',4.58
'0:00.094',5.26
'0:00.098',5.73
'0:00.102',5.51
'0:00.105',4.96
'0:00.109',4.38
'0:00.113',3.11
'0:00.117',2.51
'0:00.121',2.55
'0:00.125',2.38
'0:00.129',1.56
'0:00.133',0.02
'0:00.137',-0.87
'0:00.141',0.36
'0:00.145',1.61
'0:00.148',1.99
'0:00.152',2.15
'0:00.156',1.79
'0:00.160',1.44
'0:00.164',1.25
'0:00.168',1
'0:00.172',0.75
'0:00.176',0.19
'0:00.180',-1.26
'0:00.184',-2.01
'0:00.188',-1.08
'0:00.191',0.29
'0:00.195',1.09
'0:00.199',1
'0:00.203',0.44
'0:00.207',-0.02
'0:00.211',-0.35
'0:00.215',-0.68
'0:00.219',-1.23
'0:00.223',-1.97
'0:00.227',-2.62
'0:00.230',-2.6
'0:00.234',-1.99
'0:00.238',-1.41
'0:00.242',-1.48
'0:00.246',-2.04
'0:00.250',-1.9
'0:00.254',-0.98
'0:00.258',0.89
'0:00.262',3.02
'0:00.266',5.3
'0:00.270',5.46
'0:00.273',2.35
'0:00.277',-2.76
'0:00.281',-7.62
'0:00.285',-9.4
'0:00.289',-8.9
'0:00.293',-7.77
'0:00.297',-6.83
'0:00.301',-6.7
'0:00.305',-6.5
'0:00.309',-5.08
'0:00.313',-2.77
'0:00.316',-0.95
'0:00.320',-0.65
'0:00.324',-1.07
'0:00.328',-1.64
'0:00.332',-1.95
'0:00.336',-1.81
'0:00.340',-1.69
'0:00.344',-1.18
'0:00.348',-0.4
'0:00.352',0.4
'0:00.355',0.5
'0:00.359',0.45
'0:00.363',0.43
'0:00.367',0.6
'0:00.371',0.85
'0:00.375',1.23
'0:00.379',1.32
'0:00.383',1.39
'0:00.387',1.82
'0:00.391',2.28
'0:00.395',2.06
'0:00.398',1.73
'0:00.402',1.9
'0:00.406',2.61
'0:00.410',4.11
'0:00.414',5.15
'0:00.418',5.27
'0:00.422',4.53
'0:00.426',3.76
'0:00.430',3.07
'0:00.434',2.33
'0:00.438',1.28
'0:00.441',-0.45
'0:00.445',-1.18
'0:00.449',-0.85
'0:00.453',-0.4
'0:00.457',0.4
'0:00.461',1.59
'0:00.465',2.37
'0:00.469',2.87
'0:00.473',4.03
'0:00.477',4.74
'0:00.480',4.29
'0:00.484',2.62
'0:00.488',0.79
'0:00.492',0.02
'0:00.496',-0.5
'0:00.500',-1.07
'0:00.504',-1.44
'0:00.508',-1.32
'0:00.512',-0.91
'0:00.516',-1.57
'0:00.520',-3.5
'0:00.523',-4.61
'0:00.527',-4.25
'0:00.531',-3.08
'0:00.535',-2.01
'0:00.539',-1.51
'0:00.543',-2.74
'0:00.547',-3.53
'0:00.551',-3.61
'0:00.555',-3.63
'0:00.559',-3.85
'0:00.563',-2.94
'0:00.566',-1.32
'0:00.570',-0.15
'0:00.574',-0.04
'0:00.578',0.21
'0:00.582',1.86
'0:00.586',4.57
'0:00.590',7.52
'0:00.594',9.62
'0:00.598',9.41
'0:00.602',6.02
'0:00.605',0.13
'0:00.609',-5.24
'0:00.613',-8.19
'0:00.617',-9.13
'0:00.621',-8.36
'0:00.625',-6.78
'0:00.629',-5.04
'0:00.633',-3.58
'0:00.637',-2.66
'0:00.641',-2.35
'0:00.645',-2.06
'0:00.648',-1.6
'0:00.652',-1.6
'0:00.656',-1.45
'0:00.660',-1.05
'0:00.664',-0.53
'0:00.668',-0.52
'0:00.672',-0.74
'0:00.676',-0.85
'0:00.680',-0.63
'0:00.684',0.16
'0:00.688',1.28
'0:00.691',2.11
'0:00.695',2.3
'0:00.699',2.11
'0:00.703',2.02
'0:00.707',2.32
'0:00.711',2.78
'0:00.715',3.13
'0:00.719',3.33
'0:00.723',3.26
'0:00.727',2.88
'0:00.730',2.78
'0:00.734',3.57
'0:00.738',4.5
'0:00.742',5.03
'0:00.746',5.13
'0:00.750',4.72
'0:00.754',4.16
'0:00.758',3.7
'0:00.762',3.45
'0:00.766',2.95
'0:00.770',1.94
'0:00.773',1.27
'0:00.777',1.23
'0:00.781',1.34
'0:00.785',1.38
'0:00.789',1.5
'0:00.793',1.15
'0:00.797',1
'0:00.801',1.36
'0:00.805',1.72
'0:00.809',1.7
'0:00.813',1.21
'0:00.816',0.59
'0:00.820',-0.05
'0:00.824',-0.28
'0:00.828',-0.51
'0:00.832',-1.02
'0:00.836',-1.74
'0:00.840',-2.2
'0:00.844',-2.41
'0:00.848',-2.24
'0:00.852',-2.18
'0:00.855',-2.51
'0:00.859',-2.67
'0:00.863',-2.65
'0:00.867',-2.15
'0:00.871',-1.58
'0:00.875',-1.32
'0:00.879',-1.47
'0:00.883',-1.6
'0:00.887',-1.21
'0:00.891',-0.74
'0:00.895',-0.6
'0:00.898',-1.14
'0:00.902',-1.1
'0:00.906',0.47
'0:00.910',2.83
'0:00.914',5.42
'0:00.918',7.7
'0:00.922',6.57
'0:00.926',2.69
'0:00.930',-2.74
'0:00.934',-7.89
'0:00.938',-10.25
'0:00.941',-10.57
'0:00.945',-9.78
'0:00.949',-8.34
'0:00.953',-6.45
'0:00.957',-4.77
'0:00.961',-3.44
'0:00.965',-2.39
'0:00.969',-1.94
'0:00.973',-2.09
'0:00.977',-2.08
'0:00.980',-2.23
'0:00.984',-2.37
'0:00.988',-2.57
'0:00.992',-2.21
'0:00.996',-1.32
'0:01.000',-0.63
'0:01.004',-0.18
'0:01.008',-0.34
'0:01.012',-0.67
'0:01.016',-1.5
'0:01.020',-1.07
'0:01.023',0.1
'0:01.027',1.12
'0:01.031',1.38
'0:01.035',1.4
'0:01.039',1.94
'0:01.043',2.43
'0:01.047',3.03
'0:01.051',3.63
'0:01.055',3.88
'0:01.059',4.58
'0:01.063',4.61
'0:01.066',4.59
'0:01.070',4.64
'0:01.074',3.95
'0:01.078',3.82
'0:01.082',4.13
'0:01.086',4.28
'0:01.090',4.08
'0:01.094',3.33
'0:01.098',2.51
'0:01.102',1.88
'0:01.105',1.24
'0:01.109',0.85
'0:01.113',0.87
'0:01.117',1.08
'0:01.121',1.4
'0:01.125',1.43
'0:01.129',1.21
'0:01.133',1.08
'0:01.137',1.3
'0:01.141',1.68
'0:01.145',1.26
'0:01.148',0.62
'0:01.152',0.45
'0:01.156',0.59
'0:01.160',0.48
'0:01.164',0.13
'0:01.168',-0.27
'0:01.172',-0.49
'0:01.176',-0.69
'0:01.180',-0.99
'0:01.184',-1.43
'0:01.188',-1.93
'0:01.191',-2.61
'0:01.195',-3.11
'0:01.199',-3.32
'0:01.203',-2.96
'0:01.207',-2.62
'0:01.211',-2.56
'0:01.215',-2.64
'0:01.219',-2.63
'0:01.223',-2.7
'0:01.227',-2.55
'0:01.230',-1.96
'0:01.234',-0.37
'0:01.238',1.83
'0:01.242',4.43
'0:01.246',6.09
'0:01.250',4.55
'0:01.254',0.19
'0:01.258',-5.32
'0:01.262',-9.69
'0:01.266',-11.46
'0:01.270',-11.19
'0:01.273',-10.01
'0:01.277',-8.3
'0:01.281',-6.2
'0:01.285',-4.48
'0:01.289',-3.79
'0:01.293',-3.96
'0:01.297',-3.68
'0:01.301',-2.6
'0:01.305',-1.33
'0:01.309',0.1
'0:01.313',0.92
'0:01.316',0.99
'0:01.320',0.49
'0:01.324',-0.2
'0:01.328',-0.55
'0:01.332',-0.22
'0:01.336',0.03
'0:01.340',-0.01
'0:01.344',0.24
'0:01.348',-0.08
'0:01.352',-0.62
'0:01.355',-0.13
'0:01.359',0.69
'0:01.363',1.34
'0:01.367',2.21
'0:01.371',3.23
'0:01.375',3.96
'0:01.379',4.27
'0:01.383',3.88
'0:01.387',3.83
'0:01.391',4.27
'0:01.395',4.45
'0:01.398',4.6
'0:01.402',4.62
'0:01.406',4.18
'0:01.410',3.69
'0:01.414',3.3
'0:01.418',3.22
'0:01.422',2.87
'0:01.426',2.29
'0:01.430',1.37
'0:01.434',0.29
'0:01.438',-0.04
'0:01.441',0.05
'0:01.445',-0.02
'0:01.449',0.18
'0:01.453',0.35
'0:01.457',0.26
'0:01.461',0.25
'0:01.465',0.16
'0:01.469',-0.19
'0:01.473',-0.56
'0:01.477',-0.7
'0:01.480',-0.79
'0:01.484',-0.99
'0:01.488',-1.14
'0:01.492',-1.03
'0:01.496',-1.23
'0:01.500',-1.86
'0:01.504',-2.45
'0:01.508',-3.31
'0:01.512',-3.34
'0:01.516',-2.75
'0:01.520',-2.63
'0:01.523',-2.91
'0:01.527',-3
'0:01.531',-2.95
'0:01.535',-2.84
'0:01.539',-2.85
'0:01.543',-2.9
'0:01.547',-2.78
'0:01.551',-2.7
'0:01.555',-1.43
'0:01.559',1.15
'0:01.563',4.33
'0:01.566',7.26
'0:01.570',8.28
'0:01.574',5.41
'0:01.578',-0.61
'0:01.582',-6.18
'0:01.586',-8.9
'0:01.590',-9.61
'0:01.594',-8.88
'0:01.598',-7.57
'0:01.602',-5.88
'0:01.605',-4.26
'0:01.609',-2.87
'0:01.613',-2.28
'0:01.617',-2.23
'0:01.621',-2.06
'0:01.625',-1.62
'0:01.629',-0.82
'0:01.633',-0.3
'0:01.637',-0.25
'0:01.641',-0.36
'0:01.645',-0.04
'0:01.648',0.41
'0:01.652',0.95
'0:01.656',1.31
'0:01.660',1.45
'0:01.664',1.77
'0:01.668',1.97
'0:01.672',2.03
'0:01.676',2.1
'0:01.680',2.76
'0:01.684',3.61
'0:01.688',4.35
'0:01.691',4.93
'0:01.695',5.84
'0:01.699',6.36
'0:01.703',6.11
'0:01.707',5.78
'0:01.711',5.3
'0:01.715',4.03
'0:01.719',2.48
'0:01.723',2.01
'0:01.727',2.37
'0:01.730',3.72
'0:01.734',4.83
'0:01.738',5.24
'0:01.742',4.86
'0:01.746',3.17
'0:01.750',1.13
'0:01.754',0.82
'0:01.758',0.49
'0:01.762',0.95
'0:01.766',1.32
'0:01.770',1.16
'0:01.773',0.77
'0:01.777',0.41
'0:01.781',-0.06
'0:01.785',-0.57
'0:01.789',-0.73
'0:01.793',-0.36
'0:01.797',0.33
'0:01.801',-0.11
'0:01.805',-0.93
'0:01.809',-0.97
'0:01.813',-0.76
'0:01.816',-0.2
'0:01.820',0.28
'0:01.824',0.23
'0:01.828',-0.7
'0:01.832',-1.14
'0:01.836',-1.45
'0:01.840',-1.47
'0:01.844',-1.48
'0:01.848',-1.56
'0:01.852',-1.53
'0:01.855',-1.79
'0:01.859',-1.45
'0:01.863',-0.44
'0:01.867',0.04
'0:01.871',0.46
'0:01.875',0.84
'0:01.879',1.21
'0:01.883',2.39
'0:01.887',5.02
'0:01.891',8.43
'0:01.895',9.07
'0:01.898',5.34
'0:01.902',-0.07
'0:01.906',-4.55
'0:01.910',-6.55
'0:01.914',-7.15
'0:01.918',-6.81
'0:01.922',-6.25
'0:01.926',-5.51
'0:01.930',-3.99
'0:01.934',-2.67
'0:01.938',-1.79
'0:01.941',-1.57
'0:01.945',-1.15
'0:01.949',-1.49
'0:01.953',-2.23
'0:01.957',-1.98
'0:01.961',-0.4
'0:01.965',0.89
'0:01.969',0.98
'0:01.973',0.53
'0:01.977',0.6
'0:01.980',0.77
'0:01.984',1.1
'0:01.988',1.69
'0:01.992',2.21
'0:01.996',1.8
'0:02.000',1.22
'0:02.004',1.1
'0:02.008',0.27
'0:02.012',0.11
'0:02.016',0.99
'0:02.020',2.86
'0:02.023',4
'0:02.027',4.47
'0:02.031',4.52
'0:02.035',4.53
'0:02.039',4.58
'0:02.043',4.56
'0:02.047',4.59
'0:02.051',4.36
'0:02.055',3.66
'0:02.059',3.04
'0:02.063',2.65
'0:02.066',2.13
'0:02.070',1.65
'0:02.074',1.36
'0:02.078',1.01
'0:02.082',0.28
'0:02.086',-0.51
'0:02.090',-1.24
'0:02.094',-1.2
'0:02.098',-0.74
'0:02.102',-0.79
'0:02.105',-1.29
'0:02.109',-1.24
'0:02.113',-0.95
'0:02.117',-0.81
'0:02.121',-0.67
'0:02.125',-0.73
'0:02.129',-0.65
'0:02.133',-0.78
'0:02.137',-1.17
'0:02.141',-1.65
'0:02.145',-2.05
'0:02.148',-2.49
'0:02.152',-3.25
'0:02.156',-3.48
'0:02.160',-2.97
'0:02.164',-2.23
'0:02.168',-1.78
'0:02.172',-1.08
'0:02.176',-0.68
'0:02.180',-1.15
'0:02.184',-2.28
'0:02.188',-3.43
'0:02.191',-4.25
'0:02.195',-4.81
'0:02.199',-3.95
'0:02.203',-1.6
'0:02.207',0.77
'0:02.211',2.35
'0:02.215',4.43
'0:02.219',5.78
'0:02.223',4.38
'0:02.227',0.49
'0:02.230',-4.76
'0:02.234',-8.92
'0:02.238',-10.73
'0:02.242',-10.33
'0:02.246',-8.68
'0:02.250',-6.86
'0:02.254',-5.63
'0:02.258',-4.43
'0:02.262',-3.12
'0:02.266',-2.23
'0:02.270',-2.37
'0:02.273',-2.57
'0:02.277',-2.4
'0:02.281',-2.18
'0:02.285',-1.94
'0:02.289',-1.74
'0:02.293',-1.42
'0:02.297',-0.64
'0:02.301',0.1
'0:02.305',0.04
'0:02.309',-0.06
'0:02.313',0.67
'0:02.316',0.88
'0:02.320',0.32
'0:02.324',-0.09
'0:02.328',0.25
'0:02.332',0.94
'0:02.336',1.94
'0:02.340',2.26
'0:02.344',2.09
'0:02.348',2.67
'0:02.352',3.36
'0:02.355',3.68
'0:02.359',3.56
'0:02.363',3.28
'0:02.367',2.99
'0:02.371',3.2
'0:02.375',3.18
'0:02.379',2.46
'0:02.383',1.84
'0:02.387',1.33
'0:02.391',1.08
'0:02.395',0.77
'0:02.398',-0.06
'0:02.402',-0.7
'0:02.406',-0.63
'0:02.410',-0.63
'0:02.414',-0.8
'0:02.418',-1.14
'0:02.422',-0.94
'0:02.426',-0.89
'0:02.430',-1.04
'0:02.434',-0.87
'0:02.438',-0.66
'0:02.441',-0.77
'0:02.445',-1.03
'0:02.449',-1.1
'0:02.453',-1.07
'0:02.457',-1.3
'0:02.461',-1.69
'0:02.465',-2.4
'0:02.469',-2.48
'0:02.473',-2.13
'0:02.477',-2.17
'0:02.480',-2.5
'0:02.484',-2.53
'0:02.488',-2.43
'0:02.492',-2.62
'0:02.496',-2.62
'0:02.500',-2.39
'0:02.504',-2.23
'0:02.508',-1.61
'0:02.512',-0.81
'0:02.516',-0.61
'0:02.520',-0.4
'0:02.523',0.25
'0:02.527',1.67
'0:02.531',3.98
'0:02.535',6.5
'0:02.539',8.99
'0:02.543',9.79
'0:02.547',7.74
'0:02.551',3.39
'0:02.555',-1.8
'0:02.559',-5.33
'0:02.563',-6.62
'0:02.566',-6.32
'0:02.570',-4.95
'0:02.574',-3.89
'0:02.578',-2.95
'0:02.582',-2.48
'0:02.586',-2.47
'0:02.590',-2.79
'0:02.594',-2.76
'0:02.598',-2.31
'0:02.602',-1.54
'0:02.605',-0.57
'0:02.609',0.46
'0:02.613',0.91
'0:02.617',0.35
'0:02.621',-0.08
'0:02.625',0.1
'0:02.629',0.59
'0:02.633',1.04
'0:02.637',2.08
'0:02.641',2.56
'0:02.645',1.54
'0:02.648',0.4
'0:02.652',-0.11
'0:02.656',0.34
'0:02.660',1.04
'0:02.664',1.35
'0:02.668',1.33
'0:02.672',1.28
'0:02.676',2.27
'0:02.680',3.28
'0:02.684',3.58
'0:02.688',3.68
'0:02.691',4.24
'0:02.695',4.83
'0:02.699',4.73
'0:02.703',4.16
'0:02.707',3.97
'0:02.711',4.07
'0:02.715',4.19
'0:02.719',4.44
'0:02.723',4.07
'0:02.727',3.52
'0:02.730',3.67
'0:02.734',3.6
'0:02.738',3.02
'0:02.742',2.32
'0:02.746',1.4
'0:02.750',0.77
'0:02.754',1.01
'0:02.758',1.65
'0:02.762',1.72
'0:02.766',1.23
'0:02.770',0.57
'0:02.773',0.09
'0:02.777',-0.4
'0:02.781',-0.79
'0:02.785',-1
'0:02.789',-1.2
'0:02.793',-0.82
'0:02.797',-0.82
'0:02.801',-1.14
'0:02.805',-1.35
'0:02.809',-1.46
'0:02.813',-1.49
'0:02.816',-1.46
'0:02.820',-1.48
'0:02.824',-1.56
'0:02.828',-1.56
'0:02.832',-1.35
'0:02.836',-1.15
'0:02.840',-0.75
'0:02.844',-0.27
'0:02.848',0.19
'0:02.852',0.42
'0:02.855',1.23
'0:02.859',2.63
'0:02.863',5.19
'0:02.867',7.39
'0:02.871',6.89
'0:02.875',3.4
'0:02.879',-1.8
'0:02.883',-5.98
'0:02.887',-8.06
'0:02.891',-8.4
'0:02.895',-7.61
'0:02.898',-5.86
'0:02.902',-3.59
'0:02.906',-1.99
'0:02.910',-1.32
'0:02.914',-0.99
'0:02.918',-0.52
'0:02.922',0.02
'0:02.926',0.18
'0:02.930',0.2
'0:02.934',0.2
'0:02.938',0.2
'0:02.941',0.26
'0:02.945',0.44
'0:02.949',0.52
'0:02.953',0.47
'0:02.957',0.17
'0:02.961',-0.18
'0:02.965',-0.29
'0:02.969',-0.14
'0:02.973',0.06
'0:02.977',0.29
'0:02.980',0.49
'0:02.984',1.19
'0:02.988',1.91
'0:02.992',2.32
'0:02.996',2.71
'0:03.000',3.05
'0:03.004',3.61
'0:03.008',3.96
'0:03.012',4.14
'0:03.016',3.78
'0:03.020',3.03
'0:03.023',2.98
'0:03.027',3.47
'0:03.031',3.12
'0:03.035',2.4
'0:03.039',1.44
'0:03.043',0.57
'0:03.047',-0.02
'0:03.051',-0.62
'0:03.055',-0.48
'0:03.059',0.04
'0:03.063',0.37
'0:03.066',0.5
'0:03.070',0.76
'0:03.074',0.98
'0:03.078',0.93
'0:03.082',0.77
'0:03.086',0.42
'0:03.090',0.05
'0:03.094',0.02
'0:03.098',0.29
'0:03.102',0.36
'0:03.105',0.06
'0:03.109',-0.46
'0:03.113',-0.88
'0:03.117',-0.96
'0:03.121',-1.36
'0:03.125',-1.82
'0:03.129',-2.26
'0:03.133',-2.55
'0:03.137',-2.75
'0:03.141',-3.06
'0:03.145',-3.03
'0:03.148',-2.66
'0:03.152',-2.45
'0:03.156',-2.87
'0:03.160',-2.97
'0:03.164',-2.86
'0:03.168',-2.55
'0:03.172',-2.37
'0:03.176',-1.9
'0:03.180',-0.92
'0:03.184',0.89
'0:03.188',3.71
'0:03.191',6.94
'0:03.195',8.5
'0:03.199',6.8
'0:03.203',1.87
'0:03.207',-3.95
'0:03.211',-7.97
'0:03.215',-9.83
'0:03.219',-9.73
'0:03.223',-8.75
'0:03.227',-7.83
'0:03.230',-6.76
'0:03.234',-5.78
'0:03.238',-4.68
'0:03.242',-3.7
'0:03.246',-3.76
'0:03.250',-3.77
'0:03.254',-3.01
'0:03.258',-2.22
'0:03.262',-1.83
'0:03.266',-1.63
'0:03.270',-1.45
'0:03.273',-1.37
'0:03.277',-1.18
'0:03.281',-0.79
'0:03.285',-0.46
'0:03.289',-0.89
'0:03.293',-1.45
'0:03.297',-1.34
'0:03.301',-0.58
'0:03.305',0.23
'0:03.309',0.82
'0:03.313',1.07
'0:03.316',0.81
'0:03.320',0.69
'0:03.324',1.39
'0:03.328',2.42
'0:03.332',3.5
'0:03.336',4.46
'0:03.340',5.09
'0:03.344',5.26
'0:03.348',5.13
'0:03.352',5.05
'0:03.355',4.98
'0:03.359',4.66
'0:03.363',4.3
'0:03.367',4.06
'0:03.371',3.66
'0:03.375',3.41
'0:03.379',3.55
'0:03.383',3.46
'0:03.387',3.05
'0:03.391',2.76
'0:03.395',2.88
'0:03.398',3.25
'0:03.402',3.46
'0:03.406',3.22
'0:03.410',2.64
'0:03.414',2.19
'0:03.418',2.82
'0:03.422',3.88
'0:03.426',3.41
'0:03.430',1.22
'0:03.434',-0.73
'0:03.438',-2.24
'0:03.441',-2.74
'0:03.445',-2.2
'0:03.449',-1.9
'0:03.453',-0.93
'0:03.457',-0.2
'0:03.461',-0.37
'0:03.465',-1.82
'0:03.469',-2
'0:03.473',-1.34
'0:03.477',-1.42
'0:03.480',-2.11
'0:03.484',-2.66
'0:03.488',-3.05
'0:03.492',-2.37
'0:03.496',-2.06
'0:03.500',-1.6
'0:03.504',-0.37
'0:03.508',1.43
'0:03.512',4.46
'0:03.516',8.18
'0:03.520',8.98
'0:03.523',5.09
'0:03.527',-1.36
'0:03.531',-7.11
'0:03.535',-10.85
'0:03.539',-11.63
'0:03.543',-10.03
'0:03.547',-8.27
'0:03.551',-6.36
'0:03.555',-4.86
'0:03.559',-3.52
'0:03.563',-2.75
'0:03.566',-2.05
'0:03.570',-1.21
'0:03.574',-0.51
'0:03.578',0.37
'0:03.582',0.77
'0:03.586',1.19
'0:03.590',1.26
'0:03.594',1.18
'0:03.598',1.94
'0:03.602',2.78
'0:03.605',2.74
'0:03.609',1.98
'0:03.613',0.9
'0:03.617',0.35
'0:03.621',0.87
'0:03.625',1.92
'0:03.629',2.77
'0:03.633',2.97
'0:03.637',3.1
'0:03.641',3.22
'0:03.645',3.78
'0:03.648',4.54
'0:03.652',5.11
'0:03.656',5.18
'0:03.660',4.88
'0:03.664',4.8
'0:03.668',5.74
'0:03.672',6.48
'0:03.676',6.65
'0:03.680',6.32
'0:03.684',5.9
'0:03.688',5.36
'0:03.691',4.36
'0:03.695',3.11
'0:03.699',1.58
'0:03.703',0.54
'0:03.707',0.42
'0:03.711',0.8
'0:03.715',1.21
'0:03.719',1.43
'0:03.723',1.5
'0:03.727',1.44
'0:03.730',1.44
'0:03.734',1.28
'0:03.738',1.02
'0:03.742',0.6
'0:03.746',0.15
'0:03.750',-0.19
'0:03.754',-0.56
'0:03.758',-0.96
'0:03.762',-1.12
'0:03.766',-1.26
'0:03.770',-1.65
'0:03.773',-2.29
'0:03.777',-2.82
'0:03.781',-2.83
'0:03.785',-3
'0:03.789',-3.43
'0:03.793',-3.75
'0:03.797',-4.06
'0:03.801',-4.14
'0:03.805',-3.74
'0:03.809',-3.14
'0:03.813',-2.79
'0:03.816',-2.48
'0:03.820',-2.2
'0:03.824',-2.3
'0:03.828',-2.57
'0:03.832',-2.16
'0:03.836',-0.4
'0:03.840',2.41
'0:03.844',5.15
'0:03.848',5.32
'0:03.852',1.89
'0:03.855',-3.45
'0:03.859',-8.06
'0:03.863',-10.04
'0:03.867',-10.26
'0:03.871',-9.52
'0:03.875',-8.09
'0:03.879',-6.14
'0:03.883',-4.07
'0:03.887',-2.96
'0:03.891',-2.64
'0:03.895',-2.24
'0:03.898',-1.73
'0:03.902',-1.21
'0:03.906',-1.18
'0:03.910',-1.52
'0:03.914',-1.52
'0:03.918',-1.07
'0:03.922',-0.58
'0:03.926',-0.04
'0:03.930',0.18
'0:03.934',0.14
'0:03.938',-0.06
'0:03.941',-0.43
'0:03.945',-0.74
'0:03.949',-0.42
'0:03.953',0.74
'0:03.957',1.25
'0:03.961',1.77
'0:03.965',2.54
'0:03.969',2.9
'0:03.973',2.99
'0:03.977',3.36
'0:03.980',3.81
'0:03.984',3.8
'0:03.988',3.96
'0:03.992',4.82
'0:03.996',4.82
'0:04.000',4.51
'0:04.004',4.25
'0:04.008',3.59
'0:04.012',2.73
'0:04.016',2.33
'0:04.020',2.09
'0:04.023',1.74
'0:04.027',0.89
'0:04.031',-0.01
'0:04.035',-0.49
'0:04.039',-0.62
'0:04.043',-0.64
'0:04.047',-0.31
'0:04.051',-0.3
'0:04.055',-0.81
'0:04.059',-1.49
'0:04.063',-1.49
'0:04.066',-1.4
'0:04.070',-1.46
'0:04.074',-1.73
'0:04.078',-1.86
'0:04.082',-1.94
'0:04.086',-1.87
'0:04.090',-1.95
'0:04.094',-2.15
'0:04.098',-2.62
'0:04.102',-3.25
'0:04.105',-3.54
'0:04.109',-3.74
'0:04.113',-4.19
'0:04.117',-4.31
'0:04.121',-3.75
'0:04.125',-3.25
'0:04.129',-2.82
'0:04.133',-2.5
'0:04.137',-2.07
'0:04.141',-1.52
'0:04.145',-0.8
'0:04.148',-0.02
'0:04.152',0.66
'0:04.156',1.93
'0:04.160',3.87
'0:04.164',6.18
'0:04.168',8.18
'0:04.172',7.92
'0:04.176',4.07
'0:04.180',-1.5
'0:04.184',-5.56
'0:04.188',-7.74
'0:04.191',-8.38
'0:04.195',-7.65
'0:04.199',-6.32
'0:04.203',-5.33
'0:04.207',-4.51
'0:04.211',-3.42
'0:04.215',-2.34
'0:04.219',-1.87
'0:04.223',-1.26
'0:04.227',-0.43
'0:04.230',0.13
'0:04.234',0.29
'0:04.238',0.45
'0:04.242',0.4
'0:04.246',0.61
'0:04.250',0.68
'0:04.254',0.75
'0:04.258',0.94
'0:04.262',1.26
'0:04.266',1.41
'0:04.270',1.86
'0:04.273',2.02
'0:04.277',1.18
'0:04.281',0.56
'0:04.285',0.75
'0:04.289',0.87
'0:04.293',1.74
'0:04.297',3.05
'0:04.301',3.45
'0:04.305',3.03
'0:04.309',2.38
'0:04.313',2.44
'0:04.316',3.15
'0:04.320',4.03
'0:04.324',5.07
'0:04.328',4.95
'0:04.332',3.25
'0:04.336',1.58
'0:04.340',0.2
'0:04.344',-1.1
'0:04.348',-2.43
'0:04.352',-2.86
'0:04.355',-2.59
'0:04.359',-2.17
'0:04.363',-0.99
'0:04.367',0.41
'0:04.371',0.8
'0:04.375',0.79
'0:04.379',1.7
'0:04.383',3.08
'0:04.387',4.69
'0:04.391',5.23
'0:04.395',4.02
'0:04.398',2.84
'0:04.402',1.7
'0:04.406',0.5
'0:04.410',0.2
'0:04.414',0.66
'0:04.418',1.11
'0:04.422',0.72
'0:04.426',0.45
'0:04.430',0.09
'0:04.434',-0.07
'0:04.438',-0.42
'0:04.441',-0.25
'0:04.445',-0.02
'0:04.449',0.08
'0:04.453',0.25
'0:04.457',-0.32
'0:04.461',-1.27
'0:04.465',-1.03
'0:04.469',-0.31
'0:04.473',0.39
'0:04.477',0.42
'0:04.480',0.66
'0:04.484',2.71
'0:04.488',5.74
'0:04.492',8.16
'0:04.496',7.72
'0:04.500',3.96
'0:04.504',-1.68
'0:04.508',-6.11
'0:04.512',-8.57
'0:04.516',-9.42
'0:04.520',-8.06
'0:04.523',-5.95
'0:04.527',-3.96
'0:04.531',-2.04
'0:04.535',-0.99
'0:04.539',-0.66
'0:04.543',-0.63
'0:04.547',-0.31
'0:04.551',0.24
'0:04.555',0.78
'0:04.559',1
'0:04.563',0.57
'0:04.566',0.08
'0:04.570',-0.24
'0:04.574',0.11
'0:04.578',0.41
'0:04.582',0.42
'0:04.586',0.21
'0:04.590',0.11
'0:04.594',0.13
'0:04.598',0.18
'0:04.602',0.28
'0:04.605',0.27
'0:04.609',0.13
'0:04.613',0.29
'0:04.617',1.09
'0:04.621',1.91
'0:04.625',2.45
'0:04.629',2.54
'0:04.633',2.48
'0:04.637',2.42
'0:04.641',2.78
'0:04.645',2.79
'0:04.648',2.51
'0:04.652',2.21
'0:04.656',1.79
'0:04.660',1.14
'0:04.664',0.45
'0:04.668',0.26
'0:04.672',0.53
'0:04.676',0.55
'0:04.680',0.18
'0:04.684',-0.64
'0:04.688',-1.5
'0:04.691',-1.82
'0:04.695',-1.59
'0:04.699',-1.35
'0:04.703',-1.06
'0:04.707',-1.13
'0:04.711',-1.06
'0:04.715',-0.8
'0:04.719',-0.56
'0:04.723',-0.56
'0:04.727',-0.58
'0:04.730',-0.51
'0:04.734',-0.54
'0:04.738',-0.35
'0:04.742',-0.63
'0:04.746',-0.87
'0:04.750',-0.61
'0:04.754',-0.31
'0:04.758',-0.6
'0:04.762',-1.14
'0:04.766',-1.65
'0:04.770',-2.41
'0:04.773',-3.13
'0:04.777',-3.04
'0:04.781',-2.49
'0:04.785',-2.19
'0:04.789',-2.07
'0:04.793',-1.65
'0:04.797',-1.44
'0:04.801',-1.18
'0:04.805',-0.87
'0:04.809',0.61
'0:04.813',2.96
'0:04.816',6
'0:04.820',8.66
'0:04.824',7.65
'0:04.828',2.75
'0:04.832',-3.65
'0:04.836',-8.29
'0:04.840',-10.62
'0:04.844',-10.47
'0:04.848',-8.93
'0:04.852',-7.23
'0:04.855',-5.67
'0:04.859',-4.08
'0:04.863',-3.06
'0:04.867',-2.8
'0:04.871',-2.2
'0:04.875',-2.2
'0:04.879',-2.34
'0:04.883',-2.25
'0:04.887',-2.22
'0:04.891',-2.19
'0:04.895',-2.09
'0:04.898',-1.39
'0:04.902',-0.54
'0:04.906',0.03
'0:04.910',0.31
'0:04.914',0.71
'0:04.918',0.65
'0:04.922',0.77
'0:04.926',0.99
'0:04.930',1.37
'0:04.934',1.63
'0:04.938',1.72
'0:04.941',1.79
'0:04.945',2.38
'0:04.949',3.32
'0:04.953',3.84
'0:04.957',3.56
'0:04.961',3.41
'0:04.965',3.67
'0:04.969',3.41
'0:04.973',3.07
'0:04.977',2.8
'0:04.980',2.45
'0:04.984',2.64
'0:04.988',2.85
'0:04.992',2.5
'0:04.996',1.7
'0:05.000',1.13
'0:05.004',0.67
'0:05.008',0.26
'0:05.012',0.37
'0:05.016',0.79
'0:05.020',0.66
'0:05.023',0.43
'0:05.027',0.79
'0:05.031',0.88
'0:05.035',1.14
'0:05.039',1.72
'0:05.043',1.93
'0:05.047',1.6
'0:05.051',0.76
'0:05.055',0.35
'0:05.059',0.26
'0:05.063',-0.07
'0:05.066',-0.3
'0:05.070',-0.54
'0:05.074',-0.94
'0:05.078',-1.63
'0:05.082',-2.47
'0:05.086',-2.91
'0:05.090',-2.92
'0:05.094',-2.43
'0:05.098',-2.41
'0:05.102',-2.69
'0:05.105',-2.69
'0:05.109',-2.5
'0:05.113',-1.76
'0:05.117',-1.21
'0:05.121',-1.03
'0:05.125',-0.92
'0:05.129',-0.33
'0:05.133',1.41
'0:05.137',3.65
'0:05.141',6.43
'0:05.145',7.45
'0:05.148',5.25
'0:05.152',0.45
'0:05.156',-5.01
'0:05.160',-8.34
'0:05.164',-8.87
'0:05.168',-7.53
'0:05.172',-6.45
'0:05.176',-6.29
'0:05.180',-5.9
'0:05.184',-4.32
'0:05.188',-2.41
'0:05.191',-0.85
'0:05.195',0.08
'0:05.199',0.41
'0:05.203',-0.05
'0:05.207',-1.11
'0:05.211',-1.54
'0:05.215',-1.54
'0:05.219',-2
'0:05.223',-2.25
'0:05.227',-2.17
'0:05.230',-1.5
'0:05.234',-0.12
'0:05.238',1.32
'0:05.242',2.2
'0:05.246',3.08
'0:05.250',3.99
'0:05.254',4.16
'0:05.258',4.37
'0:05.262',4.75
'0:05.266',4.62
'0:05.270',4.21
'0:05.273',4.53
'0:05.277',5.02
'0:05.281',5.14
'0:05.285',4.96
'0:05.289',4.75
'0:05.293',4.17
'0:05.297',3.36
'0:05.301',3.45
'0:05.305',3.84
'0:05.309',3.92
'0:05.313',4.04
'0:05.316',3.68
'0:05.320',2.7
'0:05.324',1.36
'0:05.328',0.46
'0:05.332',0.3
'0:05.336',0.25
'0:05.340',0.23
'0:05.344',0.02
'0:05.348',-0.5
'0:05.352',-0.47
'0:05.355',-0.09
'0:05.359',0.25
'0:05.363',0.34
'0:05.367',0.71
'0:05.371',1.1
'0:05.375',1.3
'0:05.379',1.14
'0:05.383',0.42
'0:05.387',-0.33
'0:05.391',-0.64
'0:05.395',-0.64
'0:05.398',-0.44
'0:05.402',-0.87
'0:05.406',-1.49
'0:05.410',-1.94
'0:05.414',-1.94
'0:05.418',-2.08
'0:05.422',-2.32
'0:05.426',-2.59
'0:05.430',-2.64
'0:05.434',-2.4
'0:05.438',-2.3
'0:05.441',-2.01
'0:05.445',-1.52
'0:05.449',-0.6
'0:05.453',0.58
'0:05.457',2.19
'0:05.461',3.85
'0:05.465',5.52
'0:05.469',6
'0:05.473',3.54
'0:05.477',-0.92
'0:05.480',-5.96
'0:05.484',-9.61
'0:05.488',-11.22
'0:05.492',-11.25
'0:05.496',-10.22
'0:05.500',-8.27
'0:05.504',-5.91
'0:05.508',-4.5
'0:05.512',-3.81
'0:05.516',-3.22
'0:05.520',-2.67
'0:05.523',-2.32
'0:05.527',-2.13
'0:05.531',-1.68
'0:05.535',-1.26
'0:05.539',-0.74
'0:05.543',-0.69
'0:05.547',-1
'0:05.551',-1.38
'0:05.555',-1.21
'0:05.559',-0.75
'0:05.563',-0.09
'0:05.566',0.31
'0:05.570',0.45
'0:05.574',0.71
'0:05.578',0.97
'0:05.582',1
'0:05.586',0.95
'0:05.590',1.06
'0:05.594',1.3
'0:05.598',1.99
'0:05.602',3.04
'0:05.605',3.57
'0:05.609',3.75
'0:05.613',4.03
'0:05.617',4.44
'0:05.621',4.76
'0:05.625',4.95
'0:05.629',4.73
'0:05.633',4.4
'0:05.637',3.57
'0:05.641',2.78
'0:05.645',1.8
'0:05.648',0.65
'0:05.652',-0.04
'0:05.656',-0.02
'0:05.660',0.07
'0:05.664',-0.55
'0:05.668',-0.98
'0:05.672',-0.92
'0:05.676',-0.96
'0:05.680',-0.92
'0:05.684',-0.75
'0:05.688',-0.66
'0:05.691',-0.54
'0:05.695',-0.41
'0:05.699',-0.3
'0:05.703',-0.88
'0:05.707',-1.53
'0:05.711',-1.79
'0:05.715',-2.18
'0:05.719',-2.6
'0:05.723',-2.42
'0:05.727',-2.64
'0:05.730',-3.57
'0:05.734',-4.32
'0:05.738',-3.88
'0:05.742',-2.61
'0:05.746',-2.3
'0:05.750',-2.79
'0:05.754',-2.55
'0:05.758',-2.47
'0:05.762',-2.62
'0:05.766',-2.59
'0:05.770',-2.54
'0:05.773',-2.25
'0:05.777',-1.29
'0:05.781',0.1
'0:05.785',1.79
'0:05.789',4.3
'0:05.793',6.99
'0:05.797',7.33
'0:05.801',3.7
'0:05.805',-2.45
'0:05.809',-7.34
'0:05.813',-9.74
'0:05.816',-10.06
'0:05.820',-8.61
'0:05.824',-6.61
'0:05.828',-5.09
'0:05.832',-4.07
'0:05.836',-2.96
'0:05.840',-2.29
'0:05.844',-1.74
'0:05.848',-1.08
'0:05.852',-0.85
'0:05.855',-0.86
'0:05.859',-0.72
'0:05.863',0.02
'0:05.867',1.2
'0:05.871',2
'0:05.875',2
'0:05.879',1.58
'0:05.883',1.6
'0:05.887',1.5
'0:05.891',1.46
'0:05.895',1.69
'0:05.898',2.24
'0:05.902',2.65
'0:05.906',2.87
'0:05.910',2.74
'0:05.914',2.37
'0:05.918',2.48
'0:05.922',2.5
'0:05.926',3.13
'0:05.930',3.47
'0:05.934',3.68
'0:05.938',4.16
'0:05.941',4.45
'0:05.945',4.48
'0:05.949',4.29
'0:05.953',3.95
'0:05.957',3.85
'0:05.961',3.5
'0:05.965',3.51
'0:05.969',3.27
'0:05.973',2.62
'0:05.977',2.04
'0:05.980',1.64
'0:05.984',1.62
'0:05.988',1.24
'0:05.992',0.57
'0:05.996',0.11
'0:06.000',-0.11
'0:06.004',-0.04
'0:06.008',0.4
'0:06.012',0.7
'0:06.016',1
'0:06.020',0.84
'0:06.023',0.88
'0:06.027',0.64
'0:06.031',0.14
'0:06.035',-0.02
'0:06.039',-0.41
'0:06.043',-0.65
'0:06.047',-1.77
'0:06.051',-2.46
'0:06.055',-1.98
'0:06.059',-1.45
'0:06.063',-1.1
'0:06.066',-1.05
'0:06.070',-0.07
'0:06.074',1.14
'0:06.078',1.71
'0:06.082',0.84
'0:06.086',-0.63
'0:06.090',-1.38
'0:06.094',-1.93
'0:06.098',-2.12
'0:06.102',-0.96
'0:06.105',0.81
'0:06.109',2.77
'0:06.113',5.41
'0:06.117',8.05
'0:06.121',7.69
'0:06.125',4.54
'0:06.129',-0.54
'0:06.133',-5.57
'0:06.137',-8.46
'0:06.141',-8.44
'0:06.145',-7.1
'0:06.148',-6.24
'0:06.152',-4.86
'0:06.156',-3.23
'0:06.160',-1.8
'0:06.164',-0.64
'0:06.168',0.17
'0:06.172',0.35
'0:06.176',0.45
'0:06.180',0.81
'0:06.184',1.09
'0:06.188',1.58
'0:06.191',1.7
'0:06.195',0.96
'0:06.199',0.32
'0:06.203',0.16
'0:06.207',0.6
'0:06.211',0.93
'0:06.215',0.69
'0:06.219',0.29
'0:06.223',0.26
'0:06.227',0.48
'0:06.230',0.63
'0:06.234',0.66
'0:06.238',0.76
'0:06.242',1.38
'0:06.246',2.22
'0:06.250',2.93
'0:06.254',3.32
'0:06.258',3.67
'0:06.262',3.91
'0:06.266',4.33
'0:06.270',4.94
'0:06.273',5.02
'0:06.277',4.4
'0:06.281',3.49
'0:06.285',2.7
'0:06.289',2.46
'0:06.293',2.65
'0:06.297',2.92
'0:06.301',2.17
'0:06.305',0.89
'0:06.309',-0.13
'0:06.313',-1.16
'0:06.316',-1.75
'0:06.320',-1.47
'0:06.324',-0.85
'0:06.328',-0.46
'0:06.332',-0.34
'0:06.336',-0.38
'0:06.340',-0.45
'0:06.344',-0.58
'0:06.348',-0.97
'0:06.352',-1.79
'0:06.355',-2.23
'0:06.359',-2.19
'0:06.363',-2.44
'0:06.367',-2.61
'0:06.371',-2.02
'0:06.375',-1.34
'0:06.379',-1.26
'0:06.383',-1.72
'0:06.387',-2.57
'0:06.391',-3.54
'0:06.395',-3.78
'0:06.398',-3.45
'0:06.402',-3.08
'0:06.406',-2.9
'0:06.410',-3.23
'0:06.414',-3.45
'0:06.418',-3.33
'0:06.422',-2.65
'0:06.426',-1.81
'0:06.430',-0.58
'0:06.434',1.11
'0:06.438',3.26
'0:06.441',5.42
'0:06.445',6.51
'0:06.449',4.66
'0:06.453',-0.14
'0:06.457',-5.52
'0:06.461',-9.19
'0:06.465',-10.67
'0:06.469',-10.17
'0:06.473',-8.76
'0:06.477',-6.99
'0:06.480',-5.36
'0:06.484',-4.13
'0:06.488',-3.23
'0:06.492',-2.53
'0:06.496',-2.13
'0:06.500',-1.86
'0:06.504',-1.14
'0:06.508',-0.6
'0:06.512',-0.51
'0:06.516',-0.24
'0:06.520',-0.09
'0:06.523',-0.6
'0:06.527',-0.78
'0:06.531',-0.69
'0:06.535',-0.54
'0:06.539',-0.07
'0:06.543',0.2
'0:06.547',0.12
'0:06.551',0.57
'0:06.555',1.45
'0:06.559',2.43
'0:06.563',3.12
'0:06.566',3.18
'0:06.570',2.86
'0:06.574',2.92
'0:06.578',3.42
'0:06.582',4.39
'0:06.586',4.76
'0:06.590',4.37
'0:06.594',3.97
'0:06.598',3.97
'0:06.602',4.04
'0:06.605',4.26
'0:06.609',4.42
'0:06.613',4.19
'0:06.617',3.23
'0:06.621',2.02
'0:06.625',1.22
'0:06.629',1.13
'0:06.633',1.75
'0:06.637',2.44
'0:06.641',2.52
'0:06.645',2.4
'0:06.648',1.72
'0:06.652',1.28
'0:06.656',1.11
'0:06.660',1.06
'0:06.664',0.59
'0:06.668',0.42
'0:06.672',0.65
'0:06.676',0.46
'0:06.680',0.08
'0:06.684',-0.37
'0:06.688',-0.68
'0:06.691',-0.74
'0:06.695',-1.12
'0:06.699',-1.19
'0:06.703',-0.96
'0:06.707',-1.17
'0:06.711',-1.66
'0:06.715',-1.87
'0:06.719',-1.75
'0:06.723',-1.4
'0:06.727',-1.69
'0:06.730',-2.56
'0:06.734',-3.31
'0:06.738',-3.22
'0:06.742',-2.82
'0:06.746',-2.03
'0:06.750',-0.52
'0:06.754',1.33
'0:06.758',3.61
'0:06.762',5.97
'0:06.766',7.93
'0:06.770',6.9
'0:06.773',2.3
'0:06.777',-3.26
'0:06.781',-6.7
'0:06.785',-7.57
'0:06.789',-7.12
'0:06.793',-6.39
'0:06.797',-5.68
'0:06.801',-5.33
'0:06.805',-4.33
'0:06.809',-2.53
'0:06.813',-0.89
'0:06.816',-0.24
'0:06.820',-0.25
'0:06.824',-0.36
'0:06.828',-0.05
'0:06.832',0.49
'0:06.836',0.59
'0:06.840',0.37
'0:06.844',0.35
'0:06.848',0.45
'0:06.852',0.61
'0:06.855',0.72
'0:06.859',0.78
'0:06.863',1.22
'0:06.867',1.65
'0:06.871',2
'0:06.875',2.25
'0:06.879',2.27
'0:06.883',2.31
'0:06.887',2.64
'0:06.891',2.97
'0:06.895',3.15
'0:06.898',3.26
'0:06.902',3.65
'0:06.906',4.18
'0:06.910',4.5
'0:06.914',4.47
'0:06.918',4.37
'0:06.922',4.77
'0:06.926',5.23
'0:06.930',5.09
'0:06.934',4.68
'0:06.938',4.46
'0:06.941',4.45
'0:06.945',4.32
'0:06.949',4.42
'0:06.953',4.9
'0:06.957',5.1
'0:06.961',4.05
'0:06.965',3.63
'0:06.969',3.32
'0:06.973',2.33
'0:06.977',1.04
'0:06.980',0.47
'0:06.984',0.61
'0:06.988',0.69
'0:06.992',0.32
'0:06.996',0
'0:07.000',-0.07
'0:07.004',0
'0:07.008',-0.22
'0:07.012',-0.94
'0:07.016',-1.14
'0:07.020',-1.33
'0:07.023',-2.51
'0:07.027',-3.34
'0:07.031',-3.47
'0:07.035',-3.56
'0:07.039',-3.32
'0:07.043',-3.34
'0:07.047',-3.58
'0:07.051',-3.78
'0:07.055',-4.12
'0:07.059',-4.47
'0:07.063',-4.59
'0:07.066',-4.62
'0:07.070',-3.8
'0:07.074',-2.57
'0:07.078',-1.26
'0:07.082',0.49
'0:07.086',2.98
'0:07.090',5.01
'0:07.094',4.6
'0:07.098',0.87
'0:07.102',-4.82
'0:07.105',-9.37
'0:07.109',-11.56
'0:07.113',-11.65
'0:07.117',-10.26
'0:07.121',-8.37
'0:07.125',-6.5
'0:07.129',-5.27
'0:07.133',-4.77
'0:07.137',-4.24
'0:07.141',-3.59
'0:07.145',-2.55
'0:07.148',-1.86
'0:07.152',-1.86
'0:07.156',-1.87
'0:07.160',-1.93
'0:07.164',-2.17
'0:07.168',-1.99
'0:07.172',-1.79
'0:07.176',-1.59
'0:07.180',-1.02
'0:07.184',-0.37
'0:07.188',0.18
'0:07.191',0.5
'0:07.195',0.52
'0:07.199',0.19
'0:07.203',0.21
'0:07.207',0.87
'0:07.211',1.54
'0:07.215',2.36
'0:07.219',3.41
'0:07.223',4.16
'0:07.227',5.26
'0:07.230',5.99
'0:07.234',6.07
'0:07.238',5.53
'0:07.242',4.51
'0:07.246',3.66
'0:07.250',3.48
'0:07.254',3.57
'0:07.258',3.32
'0:07.262',2.56
'0:07.266',1.63
'0:07.270',1.27
'0:07.273',1.18
'0:07.277',1.3
'0:07.281',1.68
'0:07.285',1.54
'0:07.289',1.6
'0:07.293',1.67
'0:07.297',1.17
'0:07.301',0.82
'0:07.305',1.59
'0:07.309',1.82
'0:07.313',0.69
'0:07.316',0.05
'0:07.320',-0.01
'0:07.324',-0.35
'0:07.328',-1.21
'0:07.332',-2.02
'0:07.336',-2.18
'0:07.340',-2.15
'0:07.344',-1.82
'0:07.348',-1.58
'0:07.352',-1.85
'0:07.355',-2.39
'0:07.359',-2.63
'0:07.363',-2.69
'0:07.367',-2.87
'0:07.371',-2.93
'0:07.375',-2.93
'0:07.379',-3.4
'0:07.383',-3.1
'0:07.387',-2.18
'0:07.391',-1.45
'0:07.395',-0.16
'0:07.398',1.25
'0:07.402',2.21
'0:07.406',3.19
'0:07.410',5.12
'0:07.414',7.51
'0:07.418',7.54
'0:07.422',4.12
'0:07.426',-1.49
'0:07.430',-6.49
'0:07.434',-8.91
'0:07.438',-8.84
'0:07.441',-7.52
'0:07.445',-5.68
'0:07.449',-3.55
'0:07.453',-1.93
'0:07.457',-1.01
'0:07.461',-0.99
'0:07.465',-0.98
'0:07.469',-0.57
'0:07.473',-0.7
'0:07.477',-0.48
'0:07.480',-0.09
'0:07.484',-0.12
'0:07.488',-0.13
'0:07.492',0.01
'0:07.496',0.87
'0:07.500',1.17
'0:07.504',0.42
'0:07.508',0.22
'0:07.512',0.67
'0:07.516',1.37
'0:07.520',1.81
'0:07.523',2.23
'0:07.527',3.01
'0:07.531',3.57
'0:07.535',3.68
'0:07.539',3.89
'0:07.543',4.24
'0:07.547',4.07
'0:07.551',4.43
'0:07.555',5.27
'0:07.559',5.36
'0:07.563',4.75
'0:07.566',4.58
'0:07.570',4.64
'0:07.574',4.26
'0:07.578',3.7
'0:07.582',3.44
'0:07.586',2.97
'0:07.590',2.21
'0:07.594',1.24
'0:07.598',0.57
'0:07.602',1.04
'0:07.605',1.92
'0:07.609',2.14
'0:07.613',1.59
'0:07.617',0.68
'0:07.621',0.6
'0:07.625',1.15
'0:07.629',1.48
'0:07.633',1.77
'0:07.637',1.93
'0:07.641',1.82
'0:07.645',0.94
'0:07.648',0.27
'0:07.652',-0.5
'0:07.656',-1.16
'0:07.660',-1.08
'0:07.664',-0.53
'0:07.668',0.08
'0:07.672',0.4
'0:07.676',0.16
'0:07.680',-0.2
'0:07.684',-0.32
'0:07.688',-0.5
'0:07.691',-0.63
'0:07.695',-1
'0:07.699',-1.1
'0:07.703',-0.95
'0:07.707',-0.93
'0:07.711',-1.15
'0:07.715',-1.55
'0:07.719',-1.28
'0:07.723',-0.68
'0:07.727',0.68
'0:07.730',2.58
'0:07.734',5.05
'0:07.738',7.51
'0:07.742',7.07
'0:07.746',3.38
'0:07.750',-1.98
'0:07.754',-6.42
'0:07.758',-8.56
'0:07.762',-8.57
'0:07.766',-7.55
'0:07.770',-6
'0:07.773',-4.34
'0:07.777',-2.92
'0:07.781',-1.49
'0:07.785',-0.65
'0:07.789',-0.58
'0:07.793',-0.91
'0:07.797',-1.44
'0:07.801',-1.28
'0:07.805',-0.54
'0:07.809',-0.03
'0:07.813',0.2
'0:07.816',0.09
'0:07.820',-0.4
'0:07.824',-0.54
'0:07.828',0.3
'0:07.832',1.55
'0:07.836',1.5
'0:07.840',1.07
'0:07.844',0.53
'0:07.848',0.26
'0:07.852',0.41
'0:07.855',0.67
'0:07.859',1.03
'0:07.863',1.05
'0:07.867',0.77
'0:07.871',0.87
'0:07.875',1.35
'0:07.879',2.06
'0:07.883',2.57
'0:07.887',3
'0:07.891',3.11
'0:07.895',2.8
'0:07.898',2.27
'0:07.902',1.56
'0:07.906',1.16
'0:07.910',1.19
'0:07.914',1.64
'0:07.918',1.49
'0:07.922',0.05
'0:07.926',-0.67
'0:07.930',-0.84
'0:07.934',-1.34
'0:07.938',-2.05
'0:07.941',-2.63
'0:07.945',-3.2
'0:07.949',-3.22
'0:07.953',-2.91
'0:07.957',-2.53
'0:07.961',-2.2
'0:07.965',-2.56
'0:07.969',-2.93
'0:07.973',-3.16
'0:07.977',-3.14
'0:07.980',-3.07
'0:07.984',-2.74
'0:07.988',-2.48
'0:07.992',-2.64
'0:07.996',-3.01
'0:08.000',-3.46
'0:08.004',-3.85
'0:08.008',-3.89
'0:08.012',-3.58
'0:08.016',-2.58
'0:08.020',-2
'0:08.023',-2.47
'0:08.027',-3.22
'0:08.031',-3.25
'0:08.035',-3.23
'0:08.039',-3.48
'0:08.043',-2.91
'0:08.047',-1.23
'0:08.051',0.68
'0:08.055',2.37
'0:08.059',4.18
'0:08.063',6.91
'0:08.066',8.63
'0:08.070',7.35
'0:08.074',2.56
'0:08.078',-3.2
'0:08.082',-6.82
'0:08.086',-7.93
'0:08.090',-7.6
'0:08.094',-6.58
'0:08.098',-5.8
'0:08.102',-4.9
'0:08.105',-3.63
'0:08.109',-2.18
'0:08.113',-0.84
'0:08.117',-0.18
'0:08.121',-0.23
'0:08.125',-0.43
'0:08.129',-0.33
'0:08.133',-0.25
'0:08.137',-0.2
'0:08.141',0.4
'0:08.145',0.96
'0:08.148',1.26
'0:08.152',1.39
'0:08.156',1.51
'0:08.160',1.63
'0:08.164',1.31
'0:08.168',0.78
'0:08.172',0.54
'0:08.176',0.15
'0:08.180',0.19
'0:08.184',0.51
'0:08.188',1.57
'0:08.191',3.02
'0:08.195',3.79
'0:08.199',4.05
'0:08.203',4.4
'0:08.207',4.84
'0:08.211',5.13
'0:08.215',5.22
'0:08.219',4.89
'0:08.223',4.22
'0:08.227',3.13
'0:08.230',2.29
'0:08.234',2.01
'0:08.238',2.37
'0:08.242',3.15
'0:08.246',3.3
'0:08.250',2.59
'0:08.254',1.51
'0:08.258',0.7
'0:08.262',0.3
'0:08.266',0.26
'0:08.270',0.6
'0:08.273',1.02
'0:08.277',0.93
'0:08.281',0.62
'0:08.285',0.58
'0:08.289',0.51
'0:08.293',0.53
'0:08.297',0.55
'0:08.301',-0.52
'0:08.305',-1.3
'0:08.309',-1.27
'0:08.313',-0.2
'0:08.316',0.72
'0:08.320',0.3
'0:08.324',-0.96
'0:08.328',-1.17
'0:08.332',-1.19
'0:08.336',-1.38
'0:08.340',-1.89
'0:08.344',-1.62
'0:08.348',-0.93
'0:08.352',-0.32
'0:08.355',-0.74
'0:08.359',-1.94
'0:08.363',-2.58
'0:08.367',-2.63
'0:08.371',-2.19
'0:08.375',-0.98
'0:08.379',0.8
'0:08.383',4.17
'0:08.387',7.58
'0:08.391',9.32
'0:08.395',7.44
'0:08.398',2.09
'0:08.402',-4.03
'0:08.406',-7.71
'0:08.410',-8.61
'0:08.414',-8.13
'0:08.418',-7.31
'0:08.422',-6.59
'0:08.426',-5.83
'0:08.430',-4.47
'0:08.434',-2.64
'0:08.438',-1.23
'0:08.441',-0.66
'0:08.445',-0.72
'0:08.449',-0.49
'0:08.453',-0.2
'0:08.457',0.14
'0:08.461',0.77
'0:08.465',1.19
'0:08.469',1.22
'0:08.473',0.98
'0:08.477',0.93
'0:08.480',0.79
'0:08.484',0.87
'0:08.488',1.29
'0:08.492',1.49
'0:08.496',1.04
'0:08.500',1.14
'0:08.504',1.65
'0:08.508',2.31
'0:08.512',3.16
'0:08.516',3.63
'0:08.520',3.87
'0:08.523',3.99
'0:08.527',4.14
'0:08.531',3.74
'0:08.535',3.66
'0:08.539',4.39
'0:08.543',5.26
'0:08.547',5.53
'0:08.551',5.25
'0:08.555',4.64
'0:08.559',3.91
'0:08.563',3.03
'0:08.566',2.26
'0:08.570',1.62
'0:08.574',1.18
'0:08.578',0.83
'0:08.582',0.05
'0:08.586',-0.43
'0:08.590',-0.23
'0:08.594',0
'0:08.598',0.27
'0:08.602',0.25
'0:08.605',-0.04
'0:08.609',-0.29
'0:08.613',-0.38
'0:08.617',-0.63
'0:08.621',-0.65
'0:08.625',-0.42
'0:08.629',-0.17
'0:08.633',-0.43
'0:08.637',-1.08
'0:08.641',-1.74
'0:08.645',-1.97
'0:08.648',-1.85
'0:08.652',-1.8
'0:08.656',-1.85
'0:08.660',-1.47
'0:08.664',-0.71
'0:08.668',-1.04
'0:08.672',-1.99
'0:08.676',-2.55
'0:08.680',-2.19
'0:08.684',-1.99
'0:08.688',-2.21
'0:08.691',-2.19
'0:08.695',-1.71
'0:08.699',-0.96
'0:08.703',0.62
'0:08.707',3.01
'0:08.711',5.96
'0:08.715',7.8
'0:08.719',6.2
'0:08.723',0.86
'0:08.727',-5.18
'0:08.730',-8.57
'0:08.734',-10.01
'0:08.738',-10.83
'0:08.742',-10.65
'0:08.746',-9.64
'0:08.750',-8.12
'0:08.754',-6.96
'0:08.758',-6.16
'0:08.762',-5.46
'0:08.766',-4.38
'0:08.770',-3.71
'0:08.773',-3.27
'0:08.777',-2.38
'0:08.781',-1.47
'0:08.785',-1.32
'0:08.789',-1.13
'0:08.793',-0.51
'0:08.797',-0.14
'0:08.801',-0.71
'0:08.805',-1.61
'0:08.809',-1.99
'0:08.813',-1.75
'0:08.816',-1.39
'0:08.820',-1.1
'0:08.824',-0.41
'0:08.828',0.21
'0:08.832',0.23
'0:08.836',0.45
'0:08.840',1.04
'0:08.844',1.61
'0:08.848',2.35
'0:08.852',3.18
'0:08.855',3.65
'0:08.859',3.87
'0:08.863',3.95
'0:08.867',3.97
'0:08.871',3.77
'0:08.875',3.3
'0:08.879',2.84
'0:08.883',1.93
'0:08.887',1.57
'0:08.891',1.04
'0:08.895',0.38
'0:08.898',-0.59
'0:08.902',-1.83
'0:08.906',-2.09
'0:08.910',-1.54
'0:08.914',-0.74
'0:08.918',-0.1
'0:08.922',0.27
'0:08.926',0.13
'0:08.930',0.23
'0:08.934',0.33
'0:08.938',0.08
'0:08.941',0.07
'0:08.945',-0.01
'0:08.949',-0.31
'0:08.953',-0.6
'0:08.957',-0.85
'0:08.961',-0.63
'0:08.965',-0.36
'0:08.969',-0.03
'0:08.973',0.39
'0:08.977',0.41
'0:08.980',0.13
'0:08.984',-0.38
'0:08.988',-0.86
'0:08.992',-1.19
'0:08.996',-1.93
'0:09.000',-2.31
'0:09.004',-2.02
'0:09.008',-1.9
'0:09.012',-2.37
'0:09.016',-3.01
'0:09.020',-2.05
'0:09.023',0.45
'0:09.027',3.47
'0:09.031',6.54
'0:09.035',9.13
'0:09.039',10.13
'0:09.043',7.77
'0:09.047',2.79
'0:09.051',-2.87
'0:09.055',-6.54
'0:09.059',-8
'0:09.063',-8.78
'0:09.066',-7.91
'0:09.070',-6.19
'0:09.074',-5.79
'0:09.078',-5.03
'0:09.082',-3.41
'0:09.086',-1.46
'0:09.090',0.15
'0:09.094',1.3
'0:09.098',1.77
'0:09.102',1.16
'0:09.105',0.47
'0:09.109',0.16
'0:09.113',0.4
'0:09.117',0.75
'0:09.121',0.25
'0:09.125',-0.12
'0:09.129',-0.29
'0:09.133',-0.75
'0:09.137',-0.15
'0:09.141',1.03
'0:09.145',2.47
'0:09.148',2.71
'0:09.152',1.58
'0:09.156',1.3
'0:09.160',2.29
'0:09.164',3.62
'0:09.168',4.3
'0:09.172',4.78
'0:09.176',4.23
'0:09.180',3.59
'0:09.184',3.83
'0:09.188',4.02
'0:09.191',4.05
'0:09.195',4.26
'0:09.199',4.39
'0:09.203',3.91
'0:09.207',3.08
'0:09.211',2.09
'0:09.215',2.27
'0:09.219',2.04
'0:09.223',1.3
'0:09.227',0.62
'0:09.230',0.66
'0:09.234',1.28
'0:09.238',1.57
'0:09.242',1.09
'0:09.246',0.96
'0:09.250',1.39
'0:09.254',1.34
'0:09.258',0.96
'0:09.262',1.36
'0:09.266',2.23
'0:09.270',2.36
'0:09.273',1.26
'0:09.277',0.57
'0:09.281',0.49
'0:09.285',0
'0:09.289',0.32
'0:09.293',1.03
'0:09.297',1.04
'0:09.301',0.24
'0:09.305',-0.51
'0:09.309',-0.66
'0:09.313',-0.65
'0:09.316',-0.7
'0:09.320',-0.83
'0:09.324',-1.12
'0:09.328',-1.02
'0:09.332',-0.71
'0:09.336',-0.7
'0:09.340',-0.59
'0:09.344',-0.14
'0:09.348',0.65
'0:09.352',2.11
'0:09.355',4.23
'0:09.359',6.75
'0:09.363',7.93
'0:09.367',5.75
'0:09.371',0.85
'0:09.375',-4.36
'0:09.379',-7.52
'0:09.383',-8.98
'0:09.387',-8.96
'0:09.391',-7.9
'0:09.395',-6.44
'0:09.398',-4.95
'0:09.402',-3.59
'0:09.406',-2.59
'0:09.410',-2.19
'0:09.414',-2.04
'0:09.418',-2.09
'0:09.422',-1.81
'0:09.426',-1.32
'0:09.430',-1.05
'0:09.434',-0.68
'0:09.438',-0.33
'0:09.441',-0.34
'0:09.445',-0.6
'0:09.449',-0.9
'0:09.453',-0.9
'0:09.457',-1
'0:09.461',-0.94
'0:09.465',-0.51
'0:09.469',-0.05
'0:09.473',0.25
'0:09.477',0.46
'0:09.480',0.46
'0:09.484',0.59
'0:09.488',0.81
'0:09.492',1.16
'0:09.496',1.63
'0:09.500',1.8
'0:09.504',2.16
'0:09.508',2.46
'0:09.512',2.49
'0:09.516',2.44
'0:09.520',2.39
'0:09.523',1.81
'0:09.527',1.1
'0:09.531',0.71
'0:09.535',0.37
'0:09.539',-0.19
'0:09.543',-1.18
'0:09.547',-2.02
'0:09.551',-2.26
'0:09.555',-1.97
'0:09.559',-1.13
'0:09.563',-0.07
'0:09.566',0.34
'0:09.570',0.11
'0:09.574',-0.65
'0:09.578',-0.92
'0:09.582',-0.67
'0:09.586',-0.73
'0:09.590',-1.25
'0:09.594',-2.33
'0:09.598',-2.68
'0:09.602',-1.85
'0:09.605',-1.22
'0:09.609',-0.92
'0:09.613',-0.34
'0:09.617',0.7
'0:09.621',0.61
'0:09.625',0.04
'0:09.629',0.05
'0:09.633',-0.51
'0:09.637',-2.01
'0:09.641',-3.62
'0:09.645',-4.86
'0:09.648',-5.69
'0:09.652',-5.84
'0:09.656',-5.41
'0:09.660',-5.14
'0:09.664',-5.01
'0:09.668',-4.67
'0:09.672',-3.03
'0:09.676',-0.74
'0:09.680',1.92
'0:09.684',5.35
'0:09.688',7.46
'0:09.691',6.36
'0:09.695',2.47
'0:09.699',-2.97
'0:09.703',-7.48
'0:09.707',-9.56
'0:09.711',-9.74
'0:09.715',-8.63
'0:09.719',-6.92
'0:09.723',-5.55
'0:09.727',-4.17
'0:09.730',-2.95
'0:09.734',-2.14
'0:09.738',-1.48
'0:09.742',-0.8
'0:09.746',0.06
'0:09.750',1.34
'0:09.754',2.53
'0:09.758',2.65
'0:09.762',1.52
'0:09.766',0.49
'0:09.770',0.21
'0:09.773',0.18
'0:09.777',0.54
'0:09.781',0.69
'0:09.785',0.08
'0:09.789',-0.52
'0:09.793',0.58
'0:09.797',2.43
'0:09.801',3.79
'0:09.805',4.11
'0:09.809',3.88
'0:09.813',4.17
'0:09.816',5.09
'0:09.820',5.44
'0:09.824',5.13
'0:09.828',5.34
'0:09.832',5.7
'0:09.836',5.74
'0:09.840',5.73
'0:09.844',5.44
'0:09.848',5.1
'0:09.852',4.24
'0:09.855',3.17
'0:09.859',2.66
'0:09.863',2.22
'0:09.867',2.15
'0:09.871',2.36
'0:09.875',2.53
'0:09.879',2.03
'0:09.883',1.29
'0:09.887',0.73
'0:09.891',0.07
'0:09.895',-0.62
'0:09.898',-0.61
'0:09.902',0
'0:09.906',0.18
'0:09.910',0.73
'0:09.914',1.31
'0:09.918',1.39
'0:09.922',0.63
'0:09.926',-0.2
'0:09.930',-0.95
'0:09.934',-1.31
'0:09.938',-0.92
'0:09.941',-0.95
'0:09.945',-0.97
'0:09.949',-0.73
'0:09.953',-0.82
'0:09.957',-0.31
'0:09.961',0.27
'0:09.965',-0.44
'0:09.969',-2.56
'0:09.973',-4.4
'0:09.977',-4.69
'0:09.980',-3.56
'0:09.984',-2.41
'0:09.988',-1.71
'0:09.992',-1.68
'0:09.996',-0.75
'0:10.000',0.86
'0:10.004',3.17
'0:10.008',5.92
'0:10.012',7.22
'0:10.016',5.36
'0:10.020',1.5
'0:10.023',-3.92
'0:10.027',-8.36
'0:10.031',-8.85
'0:10.035',-5.94
'0:10.039',-2.49
'0:10.043',-0.43
'0:10.047',-0.07
'0:10.051',-0.54
'0:10.055',-0.8
'0:10.059',-1.12
'0:10.063',-1.15
'0:10.066',-1.23
'0:10.070',0.42
'0:10.074',2.53
'0:10.078',3.16
'0:10.082',2.78
'0:10.086',1.86
'0:10.090',1.68
'0:10.094',1.22
'0:10.098',0.26
'0:10.102',0.91
'0:10.105',2.39
'0:10.109',3.73
'0:10.113',4.05
'0:10.117',3.78
'0:10.121',2.86
'0:10.125',2.45
'0:10.129',2.84
'0:10.133',3.73
'0:10.137',4.44
'0:10.141',4.68
'0:10.145',4.74
'0:10.148',5.03
'0:10.152',5.39
'0:10.156',5.63
'0:10.160',5.65
'0:10.164',5.7
'0:10.168',5.55
'0:10.172',5.06
'0:10.176',4.29
'0:10.180',3.5
'0:10.184',2.93
'0:10.188',2.38
'0:10.191',1.63
'0:10.195',0.75
'0:10.199',0.06
'0:10.203',-0.27
'0:10.207',-0.41
'0:10.211',-0.56
'0:10.215',-0.75
'0:10.219',-1.05
'0:10.223',-1.14
'0:10.227',-1.02
'0:10.230',-0.97
'0:10.234',-1.02
'0:10.238',-1.21
'0:10.242',-1.47
'0:10.246',-1.9
'0:10.250',-2.4
'0:10.254',-2.7
'0:10.258',-3.03
'0:10.262',-3.39
'0:10.266',-3.52
'0:10.270',-3.65
'0:10.273',-3.79
'0:10.277',-4.06
'0:10.281',-4.21
'0:10.285',-4.25
'0:10.289',-4.29
'0:10.293',-4.63
'0:10.297',-4.64
'0:10.301',-4.64
'0:10.305',-4.55
'0:10.309',-4.39
'0:10.313',-4.21
'0:10.316',-3.81
'0:10.320',-2.39
'0:10.324',-0.2
'0:10.328',2.53
'0:10.332',5.22
'0:10.336',5.91
'0:10.340',3.23
'0:10.344',-2.33
'0:10.348',-7.61
'0:10.352',-10.57
'0:10.355',-10.9
'0:10.359',-9.61
'0:10.363',-7.95
'0:10.367',-6.29
'0:10.371',-5.08
'0:10.375',-4.2
'0:10.379',-3.76
'0:10.383',-3.67
'0:10.387',-3.18
'0:10.391',-2.65
'0:10.395',-1.77
'0:10.398',-0.99
'0:10.402',-0.36
'0:10.406',0.03
'0:10.410',0.21
'0:10.414',0.64
'0:10.418',1.38
'0:10.422',1.64
'0:10.426',1.23
'0:10.430',0.98
'0:10.434',1.41
'0:10.438',1.73
'0:10.441',2.04
'0:10.445',3.13
'0:10.449',4.29
'0:10.453',4.85
'0:10.457',3.95
'0:10.461',3
'0:10.465',3.45
'0:10.469',4.69
'0:10.473',5.56
'0:10.477',5.34
'0:10.480',4.87
'0:10.484',4.45
'0:10.488',4.06
'0:10.492',4
'0:10.496',3.73
'0:10.500',3.65
'0:10.504',3.65
'0:10.508',2.72
'0:10.512',1.34
'0:10.516',0.44
'0:10.520',0.13
'0:10.523',-0.09
'0:10.527',-0.09
'0:10.531',0.43
'0:10.535',0.58
'0:10.539',-0.37
'0:10.543',-1.73
'0:10.547',-2.28
'0:10.551',-2.29
'0:10.555',-2.46
'0:10.559',-2.97
'0:10.563',-3.46
'0:10.566',-3.52
'0:10.570',-2.97
'0:10.574',-2.92
'0:10.578',-2.9
'0:10.582',-2.63
'0:10.586',-2.49
'0:10.590',-3.17
'0:10.594',-3.89
'0:10.598',-3.54
'0:10.602',-2.36
'0:10.605',-2.16
'0:10.609',-2.31
'0:10.613',-2.37
'0:10.617',-1.91
'0:10.621',-1.47
'0:10.625',-0.67
'0:10.629',0.53
'0:10.633',1.48
'0:10.637',2.23
'0:10.641',2.52
'0:10.645',3.39
'0:10.648',5.43
'0:10.652',7.59
'0:10.656',9.66
'0:10.660',9.69
'0:10.664',9.65
'0:10.668',-4.77
'0:10.672',-8.34
'0:10.676',-9.39
'0:10.680',-8.91
'0:10.684',-8.07
'0:10.688',-6.26
'0:10.691',-4.14
'0:10.695',-2.53
'0:10.699',-1.62
'0:10.703',-0.96
'0:10.707',-0.71
'0:10.711',-0.58
'0:10.715',-0.18
'0:10.719',-0.12
'0:10.723',-0.02
'0:10.727',0.16
'0:10.730',0.4
'0:10.734',0.88
'0:10.738',0.79
'0:10.742',-0.12
'0:10.746',-0.35
'0:10.750',0.31
'0:10.754',0.98
'0:10.758',1.64
'0:10.762',2.06
'0:10.766',1.46
'0:10.770',1.25
'0:10.773',1.48
'0:10.777',2.95
'0:10.781',4.59
'0:10.785',5.04
'0:10.789',4.36
'0:10.793',4.12
'0:10.797',4.32
'0:10.801',4.49
'0:10.805',4.39
'0:10.809',4.52
'0:10.813',4.53
'0:10.816',3.73
'0:10.820',2.12
'0:10.824',1.82
'0:10.828',2.5
'0:10.832',3
'0:10.836',2.92
'0:10.840',2.4
'0:10.844',1.51
'0:10.848',1.16
'0:10.852',1.35
'0:10.855',1.14
'0:10.859',0.96
'0:10.863',0.88
'0:10.867',0.63
'0:10.871',0.27
'0:10.875',-0.21
'0:10.879',-0.51
'0:10.883',-0.88
'0:10.887',-1.41
'0:10.891',-1.81
'0:10.895',-1.5
'0:10.898',-1.34
'0:10.902',-1.44
'0:10.906',-1.8
'0:10.910',-1.94
'0:10.914',-1.34
'0:10.918',-0.2
'0:10.922',0.77
'0:10.926',1.64
'0:10.930',2.45
'0:10.934',3.4
'0:10.938',4.24
'0:10.941',4.68
'0:10.945',4.66
'0:10.949',4.75
'0:10.953',4.66
'0:10.957',4.34
'0:10.961',3.75
'0:10.965',3.34
'0:10.969',3.77
'0:10.973',5.22
'0:10.977',7.15
'0:10.980',7.88
'0:10.984',5.98
'0:10.988',1.26
'0:10.992',-4.61
'0:10.996',-8.61
'0:11.000',-10.21
'0:11.004',-10
'0:11.008',-8.53
'0:11.012',-6.33
'0:11.016',-4.75
'0:11.020',-3.91
'0:11.023',-2.89
'0:11.027',-2.09
'0:11.031',-1.9
'0:11.035',-1.88
'0:11.039',-2.06
'0:11.043',-2.04
'0:11.047',-1.57
'0:11.051',-1.24
'0:11.055',-1.44
'0:11.059',-1.68
'0:11.063',-1.53
'0:11.066',-1.19
'0:11.070',-1.37
'0:11.074',-1.36
'0:11.078',-0.75
'0:11.082',-0.29
'0:11.086',-0.16
'0:11.090',-0.27
'0:11.094',-0.26
'0:11.098',-0.38
'0:11.102',-0.3
'0:11.105',0.36
'0:11.109',1.18
'0:11.113',1.52
'0:11.117',1.58
'0:11.121',1.52
'0:11.125',1.66
'0:11.129',1.99
'0:11.133',2.54
'0:11.137',2.89
'0:11.141',2.49
'0:11.145',1.75
'0:11.148',0.97
'0:11.152',0.46
'0:11.156',0.05
'0:11.160',-0.31
'0:11.164',-0.83
'0:11.168',-1.51
'0:11.172',-1.65
'0:11.176',-1.46
'0:11.180',-1.54
'0:11.184',-1.75
'0:11.188',-1.55
'0:11.191',-1.08
'0:11.195',-0.73
'0:11.199',-1.15
'0:11.203',-1.63
'0:11.207',-1.36
'0:11.211',-1.12
'0:11.215',-1.22
'0:11.219',-1.27
'0:11.223',-1.51
'0:11.227',-1.85
'0:11.230',-2.11
'0:11.234',-2.75
'0:11.238',-3.16
'0:11.242',-3.16
'0:11.246',-2.85
'0:11.250',-2.95
'0:11.254',-3.36
'0:11.258',-3.5
'0:11.262',-3.12
'0:11.266',-2.9
'0:11.270',-2.96
'0:11.273',-3.09
'0:11.277',-3.03
'0:11.281',-2.9
'0:11.285',-2.52
'0:11.289',-1.4
'0:11.293',0
'0:11.297',1.73
'0:11.301',4.26
'0:11.305',7.09
'0:11.309',7.89
'0:11.313',4.95
'0:11.316',-0.84
'0:11.320',-5.86
'0:11.324',-8.26
'0:11.328',-8.6
'0:11.332',-7.56
'0:11.336',-6.33
'0:11.340',-4.98
'0:11.344',-3.53
'0:11.348',-1.88
'0:11.352',-0.99
'0:11.355',-0.82
'0:11.359',-0.72
'0:11.363',-0.17
'0:11.367',0.75
'0:11.371',1.59
'0:11.375',1.81
'0:11.379',1.58
'0:11.383',1.59
'0:11.387',1.67
'0:11.391',1.86
'0:11.395',1.84
'0:11.398',1.93
'0:11.402',2.19
'0:11.406',2.5
'0:11.410',2.89
'0:11.414',3.26
'0:11.418',3.59
'0:11.422',3.07
'0:11.426',2.49
'0:11.430',2.5
'0:11.434',2.93
'0:11.438',3.33
'0:11.441',3.88
'0:11.445',4.34
'0:11.449',4.16
'0:11.453',3.71
'0:11.457',3.55
'0:11.461',3.48
'0:11.465',3.28
'0:11.469',2.58
'0:11.473',1.92
'0:11.477',1.84
'0:11.480',1.86
'0:11.484',1.76
'0:11.488',1.48
'0:11.492',1
'0:11.496',0.86
'0:11.500',0.84
'0:11.504',0.76
'0:11.508',0.75
'0:11.512',0.17
'0:11.516',-0.65
'0:11.520',-0.42
'0:11.523',0.24
'0:11.527',0.87
'0:11.531',0.51
'0:11.535',0.06
'0:11.539',-0.08
'0:11.543',-0.32
'0:11.547',-0.96
'0:11.551',-1.44
'0:11.555',-1.75
'0:11.559',-1.96
'0:11.563',-1.85
'0:11.566',-1.77
'0:11.570',-1.83
'0:11.574',-2.24
'0:11.578',-2.73
'0:11.582',-2.79
'0:11.586',-2.48
'0:11.590',-1.79
'0:11.594',-1.01
'0:11.598',-0.21
'0:11.602',-0.02
'0:11.605',-0.48
'0:11.609',-0.52
'0:11.613',-0.03
'0:11.617',1.17
'0:11.621',2.92
'0:11.625',5.01
'0:11.629',7.95
'0:11.633',8.62
'0:11.637',5.77
'0:11.641',0.85
'0:11.645',-3.53
'0:11.648',-6.09
'0:11.652',-6.83
'0:11.656',-6.41
'0:11.660',-5.44
'0:11.664',-4.1
'0:11.668',-2.71
'0:11.672',-1.87
'0:11.676',-1.55
'0:11.680',-1.06
'0:11.684',-0.38
'0:11.688',0.24
'0:11.691',0.76
'0:11.695',1.1
'0:11.699',1.35
'0:11.703',1.56
'0:11.707',1.61
'0:11.711',1.68
'0:11.715',1.7
'0:11.719',1.81
'0:11.723',1.92
'0:11.727',1.99
'0:11.730',1.79
'0:11.734',1.69
'0:11.738',1.58
'0:11.742',1.42
'0:11.746',1.57
'0:11.750',1.79
'0:11.754',2.21
'0:11.758',2.83
'0:11.762',3.34
'0:11.766',3.57
'0:11.770',3.17
'0:11.773',2.88
'0:11.777',2.58
'0:11.781',2.43
'0:11.785',2.24
'0:11.789',1.56
'0:11.793',0.87
'0:11.797',0.44
'0:11.801',0.35
'0:11.805',0.28
'0:11.809',0.13
'0:11.813',-0.07
'0:11.816',-0.39
'0:11.820',-0.8
'0:11.824',-1.13
'0:11.828',-1.2
'0:11.832',-0.67
'0:11.836',0.18
'0:11.840',0.79
'0:11.844',1.1
'0:11.848',1.23
'0:11.852',1.21
'0:11.855',1.29
'0:11.859',1.51
'0:11.863',1.46
'0:11.867',0.91
'0:11.871',-0.42
'0:11.875',-1.47
'0:11.879',-2.27
'0:11.883',-3.07
'0:11.887',-3.32
'0:11.891',-3.04
'0:11.895',-3
'0:11.898',-3.24
'0:11.902',-3.34
'0:11.906',-3.12
'0:11.910',-3.18
'0:11.914',-3.25
'0:11.918',-3.12
'0:11.922',-3.04
'0:11.926',-2.75
'0:11.930',-2.76
'0:11.934',-2.97
'0:11.938',-3.03
'0:11.941',-2.16
'0:11.945',-0.08
'0:11.949',2.5
'0:11.953',5.67
'0:11.957',7.74
'0:11.961',6.59
'0:11.965',1.52
'0:11.969',-2.44
'0:11.973',-7.37
'0:11.977',-10.31
'0:11.980',-10.82
'0:11.984',-9.66
'0:11.988',-8.14
'0:11.992',-6.64
'0:11.996',-5.36
'0:12.000',-3.96
'0:12.004',-3.06
'0:12.008',-2.33
'0:12.012',-1.98
'0:12.016',-1.83
'0:12.020',-1.53
'0:12.023',-1.24
'0:12.027',-1.22
'0:12.031',-1.17
'0:12.035',-1.07
'0:12.039',-1.14
'0:12.043',-1.24
'0:12.047',-1.34
'0:12.051',-1.25
'0:12.055',-0.84
'0:12.059',-0.56
'0:12.063',-0.44
'0:12.066',-0.34
'0:12.070',-0.38
'0:12.074',0.1
'0:12.078',1.19
'0:12.082',2.21
'0:12.086',3
'0:12.090',3.36
'0:12.094',3.28
'0:12.098',3.08
'0:12.102',3.23
'0:12.105',3.66
'0:12.109',3.94
'0:12.113',4.15
'0:12.117',4.03
'0:12.121',3.5
'0:12.125',2.93
'0:12.129',2.9
'0:12.133',2.73
'0:12.137',2.44
'0:12.141',2.09
'0:12.145',1.37
'0:12.148',0.74
'0:12.152',0.77
'0:12.156',0.59
'0:12.160',0.39
'0:12.164',0.42
'0:12.168',0.99
'0:12.172',1.54
'0:12.176',1.3
'0:12.180',0.31
'0:12.184',-0.83
'0:12.188',-1.23
'0:12.191',-0.84
'0:12.195',-0.43
'0:12.199',-0.47
'0:12.203',-0.78
'0:12.207',-1.07
'0:12.211',-1.22
'0:12.215',-1.03
'0:12.219',-0.97
'0:12.223',-0.92
'0:12.227',-1.23
'0:12.230',-2.13
'0:12.234',-2.33
'0:12.238',-1.86
'0:12.242',-1.17
'0:12.246',-0.87
'0:12.250',-0.52
'0:12.254',-0.24
'0:12.258',-0.41
'0:12.262',-0.44
'0:12.266',0.26
'0:12.270',1.44
'0:12.273',3.1
'0:12.277',5.75
'0:12.281',8.21
'0:12.285',7.89
'0:12.289',3.96
'0:12.293',-1.93
'0:12.297',-6.42
'0:12.301',-8.66
'0:12.305',-8.74
'0:12.309',-7.12
'0:12.313',-5.4
'0:12.316',-4.06
'0:12.320',-2.55
'0:12.324',-0.72
'0:12.328',0.01
'0:12.332',-0.58
'0:12.336',-1.28
'0:12.340',-1.8
'0:12.344',-2.06
'0:12.348',-2.21
'0:12.352',-1.62
'0:12.355',-0.77
'0:12.359',1.03
'0:12.363',2.87
'0:12.367',3.93
'0:12.371',4.2
'0:12.375',3.92
'0:12.379',4.16
'0:12.383',4.22
'0:12.387',4.39
'0:12.391',4.48
'0:12.395',4.37
'0:12.398',4.39
'0:12.402',4.26
'0:12.406',3.7
'0:12.410',3.32
'0:12.414',3.3
'0:12.418',3.42
'0:12.422',3.93
'0:12.426',4.39
'0:12.430',4.6
'0:12.434',4.76
'0:12.438',5.14
'0:12.441',5.49
'0:12.445',5.4
'0:12.449',4.94
'0:12.453',4.27
'0:12.457',3.32
'0:12.461',2.52
'0:12.465',1.81
'0:12.469',1.18
'0:12.473',0.73
'0:12.477',0.55
'0:12.480',0.71
'0:12.484',0.55
'0:12.488',0.04
'0:12.492',-0.54
'0:12.496',-0.86
'0:12.500',-0.93
'0:12.504',-1.02
'0:12.508',-1.09
'0:12.512',-1.52
'0:12.516',-2.04
'0:12.520',-2.52
'0:12.523',-3.02
'0:12.527',-3.4
'0:12.531',-3.81
'0:12.535',-4.04
'0:12.539',-4
'0:12.543',-3.88
'0:12.547',-4.07
'0:12.551',-4.53
'0:12.555',-4.7
'0:12.559',-4.52
'0:12.563',-4.09
'0:12.566',-3.7
'0:12.570',-3.66
'0:12.574',-3.83
'0:12.578',-3.83
'0:12.582',-3.76
'0:12.586',-3.42
'0:12.590',-2.85
'0:12.594',-1.73
'0:12.598',0.31
'0:12.602',2.94
'0:12.605',5.3
'0:12.609',5
'0:12.613',1.25
'0:12.617',-4.32
'0:12.621',-8.81
'0:12.625',-11.02
'0:12.629',-11.3
'0:12.633',-10.04
'0:12.637',-8.27
'0:12.641',-6.47
'0:12.645',-5.04
'0:12.648',-4.02
'0:12.652',-3.3
'0:12.656',-2.96
'0:12.660',-2.57
'0:12.664',-2.11
'0:12.668',-1.77
'0:12.672',-1.88
'0:12.676',-1.67
'0:12.680',-0.84
'0:12.684',-0.2
'0:12.688',0.2
'0:12.691',0.28
'0:12.695',0.46
'0:12.699',0.72
'0:12.703',0.75
'0:12.707',0.87
'0:12.711',0.96
'0:12.715',1.3
'0:12.719',1.64
'0:12.723',1.85
'0:12.727',1.77
'0:12.730',1.68
'0:12.734',1.58
'0:12.738',1.62
'0:12.742',1.71
'0:12.746',2.05
'0:12.750',2.36
'0:12.754',2.29
'0:12.758',2.37
'0:12.762',2.45
'0:12.766',2.9
'0:12.770',2.76
'0:12.773',2.12
'0:12.777',1.41
'0:12.781',1.31
'0:12.785',0.99
'0:12.789',0.48
'0:12.793',0.45
'0:12.797',1.02
'0:12.801',1.98
'0:12.805',2.46
'0:12.809',2.57
'0:12.813',2.59
'0:12.816',1.67
'0:12.820',0.81
'0:12.824',0.46
'0:12.828',0.39
'0:12.832',0.04
'0:12.836',-0.35
'0:12.840',-0.66
'0:12.844',-0.69
'0:12.848',-0.69
'0:12.852',-0.85
'0:12.855',-0.96
'0:12.859',-1.51
'0:12.863',-2.03
'0:12.867',-2.27
'0:12.871',-2.47
'0:12.875',-2.69
'0:12.879',-2.7
'0:12.883',-2.62
'0:12.887',-2.46
'0:12.891',-2.55
'0:12.895',-2.57
'0:12.898',-2.54
'0:12.902',-2.88
'0:12.906',-3.16
'0:12.910',-2.82
'0:12.914',-1.93
'0:12.918',-0.06
'0:12.922',2.33
'0:12.926',5.14
'0:12.930',7.34
'0:12.934',7.38
'0:12.938',4.32
'0:12.941',-0.97
'0:12.945',-5.66
'0:12.949',-8.47
'0:12.953',-9.33
'0:12.957',-8.97
'0:12.961',-7.5
'0:12.965',-5.63
'0:12.969',-4.28
'0:12.973',-3.24
'0:12.977',-2.64
'0:12.980',-1.99
'0:12.984',-1.48
'0:12.988',-0.76
'0:12.992',0.06
'0:12.996',0.69
'0:13.000',0.69
'0:13.004',1.01
'0:13.008',1.22
'0:13.012',1.18
'0:13.016',0.71
'0:13.020',0.24
'0:13.023',-0.03
'0:13.027',0.17
'0:13.031',0.84
'0:13.035',1.6
'0:13.039',1.95
'0:13.043',1.97
'0:13.047',1.92
'0:13.051',2.21
'0:13.055',2.72
'0:13.059',3.2
'0:13.063',3.74
'0:13.066',4.12
'0:13.070',4.1
'0:13.074',3.95
'0:13.078',3.78
'0:13.082',3.84
'0:13.086',4.17
'0:13.090',4.03
'0:13.094',4
'0:13.098',3.82
'0:13.102',3.73
'0:13.105',3.73
'0:13.109',3.08
'0:13.113',2.64
'0:13.117',2.23
'0:13.121',1.88
'0:13.125',1.68
'0:13.129',1.43
'0:13.133',0.81
'0:13.137',0.4
'0:13.141',0.4
'0:13.145',0.81
'0:13.148',0.56
'0:13.152',-0.3
'0:13.156',-0.35
'0:13.160',0.33
'0:13.164',1.18
'0:13.168',2.28
'0:13.172',2.71
'0:13.176',2.19
'0:13.180',1.43
'0:13.184',1.21
'0:13.188',0.54
'0:13.191',-0.9
'0:13.195',-1.98
'0:13.199',-2.1
'0:13.203',-1.22
'0:13.207',-0.42
'0:13.211',-0.26
'0:13.215',0.17
'0:13.219',0.67
'0:13.223',1.31
'0:13.227',1.33
'0:13.230',1.02
'0:13.234',1.04
'0:13.238',0.76
'0:13.242',0.8
'0:13.246',2.77
'0:13.250',5.79
'0:13.254',7.86
'0:13.258',6.65
'0:13.262',2.94
'0:13.266',-2.37
'0:13.270',-6.78
'0:13.273',-9.37
'0:13.277',-9.54
'0:13.281',-8.51
'0:13.285',-6.92
'0:13.289',-5.22
'0:13.293',-3.62
'0:13.297',-2.31
'0:13.301',-1.61
'0:13.305',-1.05
'0:13.309',-0.47
'0:13.313',-0.07
'0:13.316',0.31
'0:13.320',0.63
'0:13.324',0.93
'0:13.328',0.74
'0:13.332',0.05
'0:13.336',-0.47
'0:13.340',-0.7
'0:13.344',-0.73
'0:13.348',-0.52
'0:13.352',-0.01
'0:13.355',0.18
'0:13.359',-0.1
'0:13.363',-0.62
'0:13.367',-0.84
'0:13.371',-0.33
'0:13.375',0.31
'0:13.379',0.91
'0:13.383',1.55
'0:13.387',2.12
'0:13.391',2.75
'0:13.395',3.28
'0:13.398',3.5
'0:13.402',3.56
'0:13.406',3.58
'0:13.410',3.51
'0:13.414',3.2
'0:13.418',2.55
'0:13.422',2.06
'0:13.426',1.65
'0:13.430',1.24
'0:13.434',0.58
'0:13.438',-0.09
'0:13.441',-0.57
'0:13.445',-0.75
'0:13.449',-0.85
'0:13.453',-0.97
'0:13.457',-0.87
'0:13.461',-0.72
'0:13.465',-0.74
'0:13.469',-0.75
'0:13.473',-0.52
'0:13.477',-0.43
'0:13.480',-0.32
'0:13.484',-0.09
'0:13.488',-0.43
'0:13.492',-1.13
'0:13.496',-1.54
'0:13.500',-1.67
'0:13.504',-2.01
'0:13.508',-2.46
'0:13.512',-2.82
'0:13.516',-2.92
'0:13.520',-2.84
'0:13.523',-2.89
'0:13.527',-3.22
'0:13.531',-3.31
'0:13.535',-3.06
'0:13.539',-2.54
'0:13.543',-2.19
'0:13.547',-2.28
'0:13.551',-2.61
'0:13.555',-2.45
'0:13.559',-1.67
'0:13.563',-1.41
'0:13.566',-1.09
'0:13.570',-0.15
'0:13.574',1.45
'0:13.578',3.98
'0:13.582',6.17
'0:13.586',6.33
'0:13.590',3.58
'0:13.594',-1.73
'0:13.598',-6.56
'0:13.602',-9.08
'0:13.605',-9.6
'0:13.609',-8.77
'0:13.613',-7.16
'0:13.617',-5.32
'0:13.621',-4.13
'0:13.625',-3.1
'0:13.629',-2.28
'0:13.633',-1.53
'0:13.637',-1.04
'0:13.641',-1.17
'0:13.645',-1.21
'0:13.648',-0.62
'0:13.652',0.23
'0:13.656',0.21
'0:13.660',-0.13
'0:13.664',-0.29
'0:13.668',-0.18
'0:13.672',0.04
'0:13.676',0.28
'0:13.680',0.6
'0:13.684',0.63
'0:13.688',0.58
'0:13.691',0.93
'0:13.695',1.1
'0:13.699',1.13
'0:13.703',1.2
'0:13.707',1.44
'0:13.711',2.33
'0:13.715',3.01
'0:13.719',3.45
'0:13.723',3.99
'0:13.727',4.17
'0:13.730',3.85
'0:13.734',3.32
'0:13.738',3.23
'0:13.742',3.04
'0:13.746',3
'0:13.750',2.89
'0:13.754',2.71
'0:13.758',2.94
'0:13.762',3.14
'0:13.766',2.68
'0:13.770',1.77
'0:13.773',0.47
'0:13.777',-0.29
'0:13.781',-0.72
'0:13.785',-1.39
'0:13.789',-1.58
'0:13.793',-1.26
'0:13.797',-0.57
'0:13.801',0.04
'0:13.805',0.58
'0:13.809',0.91
'0:13.813',1.11
'0:13.816',0.91
'0:13.820',0.29
'0:13.824',-0.47
'0:13.828',-1.27
'0:13.832',-1.89
'0:13.836',-2.48
'0:13.840',-2.72
'0:13.844',-2.67
'0:13.848',-2.42
'0:13.852',-2.17
'0:13.855',-2.17
'0:13.859',-2.46
'0:13.863',-3.2
'0:13.867',-3.8
'0:13.871',-3.6
'0:13.875',-3.04
'0:13.879',-2.43
'0:13.883',-2.09
'0:13.887',-1.53
'0:13.891',-0.46
'0:13.895',1.12
'0:13.898',3.3
'0:13.902',5.93
'0:13.906',7.54
'0:13.910',5.86
'0:13.914',1.26
'0:13.918',-4.43
'0:13.922',-8.31
'0:13.926',-9.99
'0:13.930',-10.03
'0:13.934',-8.85
'0:13.938',-7.15
'0:13.941',-5.2
'0:13.945',-3.55
'0:13.949',-2.48
'0:13.953',-1.89
'0:13.957',-1.32
'0:13.961',-0.56
'0:13.965',0.02
'0:13.969',0.09
'0:13.973',0.36
'0:13.977',0.73
'0:13.980',0.88
'0:13.984',0.71
'0:13.988',0.69
'0:13.992',0.95
'0:13.996',0.96
'0:14.000',1.04
'0:14.004',1.21
'0:14.008',1.48
'0:14.012',1.5
'0:14.016',2.33
'0:14.020',3.17
'0:14.023',3.43
'0:14.027',3.99
'0:14.031',4.6
'0:14.035',4.53
'0:14.039',4.63
'0:14.043',5.55
'0:14.047',6.07
'0:14.051',6.37
'0:14.055',6.2
'0:14.059',5.94
'0:14.063',5.63
'0:14.066',4.98
'0:14.070',4.33
'0:14.074',3.35
'0:14.078',2.46
'0:14.082',2.6
'0:14.086',2.88
'0:14.090',2.45
'0:14.094',1.3
'0:14.098',-0.28
'0:14.102',-1.51
'0:14.105',-1.92
'0:14.109',-1.44
'0:14.113',-0.35
'0:14.117',0.49
'0:14.121',0.96
'0:14.125',1.17
'0:14.129',1.99
'0:14.133',3.2
'0:14.137',3.76
'0:14.141',4.08
'0:14.145',3.92
'0:14.148',3
'0:14.152',1.11
'0:14.156',0.16
'0:14.160',0.55
'0:14.164',1.02
'0:14.168',0.59
'0:14.172',-0.18
'0:14.176',-0.31
'0:14.180',-0.34
'0:14.184',-0.66
'0:14.188',-1.1
'0:14.191',-1.22
'0:14.195',-1.35
'0:14.199',-1.57
'0:14.203',-2.04
'0:14.207',-2.11
'0:14.211',-1.46
'0:14.215',-0.54
'0:14.219',0.9
'0:14.223',3.03
'0:14.227',5.34
'0:14.230',5.95
'0:14.234',3.51
'0:14.238',-1.08
'0:14.242',-5.9
'0:14.246',-9.01
'0:14.250',-10.16
'0:14.254',-9.77
'0:14.258',-8.57
'0:14.262',-6.9
'0:14.266',-5.21
'0:14.270',-3.82
'0:14.273',-2.94
'0:14.277',-2.82
'0:14.281',-2.66
'0:14.285',-2.26
'0:14.289',-1.85
'0:14.293',-1.69
'0:14.297',-1.56
'0:14.301',-1.35
'0:14.305',-1.07
'0:14.309',-0.95
'0:14.313',-0.96
'0:14.316',-0.89
'0:14.320',-0.56
'0:14.324',-0.07
'0:14.328',0.7
'0:14.332',1.49
'0:14.336',1.48
'0:14.340',1.08
'0:14.344',1.36
'0:14.348',1.3
'0:14.352',1.19
'0:14.355',1.82
'0:14.359',2.55
'0:14.363',3.59
'0:14.367',4.22
'0:14.371',4.45
'0:14.375',4.65
'0:14.379',4.75
'0:14.383',3.91
'0:14.387',2.76
'0:14.391',2.85
'0:14.395',2.79
'0:14.398',2.11
'0:14.402',1.45
'0:14.406',0.62
'0:14.410',0.1
'0:14.414',-0.04
'0:14.418',-0.42
'0:14.422',-0.49
'0:14.426',-0.57
'0:14.430',-0.59
'0:14.434',-0.61
'0:14.438',-1.02
'0:14.441',-1.01
'0:14.445',-0.76
'0:14.449',-0.48
'0:14.453',0.26
'0:14.457',0.56
'0:14.461',0.07
'0:14.465',-0.25
'0:14.469',-0.46
'0:14.473',-1.17
'0:14.477',-2
'0:14.480',-2.35
'0:14.484',-2.6
'0:14.488',-3.12
'0:14.492',-3.62
'0:14.496',-3.78
'0:14.500',-3.36
'0:14.504',-2.6
'0:14.508',-2.36
'0:14.512',-2.5
'0:14.516',-3.13
'0:14.520',-3.88
'0:14.523',-4.12
'0:14.527',-3.86
'0:14.531',-3.46
'0:14.535',-2.81
'0:14.539',-2.11
'0:14.543',-0.96
'0:14.547',1.26
'0:14.551',4.15
'0:14.555',6.74
'0:14.559',7.04
'0:14.563',4.13
'0:14.566',-1.55
'0:14.570',-6.72
'0:14.574',-9.22
'0:14.578',-9.18
'0:14.582',-8.4
'0:14.586',-7.4
'0:14.590',-6.11
'0:14.594',-4.77
'0:14.598',-3.71
'0:14.602',-3.32
'0:14.605',-2.57
'0:14.609',-1.43
'0:14.613',-0.54
'0:14.617',0.24
'0:14.621',0.38
'0:14.625',0.38
'0:14.629',0.61
'0:14.633',0.8
'0:14.637',0.22
'0:14.641',-0.09
'0:14.645',0.17
'0:14.648',0.61
'0:14.652',0.56
'0:14.656',0.35
'0:14.660',0.42
'0:14.664',0.85
'0:14.668',1.16
'0:14.672',1.48
'0:14.676',1.63
'0:14.680',1.93
'0:14.684',2.75
'0:14.688',3.54
'0:14.691',3.85
'0:14.695',3.88
'0:14.699',4.2
'0:14.703',4.51
'0:14.707',4.44
'0:14.711',4.55
'0:14.715',4.57
'0:14.719',4.13
'0:14.723',3.18
'0:14.727',1.98
'0:14.730',1.27
'0:14.734',1.12
'0:14.738',1.12
'0:14.742',1.37
'0:14.746',1.52
'0:14.750',1.32
'0:14.754',1.5
'0:14.758',1.78
'0:14.762',1.28
'0:14.766',0.42
'0:14.770',0.08
'0:14.773',0.08
'0:14.777',0.08
'0:14.781',0.05
'0:14.785',0.09
'0:14.789',0.22
'0:14.793',0.14
'0:14.797',-0.02
'0:14.801',-0.13
'0:14.805',-0.3
'0:14.809',-0.65
'0:14.813',-0.89
'0:14.816',-0.86
'0:14.820',-1.12
'0:14.824',-1.63
'0:14.828',-1.95
'0:14.832',-1.99
'0:14.836',-2.08
'0:14.840',-2.22
'0:14.844',-2.11
'0:14.848',-1.97
'0:14.852',-1.94
'0:14.855',-1.31
'0:14.859',-0.19
'0:14.863',1.06
'0:14.867',2.35
'0:14.871',4.5
'0:14.875',7.19
'0:14.879',9.21
'0:14.883',8.14
'0:14.887',4.12
'0:14.891',-1.23
'0:14.895',-5.71
'0:14.898',-8.06
'0:14.902',-8.54
'0:14.906',-7.32
'0:14.910',-5.07
'0:14.914',-3.05
'0:14.918',-2.22
'0:14.922',-1.82
'0:14.926',-1.65
'0:14.930',-1.42
'0:14.934',-0.94
'0:14.938',-0.48
'0:14.941',-0.04
'0:14.945',0.53
'0:14.949',0.89
'0:14.953',1.19
'0:14.957',1.41
'0:14.961',1.05
'0:14.965',0.67
'0:14.969',0.72
'0:14.973',1.11
'0:14.977',1.44
'0:14.980',1.63
'0:14.984',1.94
'0:14.988',2.12
'0:14.992',2.66
'0:14.996',3
'0:15.000',3.41
'0:15.004',3.9
'0:15.008',4.34
'0:15.012',4.91
'0:15.016',5.44
'0:15.020',5.67
'0:15.023',5.87
'0:15.027',5.42
'0:15.031',4.96
'0:15.035',5.19
'0:15.039',5.33
'0:15.043',5.05
'0:15.047',4.71
'0:15.051',4.62
'0:15.055',4.49
'0:15.059',4.16
'0:15.063',4.09
'0:15.066',3.97
'0:15.070',3.71
'0:15.074',3.43
'0:15.078',3.04
'0:15.082',2.27
'0:15.086',1.87
'0:15.090',2.04
'0:15.094',2.45
'0:15.098',2.16
'0:15.102',1.01
'0:15.105',0.14
'0:15.109',-0.11
'0:15.113',-0.02
'0:15.117',-0.03
'0:15.121',-0.45
'0:15.125',-1.08
'0:15.129',-1.88
'0:15.133',-2.36
'0:15.137',-2.59
'0:15.141',-2.8
'0:15.145',-2.96
'0:15.148',-2.95
'0:15.152',-2.92
'0:15.156',-3.42
'0:15.160',-3.88
'0:15.164',-4.07
'0:15.168',-4.23
'0:15.172',-4.21
'0:15.176',-4.2
'0:15.180',-3.87
'0:15.184',-3.24
'0:15.188',-2.08
'0:15.191',-0.12
'0:15.195',2.03
'0:15.199',4.13
'0:15.203',5.23
'0:15.207',3.63
'0:15.211',-0.29
'0:15.215',-4.99
'0:15.219',-8.42
'0:15.223',-10.09
'0:15.227',-10.23
'0:15.230',-9.36
'0:15.234',-7.98
'0:15.238',-6.51
'0:15.242',-4.84
'0:15.246',-3.44
'0:15.250',-2.64
'0:15.254',-2.19
'0:15.258',-1.87
'0:15.262',-1.52
'0:15.266',-1.24
'0:15.270',-1.24
'0:15.273',-0.96
'0:15.277',-0.26
'0:15.281',-0.25
'0:15.285',-0.9
'0:15.289',-0.98
'0:15.293',-0.72
'0:15.297',-0.32
'0:15.301',0.23
'0:15.305',0.44
'0:15.309',0.45
'0:15.313',0.61
'0:15.316',1.01
'0:15.320',0.95
'0:15.324',0.69
'0:15.328',1.06
'0:15.332',1.58
'0:15.336',2.17
'0:15.340',3
'0:15.344',3.71
'0:15.348',4.01
'0:15.352',3.83
'0:15.355',3.43
'0:15.359',3.31
'0:15.363',3.44
'0:15.367',2.97
'0:15.371',2.63
'0:15.375',2.61
'0:15.379',1.86
'0:15.383',0.69
'0:15.387',-0.17
'0:15.391',-0.8
'0:15.395',-0.93
'0:15.398',-1.09
'0:15.402',-0.83
'0:15.406',-0.13
'0:15.410',0.57
'0:15.414',0.47
'0:15.418',0
'0:15.422',-0.47
'0:15.426',-0.53
'0:15.430',-0.64
'0:15.434',-0.9
'0:15.438',-1.05
'0:15.441',-1.04
'0:15.445',-0.9
'0:15.449',-1.85
'0:15.453',-2.73
'0:15.457',-3.12
'0:15.461',-2.73
'0:15.465',-2.49
'0:15.469',-2.51
'0:15.473',-2.98
'0:15.477',-3.53
'0:15.480',-3.86
'0:15.484',-3.94
'0:15.488',-3.86
'0:15.492',-3.58
'0:15.496',-3.28
'0:15.500',-2.9
'0:15.504',-2.28
'0:15.508',-1.71
'0:15.512',-1.3
'0:15.516',-0.62
'0:15.520',0.87
'0:15.523',3.03
'0:15.527',5.07
'0:15.531',6.08
'0:15.535',4.46
'0:15.539',0.05
'0:15.543',-4.92
'0:15.547',-7.96
'0:15.551',-9.02
'0:15.555',-8.63
'0:15.559',-7.49
'0:15.563',-6.21
'0:15.566',-4.96
'0:15.570',-3.43
'0:15.574',-2.22
'0:15.578',-1.29
'0:15.582',-0.38
'0:15.586',0.19
'0:15.590',0.75
'0:15.594',0.95
'0:15.598',0.88
'0:15.602',0.87
'0:15.605',0.87
'0:15.609',0.84
'0:15.613',1
'0:15.617',1.13
'0:15.621',1.49
'0:15.625',1.84
'0:15.629',1.96
'0:15.633',2.17
'0:15.637',2.22
'0:15.641',2.23
'0:15.645',2.45
'0:15.648',2.7
'0:15.652',2.93
'0:15.656',3.56
'0:15.660',4.52
'0:15.664',5.22
'0:15.668',5.39
'0:15.672',5.3
'0:15.676',5.05
'0:15.680',4.56
'0:15.684',4.28
'0:15.688',4.13
'0:15.691',3.77
'0:15.695',2.85
'0:15.699',2.02
'0:15.703',1.35
'0:15.707',1.15
'0:15.711',1.4
'0:15.715',1.35
'0:15.719',0.93
'0:15.723',0.79
'0:15.727',1.19
'0:15.730',1.57
'0:15.734',1.56
'0:15.738',1.1
'0:15.742',0.9
'0:15.746',1.09
'0:15.750',1.03
'0:15.754',0.97
'0:15.758',0.74
'0:15.762',0.67
'0:15.766',0.89
'0:15.770',0.95
'0:15.773',0.82
'0:15.777',0.52
'0:15.781',-0.25
'0:15.785',-1.15
'0:15.789',-1.46
'0:15.793',-1.46
'0:15.797',-1.3
'0:15.801',-1.01
'0:15.805',-0.96
'0:15.809',-1.09
'0:15.813',-1
'0:15.816',-1.19
'0:15.820',-2.03
'0:15.824',-1.74
'0:15.828',-0.93
'0:15.832',-0.19
'0:15.836',0.43
'0:15.840',1.32
'0:15.844',2.71
'0:15.848',4.47
'0:15.852',6.83
'0:15.855',7.78
'0:15.859',5.64
'0:15.863',1.26
'0:15.867',-3.62
'0:15.871',-6.72
'0:15.875',-7.33
'0:15.879',-6.52
'0:15.883',-5.59
'0:15.887',-4.37
'0:15.891',-2.59
'0:15.895',-0.82
'0:15.898',0.15
'0:15.902',1.01
'0:15.906',2.03
'0:15.910',1.99
'0:15.914',1.32
'0:15.918',1.06
'0:15.922',1.44
'0:15.926',1.78
'0:15.930',2.17
'0:15.934',2.66
'0:15.938',2.73
'0:15.941',2.51
'0:15.945',2.58
'0:15.949',2.7
'0:15.953',3.12
'0:15.957',3.58
'0:15.961',3.1
'0:15.965',2.62
'0:15.969',2.72
'0:15.973',3.06
'0:15.977',3.73
'0:15.980',4.22
'0:15.984',4.36
'0:15.988',4.36
'0:15.992',4.32
'0:15.996',4.27
'0:16.000',4.11
'0:16.004',3.84
'0:16.008',3.74
'0:16.012',3.52
'0:16.016',2.94
'0:16.020',2.2
'0:16.023',1.47
'0:16.027',0.95
'0:16.031',0.53
'0:16.035',-0.09
'0:16.039',-0.49
'0:16.043',-0.78
'0:16.047',-1.12
'0:16.051',-1.26
'0:16.055',-1.38
'0:16.059',-1.24
'0:16.063',-0.83
'0:16.066',-0.52
'0:16.070',-0.67
'0:16.074',-0.93
'0:16.078',-1.04
'0:16.082',-1.31
'0:16.086',-1.9
'0:16.090',-2.37
'0:16.094',-2.54
'0:16.098',-2.85
'0:16.102',-3.1
'0:16.105',-3.23
'0:16.109',-3.63
'0:16.113',-4.42
'0:16.117',-4.99
'0:16.121',-5.08
'0:16.125',-4.75
'0:16.129',-4.15
'0:16.133',-3.53
'0:16.137',-3.07
'0:16.141',-2.79
'0:16.145',-3.56
'0:16.148',-4.52
'0:16.152',-4.63
'0:16.156',-4.09
'0:16.160',-3.33
'0:16.164',-2.77
'0:16.168',-1.4
'0:16.172',0.48
'0:16.176',2.82
'0:16.180',5.54
'0:16.184',6.05
'0:16.188',2.57
'0:16.191',-3.2
'0:16.195',-8.13
'0:16.199',-10.68
'0:16.203',-10.82
'0:16.207',-9.31
'0:16.211',-7.72
'0:16.215',-6.19
'0:16.219',-4.8
'0:16.223',-3.96
'0:16.227',-3.28
'0:16.230',-2.56
'0:16.234',-2.18
'0:16.238',-1.71
'0:16.242',-1.42
'0:16.246',-1.3
'0:16.250',-1
'0:16.254',-0.6
'0:16.258',0.06
'0:16.262',0.36
'0:16.266',0.43
'0:16.270',0.13
'0:16.273',-0.06
'0:16.277',0.41
'0:16.281',0.88
'0:16.285',1.25
'0:16.289',1.52
'0:16.293',1.83
'0:16.297',1.53
'0:16.301',1.61
'0:16.305',2.24
'0:16.309',2.27
'0:16.313',2.58
'0:16.316',3.24
'0:16.320',3.65
'0:16.324',3.68
'0:16.328',3.97
'0:16.332',4.29
'0:16.336',4.03
'0:16.340',3.64
'0:16.344',3.24
'0:16.348',2.6
'0:16.352',2.17
'0:16.355',1.67
'0:16.359',0.95
'0:16.363',0.16
'0:16.367',-0.25
'0:16.371',-0.38
'0:16.375',-0.33
'0:16.379',-0.25
'0:16.383',-0.12
'0:16.387',-0.1
'0:16.391',0.18
'0:16.395',0.06
'0:16.398',-0.2
'0:16.402',-0.4
'0:16.406',-0.57
'0:16.410',-0.76
'0:16.414',-0.95
'0:16.418',-0.95
'0:16.422',-1.08
'0:16.426',-1.41
'0:16.430',-1.85
'0:16.434',-2.28
'0:16.438',-2.64
'0:16.441',-2.88
'0:16.445',-2.92
'0:16.449',-2.88
'0:16.453',-2.69
'0:16.457',-2.74
'0:16.461',-2.98
'0:16.465',-3.1
'0:16.469',-2.86
'0:16.473',-2.48
'0:16.477',-2.31
'0:16.480',-2.13
'0:16.484',-1.75
'0:16.488',-1.24
'0:16.492',0.04
'0:16.496',1.87
'0:16.500',4.13
'0:16.504',6.36
'0:16.508',6.58
'0:16.512',3.43
'0:16.516',-1.73
'0:16.520',-6.21
'0:16.523',-8.53
'0:16.527',-8.65
'0:16.531',-7.3
'0:16.535',-5.36
'0:16.539',-3.71
'0:16.543',-2.56
'0:16.547',-1.56
'0:16.551',-0.86
'0:16.555',-0.51
'0:16.559',-0.01
'0:16.563',0.49
'0:16.566',0.86
'0:16.570',1.04
'0:16.574',1.15
'0:16.578',0.98
'0:16.582',0.56
'0:16.586',0.66
'0:16.590',1
'0:16.594',1.5
'0:16.598',1.92
'0:16.602',2.33
'0:16.605',2.44
'0:16.609',2.58
'0:16.613',2.66
'0:16.617',2.72
'0:16.621',3.02
'0:16.625',3.44
'0:16.629',3.78
'0:16.633',4.33
'0:16.637',4.72
'0:16.641',4.91
'0:16.645',5.22
'0:16.648',5.62
'0:16.652',5.72
'0:16.656',5.55
'0:16.660',5.27
'0:16.664',4.77
'0:16.668',4.19
'0:16.672',3.72
'0:16.676',3.55
'0:16.680',3.24
'0:16.684',2.78
'0:16.688',2.04
'0:16.691',1.64
'0:16.695',1.26
'0:16.699',1.38
'0:16.703',1.77
'0:16.707',2.34
'0:16.711',2.56
'0:16.715',2.52
'0:16.719',2.15
'0:16.723',1.25
'0:16.727',0.88
'0:16.730',0.88
'0:16.734',1.21
'0:16.738',1.71
'0:16.742',1.81
'0:16.746',1.03
'0:16.750',0.27
'0:16.754',-0.01
'0:16.758',-0.26
'0:16.762',-0.81
'0:16.766',-1.42
'0:16.770',-2.01
'0:16.773',-1.97
'0:16.777',-1.77
'0:16.781',-1.68
'0:16.785',-1.49
'0:16.789',-1.25
'0:16.793',-1.59
'0:16.797',-1.75
'0:16.801',-1.86
'0:16.805',-1.96
'0:16.809',-1.8
'0:16.813',-1.35
'0:16.816',-0.5
'0:16.820',0.82
'0:16.824',2.85
'0:16.828',5.26
'0:16.832',5.41
'0:16.836',2.42
'0:16.840',-1.98
'0:16.844',-5.79
'0:16.848',-7.79
'0:16.852',-7.97
'0:16.855',-6.9
'0:16.859',-5.26
'0:16.863',-3.89
'0:16.867',-2.9
'0:16.871',-2.22
'0:16.875',-1.62
'0:16.879',-0.65
'0:16.883',-0.5
'0:16.887',-0.5
'0:16.891',0.07
'0:16.895',0.98
'0:16.898',1.55
'0:16.902',1.83
'0:16.906',1.61
'0:16.910',1.11
'0:16.914',0.89
'0:16.918',0.87
'0:16.922',1.5
'0:16.926',2.44
'0:16.930',3.07
'0:16.934',3.25
'0:16.938',2.93
'0:16.941',2.76
'0:16.945',3.18
'0:16.949',3.7
'0:16.953',3.95
'0:16.957',4.29
'0:16.961',4.68
'0:16.965',5.11
'0:16.969',4.85
'0:16.973',4.83
'0:16.977',4.69
'0:16.980',4.66
'0:16.984',4.29
'0:16.988',4.29
'0:16.992',3.47
'0:16.996',2.76
'0:17.000',1.73
'0:17.004',0.85
'0:17.008',0.26
'0:17.012',-0.08
'0:17.016',-0.3
'0:17.020',-0.39
'0:17.023',-0.21
'0:17.027',-0.11
'0:17.031',-0.85
'0:17.035',-1.3
'0:17.039',-1.7
'0:17.043',-1.65
'0:17.047',-1.24
'0:17.051',-1.1
'0:17.055',-0.98
'0:17.059',-0.96
'0:17.063',-1.51
'0:17.066',-2.25
'0:17.070',-2.75
'0:17.074',-3.23
'0:17.078',-3.6
'0:17.082',-3.98
'0:17.086',-4.26
'0:17.090',-4.38
'0:17.094',-4.95
'0:17.098',-5.22
'0:17.102',-5.31
'0:17.105',-5.11
'0:17.109',-4.88
'0:17.113',-4.53
'0:17.117',-4.2
'0:17.121',-3.7
'0:17.125',-3.58
'0:17.129',-3.76
'0:17.133',-3.82
'0:17.137',-3.43
'0:17.141',-2.22
'0:17.145',-0.74
'0:17.148',1.31
'0:17.152',3.94
'0:17.156',5
'0:17.160',2.97
'0:17.164',-1.68
'0:17.168',-6.79
'0:17.172',-9.95
'0:17.176',-10.86
'0:17.180',-10.23
'0:17.184',-8.73
'0:17.188',-6.89
'0:17.191',-5.17
'0:17.195',-3.87
'0:17.199',-2.83
'0:17.203',-2.26
'0:17.207',-2.18
'0:17.211',-1.98
'0:17.215',-1.57
'0:17.219',-1.04
'0:17.223',-0.92
'0:17.227',-0.83
'0:17.230',-0.69
'0:17.234',-0.66
'0:17.238',-0.58
'0:17.242',-0.53
'0:17.246',-0.56
'0:17.250',-0.25
'0:17.254',0.25
'0:17.258',0.66
'0:17.262',0.78
'0:17.266',1.22
'0:17.270',1.34
'0:17.273',1.34
'0:17.277',1.34
'0:17.281',2.11
'0:17.285',2.36
'0:17.289',2.83
'0:17.293',3.31
'0:17.297',3.34
'0:17.301',3.34
'0:17.305',3.96
'0:17.309',4.08
'0:17.313',3.76
'0:17.316',3.2
'0:17.320',2.99
'0:17.324',2.82
'0:17.328',2.65
'0:17.332',1.98
'0:17.336',1.49
'0:17.340',1.15
'0:17.344',0.75
'0:17.348',0.51
'0:17.352',0.15
'0:17.355',0.02
'0:17.359',0.05
'0:17.363',-0.04
'0:17.367',-0.02
'0:17.371',0.14
'0:17.375',0.23
'0:17.379',0.22
'0:17.383',-0.57
'0:17.387',-0.63
'0:17.391',-0.82
'0:17.395',-0.78
'0:17.398',-0.86
'0:17.402',-1.09
'0:17.406',-1.55
'0:17.410',-2.17
'0:17.414',-2.62
'0:17.418',-2.74
'0:17.422',-2.89
'0:17.426',-3.1
'0:17.430',-3.15
'0:17.434',-2.65
'0:17.438',-2.55
'0:17.441',-2.67
'0:17.445',-2.51
'0:17.449',-2.07
'0:17.453',-1.89
'0:17.457',-1.71
'0:17.461',-1.57
'0:17.465',-1.07
'0:17.469',0.15
'0:17.473',1.93
'0:17.477',4.19
'0:17.480',6.11
'0:17.484',5.69
'0:17.488',2.29
'0:17.492',-2.62
'0:17.496',-6.75
'0:17.500',-8.59
'0:17.504',-8.23
'0:17.508',-6.74
'0:17.512',-6.63
'0:17.516',-3.26
'0:17.520',-1.78
'0:17.523',-1.48
'0:17.527',-0.42
'0:17.531',-0.36
'0:17.535',1.09
'0:17.539',1.34
'0:17.543',1.74
'0:17.547',1.99
'0:17.551',2.11
'0:17.555',1.95
'0:17.559',1.79
'0:17.563',1.64
'0:17.566',1.68
'0:17.570',1.7
'0:17.574',2.02
'0:17.578',2.31
'0:17.582',2.5
'0:17.586',2.81
'0:17.590',2.93
'0:17.594',3.01
'0:17.598',3.41
'0:17.602',3.9
'0:17.605',4.27
'0:17.609',4.62
'0:17.613',4.57
'0:17.617',4.53
'0:17.621',4.67
'0:17.625',4.9
'0:17.629',5.1
'0:17.633',4.96
'0:17.637',4.48
'0:17.641',3.59
'0:17.645',3.39
'0:17.648',3.41
'0:17.652',2.97
'0:17.656',2.59
'0:17.660',2.16
'0:17.664',1.89
'0:17.668',1.77
'0:17.672',1.78
'0:17.676',1.42
'0:17.680',1.25
'0:17.684',1.29
'0:17.688',1.24
'0:17.691',1.05
'0:17.695',1.21
'0:17.699',1.28
'0:17.703',0.87
'0:17.707',0.38
'0:17.711',0.36
'0:17.715',0.61
'0:17.719',0.58
'0:17.723',0.09
'0:17.727',-0.43
'0:17.730',-1.04
'0:17.734',-1.41
'0:17.738',-1.69
'0:17.742',-2.2
'0:17.746',-2.75
'0:17.750',-3.22
'0:17.754',-3.7
'0:17.758',-2.85
'0:17.762',-1.72
'0:17.766',-1.21
'0:17.770',-1.21
'0:17.773',-1.26
'0:17.777',-1.38
'0:17.781',-1.59
'0:17.785',-1.63
'0:17.789',-1.14
'0:17.793',-0.26
'0:17.797',0.69
'0:17.801',1.97
'0:17.805',4.08
'0:17.809',4.68
'0:17.813',2.2
'0:17.816',-2.29
'0:17.820',-6.28
'0:17.824',-8.11
'0:17.828',-7.82
'0:17.832',-6.75
'0:17.836',-5.27
'0:17.840',-3.76
'0:17.844',-2.31
'0:17.848',-1.45
'0:17.852',-0.55
'0:17.855',0.32
'0:17.859',0.81
'0:17.863',0.8
'0:17.867',1.3
'0:17.871',2.1
'0:17.875',2.8
'0:17.879',2.08
'0:17.883',0.79
'0:17.887',0.54
'0:17.891',1.21
'0:17.895',2.11
'0:17.898',2.29
'0:17.902',2.43
'0:17.906',2.71
'0:17.910',3.02
'0:17.914',3.37
'0:17.918',3.61
'0:17.922',3.7
'0:17.926',3.8
'0:17.930',4.11
'0:17.934',4.55
'0:17.938',4.95
'0:17.941',5.14
'0:17.945',5.17
'0:17.949',5.15
'0:17.953',5.01
'0:17.957',4.81
'0:17.961',4.73
'0:17.965',4.5
'0:17.969',3.89
'0:17.973',3.01
'0:17.977',2.12
'0:17.980',1.38
'0:17.984',0.74
'0:17.988',0.31
'0:17.992',0.09
'0:17.996',-0.13
'0:18.000',-0.3
'0:18.004',-0.28
'0:18.008',0.15
'0:18.012',0.48
'0:18.016',0.18
'0:18.020',-0.5
'0:18.023',-0.9
'0:18.027',-1.3
'0:18.031',-1.66
'0:18.035',-1.98
'0:18.039',-2.5
'0:18.043',-2.63
'0:18.047',-2.5
'0:18.051',-2.36
'0:18.055',-2.83
'0:18.059',-3.5
'0:18.063',-4.02
'0:18.066',-4.19
'0:18.070',-4.09
'0:18.074',-4.01
'0:18.078',-4.13
'0:18.082',-4.29
'0:18.086',-4.2
'0:18.090',-3.91
'0:18.094',-3.79
'0:18.098',-3.72
'0:18.102',-3.75
'0:18.105',-3.88
'0:18.109',-3.81
'0:18.113',-3.25
'0:18.117',-2.26
'0:18.121',-0.7
'0:18.125',1.16
'0:18.129',3.23
'0:18.133',4.52
'0:18.137',2.95
'0:18.141',-1.36
'0:18.145',-6.44
'0:18.148',-9.69
'0:18.152',-10.87
'0:18.156',-10.45
'0:18.160',-9.15
'0:18.164',-7.7
'0:18.168',-6.69
'0:18.172',-5.34
'0:18.176',-4.22
'0:18.180',-3.51
'0:18.184',-2.79
'0:18.188',-2.32
'0:18.191',-2.07
'0:18.195',-2.12
'0:18.199',-1.8
'0:18.203',-1.14
'0:18.207',-0.63
'0:18.211',-0.6
'0:18.215',-0.6
'0:18.219',-0.72
'0:18.223',-0.63
'0:18.227',-0.17
'0:18.230',0.37
'0:18.234',0.29
'0:18.238',0.35
'0:18.242',0.92
'0:18.246',1.34
'0:18.250',1.45
'0:18.254',1.43
'0:18.258',1.94
'0:18.262',2.49
'0:18.266',3.2
'0:18.270',3.4
'0:18.273',3.2
'0:18.277',3.21
'0:18.281',3.56
'0:18.285',3.76
'0:18.289',3.49
'0:18.293',3.45
'0:18.297',3.01
'0:18.301',2.31
'0:18.305',1.83
'0:18.309',0.73
'0:18.313',1.16
'0:18.316',0.95
'0:18.320',0.35
'0:18.324',0.27
'0:18.328',0.22
'0:18.332',0.41
'0:18.336',0.23
'0:18.340',-0.42
'0:18.344',-0.51
'0:18.348',-0.13
'0:18.352',0.33
'0:18.355',0.37
'0:18.359',0.37
'0:18.363',-0.27
'0:18.367',-0.81
'0:18.371',-1.22
'0:18.375',-1.41
'0:18.379',-1.29
'0:18.383',-1.31
'0:18.387',-1.24
'0:18.391',-1.41
'0:18.395',-1.88
'0:18.398',-2.26
'0:18.402',-2.33
'0:18.406',-2.07
'0:18.410',-1.79
'0:18.414',-1.75
'0:18.418',-1.9
'0:18.422',-2.01
'0:18.426',-1.68
'0:18.430',-1.69
'0:18.434',-1.93
'0:18.438',-1.7
'0:18.441',-1.19
'0:18.445',-0.39
'0:18.449',1
'0:18.453',3.16
'0:18.457',5.43
'0:18.461',6.27
'0:18.465',4.24
'0:18.469',-0.41
'0:18.473',-5.39
'0:18.477',-8.6
'0:18.480',-9.37
'0:18.484',-8.67
'0:18.488',-8.67
'0:18.492',-5.36
'0:18.496',-3.78
'0:18.500',-2.48
'0:18.504',-1.21
'0:18.508',-0.42
'0:18.512',0.85
'0:18.516',1.19
'0:18.520',1.22
'0:18.523',1.12
'0:18.527',1.12
'0:18.531',1.12
'0:18.535',1.12
'0:18.539',1.75
'0:18.543',1.78
'0:18.547',2.21
'0:18.551',2.41
'0:18.555',2.39
'0:18.559',2.43
'0:18.563',2.56
'0:18.566',2.66
'0:18.570',2.78
'0:18.574',3.26
'0:18.578',3.76
'0:18.582',3.95
'0:18.586',4.28
'0:18.590',4.63
'0:18.594',5
'0:18.598',5.07
'0:18.602',4.92
'0:18.605',4.91
'0:18.609',4.86
'0:18.613',4.63
'0:18.617',3.92
'0:18.621',3.18
'0:18.625',2.51
'0:18.629',1.81
'0:18.633',1.34
'0:18.637',1.19
'0:18.641',1.54
'0:18.645',1.74
'0:18.648',0.88
'0:18.652',0.33
'0:18.656',0.63
'0:18.660',1.03
'0:18.664',1.23
'0:18.668',0.92
'0:18.672',0.58
'0:18.676',0.32
'0:18.680',0.62
'0:18.684',0.58
'0:18.688',0.16
'0:18.691',-0.22
'0:18.695',-0.73
'0:18.699',-0.77
'0:18.703',-0.42
'0:18.707',-0.7
'0:18.711',-1.3
'0:18.715',-2.03
'0:18.719',-2.67
'0:18.723',-2.57
'0:18.727',-2.21
'0:18.730',-1.75
'0:18.734',-1.51
'0:18.738',-1.83
'0:18.742',-2.24
'0:18.746',-2.74
'0:18.750',-2.82
'0:18.754',-2.23
'0:18.758',-1.37
'0:18.762',-0.41
'0:18.766',0.14
'0:18.770',0.36
'0:18.773',0.87
'0:18.777',2.29
'0:18.781',4.56
'0:18.785',5.94
'0:18.789',4.89
'0:18.793',1.23
'0:18.797',-3.58
'0:18.801',-6.61
'0:18.805',-7.44
'0:18.809',-6.99
'0:18.813',-5.89
'0:18.816',-4.5
'0:18.820',-2.67
'0:18.824',-1.01
'0:18.828',-0.32
'0:18.832',-0.31
'0:18.836',-0.05
'0:18.840',0.53
'0:18.844',1.04
'0:18.848',1.65
'0:18.852',2.02
'0:18.855',2.1
'0:18.859',2.1
'0:18.863',1.96
'0:18.867',1.69
'0:18.871',1.63
'0:18.875',1.77
'0:18.879',2.04
'0:18.883',2.44
'0:18.887',2.79
'0:18.891',3.01
'0:18.895',3.11
'0:18.898',2.98
'0:18.902',2.97
'0:18.906',3.09
'0:18.910',3.34
'0:18.914',3.9
'0:18.918',4.35
'0:18.922',4.37
'0:18.926',4.36
'0:18.930',4.45
'0:18.934',4.58
'0:18.938',4.19
'0:18.941',3.25
'0:18.945',2.52
'0:18.949',1.91
'0:18.953',1.43
'0:18.957',0.98
'0:18.961',0.79
'0:18.965',0.63
'0:18.969',0.11
'0:18.973',-0.25
'0:18.977',-0.5
'0:18.980',-0.64
'0:18.984',-0.68
'0:18.988',-0.45
'0:18.992',-0.12
'0:18.996',-0.41
'0:19.000',-0.79
'0:19.004',-0.81
'0:19.008',-0.65
'0:19.012',-0.9
'0:19.016',-1.27
'0:19.020',-1.99
'0:19.023',-2.71
'0:19.027',-3.13
'0:19.031',-3.15
'0:19.035',-2.99
'0:19.039',-3.24
'0:19.043',-3.72
'0:19.047',-4.03
'0:19.051',-4.13
'0:19.055',-4.36
'0:19.059',-4.5
'0:19.063',-4.46
'0:19.066',-4.34
'0:19.070',-4.37
'0:19.074',-4.54
'0:19.078',-4.66
'0:19.082',-4.48
'0:19.086',-4.2
'0:19.090',-4.08
'0:19.094',-3.66
'0:19.098',-2.99
'0:19.102',-1.94
'0:19.105',-0.41
'0:19.109',1.83
'0:19.113',3.9
'0:19.117',4.02
'0:19.121',1.16
'0:19.125',-3.73
'0:19.129',-7.97
'0:19.133',-10.57
'0:19.137',-10.78
'0:19.141',-9.68
'0:19.145',-7.99
'0:19.148',-6.38
'0:19.152',-4.74
'0:19.156',-3.65
'0:19.160',-2.94
'0:19.164',-2.44
'0:19.168',-2.29
'0:19.172',-1.95
'0:19.176',-1.39
'0:19.180',-1.27
'0:19.184',-1.22
'0:19.188',-0.87
'0:19.191',-0.16
'0:19.195',0.19
'0:19.199',-0.31
'0:19.203',-0.6
'0:19.207',-0.28
'0:19.211',0.49
'0:19.215',1.05
'0:19.219',1.42
'0:19.223',1.71
'0:19.227',1.79
'0:19.230',1.8
'0:19.234',1.77
'0:19.238',2.17
'0:19.242',2.57
'0:19.246',3.02
'0:19.250',3.74
'0:19.254',4.16
'0:19.258',4.13
'0:19.262',3.96
'0:19.266',3.92
'0:19.270',3.8
'0:19.273',3.35
'0:19.277',3.13
'0:19.281',2.76
'0:19.285',2.22
'0:19.289',1.93
'0:19.293',1.86
'0:19.297',1.4
'0:19.301',0.75
'0:19.305',0.22
'0:19.309',0.04
'0:19.313',-0.11
'0:19.316',-0.1
'0:19.320',0.37
'0:19.324',0.77
'0:19.328',0.5
'0:19.332',0.45
'0:19.336',0.77
'0:19.340',0.74
'0:19.344',0.61
'0:19.348',0.5
'0:19.352',0.4
'0:19.355',0.36
'0:19.359',0.11
'0:19.363',-0.59
'0:19.367',-1.24
'0:19.371',-1.59
'0:19.375',-1.59
'0:19.379',-1.46
'0:19.383',-1.66
'0:19.387',-1.98
'0:19.391',-2.09
'0:19.395',-2.25
'0:19.398',-2.2
'0:19.402',-1.97
'0:19.406',-1.67
'0:19.410',-1.45
'0:19.414',-1.44
'0:19.418',-1.41
'0:19.422',-1.18
'0:19.426',-0.87
'0:19.430',-0.11
'0:19.434',1.39
'0:19.438',3.4
'0:19.441',5.57
'0:19.445',6.45
'0:19.449',4.25
'0:19.453',-0.52
'0:19.457',-5.15
'0:19.461',-7.71
'0:19.465',-8.32
'0:19.469',-7.66
'0:19.473',-6.22
'0:19.477',-4.85
'0:19.480',-3.48
'0:19.484',-2.23
'0:19.488',-1.33
'0:19.492',-0.68
'0:19.496',-0.33
'0:19.500',-0.1
'0:19.504',0.34
'0:19.508',0.71
'0:19.512',0.69
'0:19.516',0.78
'0:19.520',0.8
'0:19.523',0.69
'0:19.527',0.51
