'0:00.000',0.09
'0:00.004',-0.17
'0:00.008',-0.4
'0:00.012',-0.65
'0:00.016',-0.61
'0:00.020',-0.84
'0:00.023',-1.34
'0:00.027',-1.71
'0:00.031',-1.94
'0:00.035',-2.41
'0:00.039',-2.74
'0:00.043',-2.46
'0:00.047',-2
'0:00.051',-1.8
'0:00.055',-1.86
'0:00.059',-2.1
'0:00.063',-2.24
'0:00.066',-1.41
'0:00.070',-0.2
'0:00.074',1.11
'0:00.078',3.22
'0:00.082',5.47
'0:00.086',6.54
'0:00.090',5.71
'0:00.094',3
'0:00.098',-0.65
'0:00.102',-3.91
'0:00.105',-6.06
'0:00.109',-6.94
'0:00.113',-6.34
'0:00.117',-5.15
'0:00.121',-4.1
'0:00.125',-3.4
'0:00.129',-2.83
'0:00.133',-2.59
'0:00.137',-2.49
'0:00.141',-2.03
'0:00.145',-1.67
'0:00.148',-1.43
'0:00.152',-1.3
'0:00.156',-1.22
'0:00.160',-1.03
'0:00.164',-1.01
'0:00.168',-1.09
'0:00.172',-0.99
'0:00.176',-0.52
'0:00.180',0.37
'0:00.184',0.94
'0:00.188',0.74
'0:00.191',0.41
'0:00.195',0.67
'0:00.199',1.25
'0:00.203',1.92
'0:00.207',2.53
'0:00.211',2.73
'0:00.215',2.6
'0:00.219',2.14
'0:00.223',1.55
'0:00.227',0.99
'0:00.230',0.78
'0:00.234',0.59
'0:00.238',0.35
'0:00.242',-0.1
'0:00.246',-0.72
'0:00.250',-1.12
'0:00.254',-1.23
'0:00.258',-0.76
'0:00.262',-0.56
'0:00.266',-0.69
'0:00.270',-1.1
'0:00.273',-1.21
'0:00.277',-0.98
'0:00.281',-0.79
'0:00.285',-1.02
'0:00.289',-1.78
'0:00.293',-2.05
'0:00.297',-2.24
'0:00.301',-2.55
'0:00.305',-2.7
'0:00.309',-2.58
'0:00.313',-2.57
'0:00.316',-2.59
'0:00.320',-2.5
'0:00.324',-2.7
'0:00.328',-3.08
'0:00.332',-3.26
'0:00.336',-3.34
'0:00.340',-3.22
'0:00.344',-3.19
'0:00.348',-3.2
'0:00.352',-3.3
'0:00.355',-3.54
'0:00.359',-3.64
'0:00.363',-3.31
'0:00.367',-3.01
'0:00.371',-3.51
'0:00.375',-3.71
'0:00.379',-3.23
'0:00.383',-1.9
'0:00.387',0.07
'0:00.391',2.73
'0:00.395',6.07
'0:00.398',8.94
'0:00.402',9.12
'0:00.406',6.03
'0:00.410',1.66
'0:00.414',-1.93
'0:00.418',-4.17
'0:00.422',-4.87
'0:00.426',-4.72
'0:00.430',-4.3
'0:00.434',-3.52
'0:00.438',-2.71
'0:00.441',-1.95
'0:00.445',-1.18
'0:00.449',-0.79
'0:00.453',0.07
'0:00.457',1.23
'0:00.461',1.37
'0:00.465',1.06
'0:00.469',0.86
'0:00.473',0.49
'0:00.477',0.57
'0:00.480',0.62
'0:00.484',0.33
'0:00.488',0.14
'0:00.492',0.39
'0:00.496',1.38
'0:00.500',1.84
'0:00.504',2.08
'0:00.508',2.14
'0:00.512',2.06
'0:00.516',2.34
'0:00.520',2.57
'0:00.523',3.01
'0:00.527',3.43
'0:00.531',3.11
'0:00.535',2.42
'0:00.539',1.81
'0:00.543',1.71
'0:00.547',2
'0:00.551',1.94
'0:00.555',1.88
'0:00.559',2.04
'0:00.563',2.01
'0:00.566',2.31
'0:00.570',2.72
'0:00.574',2.28
'0:00.578',1
'0:00.582',0.11
'0:00.586',0.4
'0:00.590',0.99
'0:00.594',1.17
'0:00.598',1.3
'0:00.602',1.43
'0:00.605',0.94
'0:00.609',0.45
'0:00.613',0.02
'0:00.617',-0.25
'0:00.621',-0.51
'0:00.625',-0.46
'0:00.629',0.09
'0:00.633',0.82
'0:00.637',0.77
'0:00.641',-0.11
'0:00.645',-0.91
'0:00.648',-1.11
'0:00.652',-0.57
'0:00.656',-0.24
'0:00.660',-0.56
'0:00.664',-1.23
'0:00.668',-1.63
'0:00.672',-1.65
'0:00.676',-1.64
'0:00.680',-2.12
'0:00.684',-2.57
'0:00.688',-2.38
'0:00.691',-1.74
'0:00.695',-0.66
'0:00.699',1.45
'0:00.703',4.08
'0:00.707',6.36
'0:00.711',7.36
'0:00.715',5.59
'0:00.719',2.1
'0:00.723',-0.71
'0:00.727',-2.57
'0:00.730',-3.78
'0:00.734',-4.45
'0:00.738',-4.5
'0:00.742',-4.16
'0:00.746',-4.13
'0:00.750',-3.43
'0:00.754',-1.94
'0:00.758',-0.7
'0:00.762',-0.08
'0:00.766',-0.58
'0:00.770',-1.78
'0:00.773',-2.11
'0:00.777',-1.39
'0:00.781',-0.26
'0:00.785',0.25
'0:00.789',-0.12
'0:00.793',-0.6
'0:00.797',-0.34
'0:00.801',0.6
'0:00.805',0.51
'0:00.809',-0.6
'0:00.813',-1.07
'0:00.816',0.13
'0:00.820',1.87
'0:00.824',2.82
'0:00.828',3.02
'0:00.832',2.24
'0:00.836',1.26
'0:00.840',1.92
'0:00.844',2.9
'0:00.848',3.46
'0:00.852',3.95
'0:00.855',4.17
'0:00.859',3.78
'0:00.863',2.76
'0:00.867',1.75
'0:00.871',1.38
'0:00.875',1.39
'0:00.879',1.53
'0:00.883',1.37
'0:00.887',1.04
'0:00.891',1.11
'0:00.895',1.14
'0:00.898',0.23
'0:00.902',-0.89
'0:00.906',-1.05
'0:00.910',-0.06
'0:00.914',0.71
'0:00.918',0.29
'0:00.922',0.04
'0:00.926',-0.05
'0:00.930',-0.36
'0:00.934',-0.68
'0:00.938',-1.25
'0:00.941',-1.9
'0:00.945',-2.16
'0:00.949',-2.79
'0:00.953',-2.81
'0:00.957',-2.23
'0:00.961',-2.07
'0:00.965',-1.74
'0:00.969',-1.48
'0:00.973',-2.23
'0:00.977',-3.1
'0:00.980',-2.7
'0:00.984',-1.71
'0:00.988',-1.6
'0:00.992',-1.83
'0:00.996',-1.54
'0:01.000',-0.64
'0:01.004',1.37
'0:01.008',3.73
'0:01.012',6.06
'0:01.016',7.84
'0:01.020',8.37
'0:01.023',6.58
'0:01.027',2.92
'0:01.031',-0.66
'0:01.035',-3.21
'0:01.039',-4.56
'0:01.043',-4.96
'0:01.047',-4.77
'0:01.051',-4.22
'0:01.055',-3.59
'0:01.059',-2.86
'0:01.063',-2.23
'0:01.066',-1.57
'0:01.070',-1.12
'0:01.074',-0.93
'0:01.078',-0.92
'0:01.082',-0.77
'0:01.086',-0.4
'0:01.090',-0.22
'0:01.094',-0.23
'0:01.098',-0.26
'0:01.102',-0.05
'0:01.105',0.47
'0:01.109',0.63
'0:01.113',0.54
'0:01.117',0.58
'0:01.121',0.97
'0:01.125',1.54
'0:01.129',2.06
'0:01.133',2.51
'0:01.137',2.71
'0:01.141',2.91
'0:01.145',3.12
'0:01.148',3.04
'0:01.152',3
'0:01.156',3.1
'0:01.160',2.93
'0:01.164',2.64
'0:01.168',2.39
'0:01.172',2.39
'0:01.176',2.21
'0:01.180',1.56
'0:01.184',1.05
'0:01.188',0.67
'0:01.191',0.07
'0:01.195',-0.26
'0:01.199',-0.09
'0:01.203',0.23
'0:01.207',0.1
'0:01.211',-0.25
'0:01.215',-0.71
'0:01.219',-1.28
'0:01.223',-1.8
'0:01.227',-1.96
'0:01.230',-1.74
'0:01.234',-1.76
'0:01.238',-2.08
'0:01.242',-2.59
'0:01.246',-2.94
'0:01.250',-3.2
'0:01.254',-3.51
'0:01.258',-3.84
'0:01.262',-4.12
'0:01.266',-4.39
'0:01.270',-4.64
'0:01.273',-4.88
'0:01.277',-5.31
'0:01.281',-5.51
'0:01.285',-5.09
'0:01.289',-4.48
'0:01.293',-4.57
'0:01.297',-4.8
'0:01.301',-4.93
'0:01.305',-5.09
'0:01.309',-4.78
'0:01.313',-3.98
'0:01.316',-2.76
'0:01.320',-0.39
'0:01.324',3.02
'0:01.328',5.72
'0:01.332',5.8
'0:01.336',3.36
'0:01.340',0.09
'0:01.344',-2.88
'0:01.348',-4.78
'0:01.352',-5.2
'0:01.355',-5.96
'0:01.359',-6.85
'0:01.363',-6.01
'0:01.367',-4.39
'0:01.371',-3.58
'0:01.375',-3.43
'0:01.379',-2.74
'0:01.383',-1.54
'0:01.387',-1.35
'0:01.391',-2.21
'0:01.395',-2.06
'0:01.398',-0.76
'0:01.402',-0.75
'0:01.406',-1.36
'0:01.410',-1.57
'0:01.414',-1.09
'0:01.418',-0.06
'0:01.422',0.26
'0:01.426',-0.37
'0:01.430',-1.21
'0:01.434',-1.46
'0:01.438',-0.71
'0:01.441',0.25
'0:01.445',0.63
'0:01.449',0.47
'0:01.453',0.6
'0:01.457',1.36
'0:01.461',1.94
'0:01.465',1.66
'0:01.469',0.51
'0:01.473',-0.21
'0:01.477',0.22
'0:01.480',0.6
'0:01.484',0.84
'0:01.488',0.78
'0:01.492',0.33
'0:01.496',0.66
'0:01.500',0.64
'0:01.504',0.69
'0:01.508',1.55
'0:01.512',1.44
'0:01.516',0.75
'0:01.520',-0.4
'0:01.523',-1.73
'0:01.527',-2.1
'0:01.531',-1.05
'0:01.535',-0.77
'0:01.539',-0.67
'0:01.543',-0.45
'0:01.547',-0.3
'0:01.551',-0.07
'0:01.555',-0.35
'0:01.559',-0.25
'0:01.563',-0.48
'0:01.566',-1.7
'0:01.570',-2.31
'0:01.574',-2.25
'0:01.578',-2.02
'0:01.582',-1.67
'0:01.586',-1.52
'0:01.590',-1.34
'0:01.594',-1.65
'0:01.598',-1.76
'0:01.602',-1.67
'0:01.605',-2.12
'0:01.609',-2.76
'0:01.613',-3.02
'0:01.617',-2.59
'0:01.621',-1.98
'0:01.625',-1.02
'0:01.629',1.42
'0:01.633',4.21
'0:01.637',6.61
'0:01.641',7.39
'0:01.645',6.08
'0:01.648',3.65
'0:01.652',0.02
'0:01.656',-3.5
'0:01.660',-5.79
'0:01.664',-6.97
'0:01.668',-6.8
'0:01.672',-5.65
'0:01.676',-5.33
'0:01.680',-5
'0:01.684',-4.15
'0:01.688',-3.15
'0:01.691',-2.03
'0:01.695',-1.26
'0:01.699',-1.18
'0:01.703',-1.38
'0:01.707',-1.25
'0:01.711',-0.81
'0:01.715',-0.58
'0:01.719',-0.8
'0:01.723',-0.84
'0:01.727',-0.52
'0:01.730',-0.62
'0:01.734',-0.69
'0:01.738',-0.6
'0:01.742',-0.09
'0:01.746',0.91
'0:01.750',1.89
'0:01.754',2.14
'0:01.758',1.98
'0:01.762',2.08
'0:01.766',2.58
'0:01.770',3.23
'0:01.773',3.61
'0:01.777',3.48
'0:01.781',3.37
'0:01.785',3.61
'0:01.789',3.7
'0:01.793',2.87
'0:01.797',1.63
'0:01.801',1
'0:01.805',1.15
'0:01.809',1.59
'0:01.813',1.73
'0:01.816',1.73
'0:01.820',1.73
'0:01.824',1.73
'0:01.828',1.73
'0:01.832',1.73
'0:01.836',1.73
'0:01.840',1.73
'0:01.844',2.21
'0:01.848',2.63
'0:01.852',2.46
'0:01.855',1.26
'0:01.859',-0.78
'0:01.863',-1.88
'0:01.867',-2.14
'0:01.871',-1.02
'0:01.875',0.48
'0:01.879',1.73
'0:01.883',2.82
'0:01.887',3.46
'0:01.891',2.69
'0:01.895',1.77
'0:01.898',1.61
'0:01.902',1.93
'0:01.906',2.18
'0:01.910',2.23
'0:01.914',1.48
'0:01.918',0.09
'0:01.922',-0.86
'0:01.926',-0.79
'0:01.930',-0.01
'0:01.934',1.35
'0:01.938',3.83
'0:01.941',5.82
'0:01.945',7.31
'0:01.949',7.81
'0:01.953',5.69
'0:01.957',2.58
'0:01.961',0.31
'0:01.965',-1.44
'0:01.969',-1.77
'0:01.973',-2.23
'0:01.977',-3.22
'0:01.980',-3.26
'0:01.984',-2.47
'0:01.988',-1.84
'0:01.992',-1.63
'0:01.996',-1.33
'0:02.000',-0.78
'0:02.004',-1.33
'0:02.008',-1.27
'0:02.012',-0.53
'0:02.016',0.28
'0:02.020',0.99
'0:02.023',1.25
'0:02.027',1.28
'0:02.031',1.53
'0:02.035',1.39
'0:02.039',1.22
'0:02.043',1.48
'0:02.047',2.18
'0:02.051',2.93
'0:02.055',3.45
'0:02.059',3.57
'0:02.063',3.88
'0:02.066',4.03
'0:02.070',3.96
'0:02.074',3.63
'0:02.078',3.5
'0:02.082',3.76
'0:02.086',3.87
'0:02.090',3.84
'0:02.094',3.49
'0:02.098',2.96
'0:02.102',2.23
'0:02.105',1.69
'0:02.109',1.38
'0:02.113',1.48
'0:02.117',1.78
'0:02.121',2.04
'0:02.125',1.95
'0:02.129',1.9
'0:02.133',1.95
'0:02.137',1.78
'0:02.141',1.65
'0:02.145',1.99
'0:02.148',2.21
'0:02.152',2.36
'0:02.156',2.19
'0:02.160',1.88
'0:02.164',1.75
'0:02.168',1.9
'0:02.172',1.78
'0:02.176',1.51
'0:02.180',0.94
'0:02.184',0.51
'0:02.188',0.13
'0:02.191',-0.35
'0:02.195',-0.75
'0:02.199',-0.45
'0:02.203',-0.36
'0:02.207',-0.58
'0:02.211',-0.49
'0:02.215',-0.75
'0:02.219',-1.37
'0:02.223',-1.76
'0:02.227',-2.04
'0:02.230',-2.68
'0:02.234',-3.22
'0:02.238',-3.11
'0:02.242',-2.8
'0:02.246',-1.7
'0:02.250',0.9
'0:02.254',3.89
'0:02.258',6.17
'0:02.262',6.86
'0:02.266',5.33
'0:02.270',1.44
'0:02.273',-3.44
'0:02.277',-6.97
'0:02.281',-8.72
'0:02.285',-9.61
'0:02.289',-9.8
'0:02.293',-9.23
'0:02.297',-8.33
'0:02.301',-7.57
'0:02.305',-6.82
'0:02.309',-5.91
'0:02.313',-5.38
'0:02.316',-5.1
'0:02.320',-5.13
'0:02.324',-4.93
'0:02.328',-3.84
'0:02.332',-2.62
'0:02.336',-2.46
'0:02.340',-3.02
'0:02.344',-2.89
'0:02.348',-2.37
'0:02.352',-1.71
'0:02.355',-1.33
'0:02.359',-0.99
'0:02.363',-0.73
'0:02.367',-0.52
'0:02.371',-0.2
'0:02.375',0.32
'0:02.379',0.63
'0:02.383',1.01
'0:02.387',1.94
'0:02.391',2.12
'0:02.395',2.11
'0:02.398',2.11
'0:02.402',2.39
'0:02.406',1.97
'0:02.410',1.07
'0:02.414',0.38
'0:02.418',0.81
'0:02.422',1.44
'0:02.426',1.4
'0:02.430',1.04
'0:02.434',1.48
'0:02.438',1.54
'0:02.441',1.41
'0:02.445',1.01
'0:02.449',0.27
'0:02.453',-0.23
'0:02.457',-0.35
'0:02.461',-0.33
'0:02.465',-0.24
'0:02.469',0.39
'0:02.473',0.15
'0:02.477',-0.28
'0:02.480',-0.81
'0:02.484',-1.21
'0:02.488',-0.9
'0:02.492',-0.36
'0:02.496',-0.24
'0:02.500',-0.27
'0:02.504',-0.07
'0:02.508',-0.5
'0:02.512',-1.02
'0:02.516',-1.02
'0:02.520',-1.02
'0:02.523',-1.02
'0:02.527',-1.5
'0:02.531',-1.02
'0:02.535',-1.54
'0:02.539',-2.84
'0:02.543',-2.88
'0:02.547',-1.89
'0:02.551',-0.69
'0:02.555',0.43
'0:02.559',1.4
'0:02.563',3.91
'0:02.566',7.14
'0:02.570',9.59
'0:02.574',9.81
'0:02.578',7.39
'0:02.582',3.41
'0:02.586',-0.53
'0:02.590',-3.36
'0:02.594',-4.81
'0:02.598',-4.98
'0:02.602',-4.57
'0:02.605',-3.72
'0:02.609',-3.39
'0:02.613',-3.3
'0:02.617',-2.56
'0:02.621',-1.33
'0:02.625',-0.07
'0:02.629',-0.14
'0:02.633',-1.08
'0:02.637',-1.12
'0:02.641',-0.83
'0:02.645',-0.59
'0:02.648',-0.56
'0:02.652',-1.07
'0:02.656',-1.34
'0:02.660',-1.2
'0:02.664',-1.04
'0:02.668',-0.52
'0:02.672',0.19
'0:02.676',0.94
'0:02.680',1.21
'0:02.684',0.9
'0:02.688',1.1
'0:02.691',1.16
'0:02.695',1.72
'0:02.699',1.69
'0:02.703',1.05
'0:02.707',0.62
'0:02.711',0.28
'0:02.715',0.08
'0:02.719',0.37
'0:02.723',0.87
'0:02.727',0.95
'0:02.730',1.34
'0:02.734',1.93
'0:02.738',2.19
'0:02.742',2.06
'0:02.746',1.84
'0:02.750',1.45
'0:02.754',0.59
'0:02.758',-0.05
'0:02.762',-0.21
'0:02.766',-0.56
'0:02.770',-0.95
'0:02.773',-0.83
'0:02.777',0.26
'0:02.781',0.93
'0:02.785',0.81
'0:02.789',0.63
'0:02.793',0.22
'0:02.797',-0.19
'0:02.801',-0.2
'0:02.805',0.33
'0:02.809',0.69
'0:02.813',0.19
'0:02.816',-1.24
'0:02.820',-2.06
'0:02.824',-2.08
'0:02.828',-2.37
'0:02.832',-2.06
'0:02.836',-1.33
'0:02.840',-0.9
'0:02.844',-0.98
'0:02.848',-1.44
'0:02.852',-1.56
'0:02.855',-0.95
'0:02.859',-0.1
'0:02.863',0.21
'0:02.867',0.56
'0:02.871',2.62
'0:02.875',5.85
'0:02.879',8.35
'0:02.883',8.15
'0:02.887',5.23
'0:02.891',0.81
'0:02.895',-2.99
'0:02.898',-5.73
'0:02.902',-6.29
'0:02.906',-5.01
'0:02.910',-3.58
'0:02.914',-3.54
'0:02.918',-4.18
'0:02.922',-4.05
'0:02.926',-3.53
'0:02.930',-2.15
'0:02.934',-0.92
'0:02.938',0.07
'0:02.941',1.01
'0:02.945',0.39
'0:02.949',-0.6
'0:02.953',-0.76
'0:02.957',-0.21
'0:02.961',0.67
'0:02.965',1.33
'0:02.969',1.17
'0:02.973',0.13
'0:02.977',-1.28
'0:02.980',-0.3
'0:02.984',2.43
'0:02.988',3.69
'0:02.992',3.75
'0:02.996',4.32
'0:03.000',4.9
'0:03.004',4.39
'0:03.008',4.28
'0:03.012',4.5
'0:03.016',4.75
'0:03.020',4.88
'0:03.023',4.72
'0:03.027',4.18
'0:03.031',3.52
'0:03.035',3.2
'0:03.039',2.85
'0:03.043',2.42
'0:03.047',1.83
'0:03.051',1.58
'0:03.055',1.43
'0:03.059',1.7
'0:03.063',1.69
'0:03.066',1.48
'0:03.070',1.23
'0:03.074',1.17
'0:03.078',1.31
'0:03.082',1.55
'0:03.086',1.67
'0:03.090',1.77
'0:03.094',1.95
'0:03.098',1.99
'0:03.102',1.97
'0:03.105',1.47
'0:03.109',0.95
'0:03.113',0.56
'0:03.117',0.1
'0:03.121',-0.3
'0:03.125',-0.43
'0:03.129',-0.44
'0:03.133',-0.5
'0:03.137',-0.62
'0:03.141',-0.83
'0:03.145',-1.16
'0:03.148',-1.46
'0:03.152',-1.86
'0:03.156',-1.98
'0:03.160',-1.71
'0:03.164',-1.69
'0:03.168',-1.7
'0:03.172',-1.39
'0:03.176',-0.58
'0:03.180',0.61
'0:03.184',2.74
'0:03.188',5.49
'0:03.191',7.83
'0:03.195',8.29
'0:03.199',6.42
'0:03.203',2.72
'0:03.207',-1.66
'0:03.211',-5.03
'0:03.215',-6.79
'0:03.219',-7.33
'0:03.223',-7.34
'0:03.227',-6.83
'0:03.230',-6
'0:03.234',-5.39
'0:03.238',-4.61
'0:03.242',-3.94
'0:03.246',-3.52
'0:03.250',-3.47
'0:03.254',-3.96
'0:03.258',-4.21
'0:03.262',-4.17
'0:03.266',-4.05
'0:03.270',-3.65
'0:03.273',-2.96
'0:03.277',-2.37
'0:03.281',-2.12
'0:03.285',-1.7
'0:03.289',-1.73
'0:03.293',-2.13
'0:03.297',-1.96
'0:03.301',-1.23
'0:03.305',-0.55
'0:03.309',-0.12
'0:03.313',0.56
'0:03.316',1.21
'0:03.320',2.09
'0:03.324',2.46
'0:03.328',2.26
'0:03.332',2.06
'0:03.336',1.77
'0:03.340',1.61
'0:03.344',2.13
'0:03.348',2.33
'0:03.352',1.41
'0:03.355',0.15
'0:03.359',-0.42
'0:03.363',-0.58
'0:03.367',-0.43
'0:03.371',-0.15
'0:03.375',0.19
'0:03.379',0.27
'0:03.383',0.56
'0:03.387',1.03
'0:03.391',1.2
'0:03.395',0.82
'0:03.398',0.12
'0:03.402',-0.23
'0:03.406',-0.42
'0:03.410',-0.27
'0:03.414',-0.38
'0:03.418',-0.71
'0:03.422',-0.94
'0:03.426',-1.2
'0:03.430',-1.6
'0:03.434',-2.02
'0:03.438',-2.46
'0:03.441',-2.3
'0:03.445',-0.91
'0:03.449',-0.06
'0:03.453',-0.18
'0:03.457',-0.72
'0:03.461',-1.48
'0:03.465',-1.95
'0:03.469',-1.53
'0:03.473',-0.75
'0:03.477',-0.81
'0:03.480',-0.93
'0:03.484',-0.46
'0:03.488',0.71
'0:03.492',2.61
'0:03.496',5.97
'0:03.500',9.29
'0:03.504',10.3
'0:03.508',8.83
'0:03.512',4.03
'0:03.516',-0.85
'0:03.520',-3.56
'0:03.523',-5.24
'0:03.527',-5.53
'0:03.531',-5.01
'0:03.535',-4.03
'0:03.539',-3.51
'0:03.543',-3.84
'0:03.547',-3.64
'0:03.551',-2.82
'0:03.555',-1.79
'0:03.559',-0.77
'0:03.563',-0.6
'0:03.566',-1.38
'0:03.570',-1.82
'0:03.574',-2.01
'0:03.578',-1.28
'0:03.582',-0.1
'0:03.586',0.83
'0:03.590',0.95
'0:03.594',0.78
'0:03.598',0.67
'0:03.602',0.11
'0:03.605',-0.42
'0:03.609',-0.05
'0:03.613',0.7
'0:03.617',1.23
'0:03.621',1.21
'0:03.625',0.77
'0:03.629',1.01
'0:03.633',1.47
'0:03.637',2.6
'0:03.641',3.49
'0:03.645',3.22
'0:03.648',2.12
'0:03.652',0.8
'0:03.656',0.56
'0:03.660',0.28
'0:03.664',-0.22
'0:03.668',-0.25
'0:03.672',0.04
'0:03.676',0.31
'0:03.680',0.28
'0:03.684',-0.05
'0:03.688',-0.16
'0:03.691',-0.09
'0:03.695',0.1
'0:03.699',0.22
'0:03.703',0.14
'0:03.707',-0.03
'0:03.711',-0.09
'0:03.715',-0.12
'0:03.719',-0.1
'0:03.723',0.02
'0:03.727',-0.26
'0:03.730',-0.78
'0:03.734',-0.96
'0:03.738',-1.18
'0:03.742',-1
'0:03.746',-0.95
'0:03.750',-0.93
'0:03.754',-0.9
'0:03.758',-0.85
'0:03.762',-1.03
'0:03.766',-1.61
'0:03.770',-1.82
'0:03.773',-1.45
'0:03.777',-0.65
'0:03.781',0.04
'0:03.785',-0.01
'0:03.789',-0.21
'0:03.793',-0.13
'0:03.797',0.11
'0:03.801',1.4
'0:03.805',4.74
'0:03.809',8.33
'0:03.813',10.31
'0:03.816',9.88
'0:03.820',6.48
'0:03.824',1.57
'0:03.828',-2.3
'0:03.832',-4.35
'0:03.836',-5.19
'0:03.840',-5.48
'0:03.844',-5.28
'0:03.848',-4.3
'0:03.852',-2.69
'0:03.855',-1.75
'0:03.859',-1.39
'0:03.863',-1.32
'0:03.867',-0.94
'0:03.871',-0.76
'0:03.875',-0.89
'0:03.879',-1
'0:03.883',-0.63
'0:03.887',0.15
'0:03.891',1.05
'0:03.895',0.97
'0:03.898',0.27
'0:03.902',0.26
'0:03.906',0.83
'0:03.910',1.14
'0:03.914',1.35
'0:03.918',1.21
'0:03.922',1.15
'0:03.926',1.4
'0:03.930',1.79
'0:03.934',2.11
'0:03.938',2.65
'0:03.941',3.52
'0:03.945',3.8
'0:03.949',2.6
'0:03.953',1.56
'0:03.957',1.96
'0:03.961',3.04
'0:03.965',3.32
'0:03.969',2.85
'0:03.973',2.34
'0:03.977',1.59
'0:03.980',1.02
'0:03.984',0.57
'0:03.988',0.29
'0:03.992',0.31
'0:03.996',0.81
'0:04.000',1.25
'0:04.004',1.77
'0:04.008',1.85
'0:04.012',1.11
'0:04.016',0.37
'0:04.020',0.09
'0:04.023',-0.01
'0:04.027',0.02
'0:04.031',0.14
'0:04.035',0.15
'0:04.039',0.06
'0:04.043',-0.08
'0:04.047',-0.33
'0:04.051',-0.52
'0:04.055',-0.79
'0:04.059',-1.18
'0:04.063',-1.59
'0:04.066',-1.85
'0:04.070',-1.96
'0:04.074',-1.84
'0:04.078',-1.5
'0:04.082',-1.27
'0:04.086',-1.24
'0:04.090',-1.24
'0:04.094',-1.35
'0:04.098',-1.53
'0:04.102',-1.38
'0:04.105',-1.1
'0:04.109',-0.29
'0:04.113',1.3
'0:04.117',4.01
'0:04.121',7.01
'0:04.125',8.74
'0:04.129',8.24
'0:04.133',5.31
'0:04.137',1.09
'0:04.141',-2.64
'0:04.145',-5.2
'0:04.148',-6.66
'0:04.152',-6.83
'0:04.156',-6.31
'0:04.160',-5.31
'0:04.164',-4.08
'0:04.168',-3.15
'0:04.172',-2.5
'0:04.176',-2.38
'0:04.180',-2.57
'0:04.184',-2.63
'0:04.188',-2.55
'0:04.191',-2.55
'0:04.195',-2.4
'0:04.199',-1.9
'0:04.203',-1.59
'0:04.207',-1.16
'0:04.211',-0.71
'0:04.215',-0.81
'0:04.219',-0.95
'0:04.223',-0.85
'0:04.227',-0.71
'0:04.230',-0.61
'0:04.234',-0.19
'0:04.238',0.46
'0:04.242',0.99
'0:04.246',1.06
'0:04.250',0.77
'0:04.254',0.7
'0:04.258',1.01
'0:04.262',1.29
'0:04.266',1.35
'0:04.270',0.9
'0:04.273',0.32
'0:04.277',-0.24
'0:04.281',-0.74
'0:04.285',-0.9
'0:04.289',-0.62
'0:04.293',-0.6
'0:04.297',-0.67
'0:04.301',-0.79
'0:04.305',-0.98
'0:04.309',-1.23
'0:04.313',-1.58
'0:04.316',-1.53
'0:04.320',-1.2
'0:04.324',-1.11
'0:04.328',-1.32
'0:04.332',-1.46
'0:04.336',-1.3
'0:04.340',-0.75
'0:04.344',-0.09
'0:04.348',0.23
'0:04.352',-0.33
'0:04.355',-1.2
'0:04.359',-1.68
'0:04.363',-1.61
'0:04.367',-1.37
'0:04.371',-0.87
'0:04.375',-0.71
'0:04.379',-1.35
'0:04.383',-1.85
'0:04.387',-1.67
'0:04.391',-1.07
'0:04.395',-0.73
'0:04.398',-0.66
'0:04.402',-0.67
'0:04.406',-1.01
'0:04.410',-1.39
'0:04.414',-0.89
'0:04.418',-0.03
'0:04.422',1.46
'0:04.426',3.7
'0:04.430',6.83
'0:04.434',9.77
'0:04.438',10.94
'0:04.441',8.68
'0:04.445',3.72
'0:04.449',0.01
'0:04.453',-1.97
'0:04.457',-3.83
'0:04.461',-5.53
'0:04.465',-5.92
'0:04.469',-5.47
'0:04.473',-4.85
'0:04.477',-3.75
'0:04.480',-2.98
'0:04.484',-2.04
'0:04.488',-1.1
'0:04.492',-0.69
'0:04.496',-0.4
'0:04.500',-0.15
'0:04.504',0.4
'0:04.508',1
'0:04.512',1.62
'0:04.516',1.5
'0:04.520',0.47
'0:04.523',-0.24
'0:04.527',-0.11
'0:04.531',0.78
'0:04.535',1.39
'0:04.539',1.33
'0:04.543',1.41
'0:04.547',0.92
'0:04.551',0.87
'0:04.555',1.46
'0:04.559',2.29
'0:04.563',2.4
'0:04.566',2.19
'0:04.570',1.64
'0:04.574',1.44
'0:04.578',1.8
'0:04.582',2.7
'0:04.586',2.98
'0:04.590',3.02
'0:04.594',2.71
'0:04.598',2.18
'0:04.602',2.29
'0:04.605',2.02
'0:04.609',1.41
'0:04.613',1.05
'0:04.617',0.68
'0:04.621',0.02
'0:04.625',-0.78
'0:04.629',-0.97
'0:04.633',-0.67
'0:04.637',0.04
'0:04.641',0.58
'0:04.645',0.23
'0:04.648',-0.11
'0:04.652',-0.02
'0:04.656',-0.11
'0:04.660',-0.45
'0:04.664',-1.02
'0:04.668',-1.4
'0:04.672',-1.35
'0:04.676',-0.89
'0:04.680',-0.65
'0:04.684',-0.56
'0:04.688',-0.66
'0:04.691',-1.26
'0:04.695',-1.92
'0:04.699',-1.99
'0:04.703',-1.97
'0:04.707',-1.81
'0:04.711',-1.26
'0:04.715',-0.96
'0:04.719',-1.53
'0:04.723',-2.32
'0:04.727',-2.3
'0:04.730',-1.48
'0:04.734',0.31
'0:04.738',2.94
'0:04.742',5.77
'0:04.746',8.02
'0:04.750',8.64
'0:04.754',6.93
'0:04.758',3.07
'0:04.762',-1.1
'0:04.766',-4.17
'0:04.770',-5.51
'0:04.773',-5.35
'0:04.777',-4.67
'0:04.781',-3.75
'0:04.785',-3.01
'0:04.789',-2.62
'0:04.793',-2.21
'0:04.797',-2
'0:04.801',-1.92
'0:04.805',-2.44
'0:04.809',-2.51
'0:04.813',-2.09
'0:04.816',-1.13
'0:04.820',-0.44
'0:04.824',0.04
'0:04.828',-0.08
'0:04.832',-0.1
'0:04.836',0.4
'0:04.840',0.87
'0:04.844',0.63
'0:04.848',0.23
'0:04.852',0.39
'0:04.855',0.6
'0:04.859',0.68
'0:04.863',1.03
'0:04.867',1.93
'0:04.871',2.95
'0:04.875',3.24
'0:04.879',2.99
'0:04.883',2.87
'0:04.887',2.45
'0:04.891',2.15
'0:04.895',2.31
'0:04.898',1.83
'0:04.902',0.94
'0:04.906',0.2
'0:04.910',-0.25
'0:04.914',-0.42
'0:04.918',-0.49
'0:04.922',-0.39
'0:04.926',-0.26
'0:04.930',0.11
'0:04.934',0.67
'0:04.938',0.37
'0:04.941',-0.61
'0:04.945',-1.18
'0:04.949',-1.13
'0:04.953',-0.97
'0:04.957',-1.62
'0:04.961',-1.89
'0:04.965',-1.1
'0:04.969',-0.18
'0:04.973',0.2
'0:04.977',0.09
'0:04.980',-0.45
'0:04.984',-1
'0:04.988',-1.31
'0:04.992',-1.55
'0:04.996',-1.84
'0:05.000',-1.79
'0:05.004',-1.71
'0:05.008',-1.73
'0:05.012',-1.87
'0:05.016',-2.27
'0:05.020',-2.69
'0:05.023',-2.76
'0:05.027',-2.7
'0:05.031',-2.47
'0:05.035',-2.2
'0:05.039',-1.72
'0:05.043',-0.64
'0:05.047',1.4
'0:05.051',4.34
'0:05.055',6.21
'0:05.059',5.75
'0:05.063',3.18
'0:05.066',-0.37
'0:05.070',-3.72
'0:05.074',-5.98
'0:05.078',-7.5
'0:05.082',-8.37
'0:05.086',-8.07
'0:05.090',-7.23
'0:05.094',-6.52
'0:05.098',-5.61
'0:05.102',-4.44
'0:05.105',-3.69
'0:05.109',-3.4
'0:05.113',-3
'0:05.117',-2.76
'0:05.121',-2.09
'0:05.125',-1.7
'0:05.129',-2.43
'0:05.133',-2.54
'0:05.137',-1.89
'0:05.141',-1.49
'0:05.145',-1.34
'0:05.148',-1.59
'0:05.152',-1.76
'0:05.156',-1.63
'0:05.160',-1.35
'0:05.164',-1.09
'0:05.168',-1.09
'0:05.172',-0.87
'0:05.176',-0.02
'0:05.180',0.94
'0:05.184',1.48
'0:05.188',1.38
'0:05.191',1.05
'0:05.195',0.89
'0:05.199',0.57
'0:05.203',0.33
'0:05.207',0.51
'0:05.211',0.66
'0:05.215',0.56
'0:05.219',-0.18
'0:05.223',-1.29
'0:05.227',-2.41
'0:05.230',-1.59
'0:05.234',-0.22
'0:05.238',0.37
'0:05.242',0.44
'0:05.246',-0.22
'0:05.250',-0.76
'0:05.254',-0.96
'0:05.258',-1.82
'0:05.262',-2.07
'0:05.266',-1.43
'0:05.270',-1.14
'0:05.273',-1.35
'0:05.277',-1.92
'0:05.281',-2.26
'0:05.285',-2.68
'0:05.289',-2.92
'0:05.293',-2.76
'0:05.297',-2.1
'0:05.301',-1.81
'0:05.305',-2.62
'0:05.309',-3.61
'0:05.313',-3.64
'0:05.316',-2.95
'0:05.320',-1.75
'0:05.324',-1.46
'0:05.328',-2.19
'0:05.332',-3.07
'0:05.336',-2.99
'0:05.340',-2.12
'0:05.344',-1.59
'0:05.348',-1.27
'0:05.352',0.01
'0:05.355',2.72
'0:05.359',6.31
'0:05.363',9.28
'0:05.367',9.93
'0:05.371',7.64
'0:05.375',3.84
'0:05.379',0.13
'0:05.383',-2.5
'0:05.387',-3.89
'0:05.391',-4.68
'0:05.395',-4.69
'0:05.398',-3.73
'0:05.402',-2.89
'0:05.406',-2.32
'0:05.410',-1.63
'0:05.414',-1.08
'0:05.418',-0.76
'0:05.422',-0.18
'0:05.426',0.14
'0:05.430',0.48
'0:05.434',1.13
'0:05.438',1.38
'0:05.441',0.87
'0:05.445',0.5
'0:05.449',0.72
'0:05.453',1.49
'0:05.457',1.92
'0:05.461',2.12
'0:05.465',2.11
'0:05.469',2.38
'0:05.473',3.41
'0:05.477',5.18
'0:05.480',6.27
'0:05.484',5.74
'0:05.488',5.51
'0:05.492',4.92
'0:05.496',3.89
'0:05.500',3.54
'0:05.504',3.51
'0:05.508',3.41
'0:05.512',3.37
'0:05.516',3.49
'0:05.520',3.78
'0:05.523',3.97
'0:05.527',4.12
'0:05.531',3.89
'0:05.535',3.59
'0:05.539',3.52
'0:05.543',3.55
'0:05.547',4.01
'0:05.551',4.67
'0:05.555',4.17
'0:05.559',2.97
'0:05.563',2.32
'0:05.566',2.41
'0:05.570',2.53
'0:05.574',2.6
'0:05.578',2.83
'0:05.582',2.9
'0:05.586',2.66
'0:05.590',2.21
'0:05.594',1.66
'0:05.598',1.63
'0:05.602',2.32
'0:05.605',2.8
'0:05.609',1.91
'0:05.613',0.16
'0:05.617',-0.14
'0:05.621',0.97
'0:05.625',1.42
'0:05.629',0.52
'0:05.633',-0.58
'0:05.637',-0.99
'0:05.641',-1.38
'0:05.645',-1.49
'0:05.648',-1.17
'0:05.652',-0.77
'0:05.656',-0.25
'0:05.660',0.66
'0:05.664',2.73
'0:05.668',5.21
'0:05.672',7.79
'0:05.676',9.97
'0:05.680',10.16
'0:05.684',7.9
'0:05.688',4.33
'0:05.691',0.41
'0:05.695',-2.78
'0:05.699',-4.36
'0:05.703',-4.56
'0:05.707',-3.96
'0:05.711',-3.11
'0:05.715',-2.23
'0:05.719',-1.55
'0:05.723',-0.89
'0:05.727',-0.18
'0:05.730',0.27
'0:05.734',0.68
'0:05.738',0.38
'0:05.742',-0.14
'0:05.746',-0.12
'0:05.750',0.46
'0:05.754',1.3
'0:05.758',1.99
'0:05.762',1.54
'0:05.766',1.17
'0:05.770',1.29
'0:05.773',1.47
'0:05.777',1.47
'0:05.781',0.71
'0:05.785',0.49
'0:05.789',0.55
'0:05.793',0.73
'0:05.797',0.43
'0:05.801',-0.18
'0:05.805',0.09
'0:05.809',0.27
'0:05.813',0.23
'0:05.816',0.6
'0:05.820',1.43
'0:05.824',2.09
'0:05.828',2.01
'0:05.832',1.09
'0:05.836',0.07
'0:05.840',-0.28
'0:05.844',-0.67
'0:05.848',-0.65
'0:05.852',-0.49
'0:05.855',-0.79
'0:05.859',-1.39
'0:05.863',-1.53
'0:05.867',-1.58
'0:05.871',-1.91
'0:05.875',-2.18
'0:05.879',-2.22
'0:05.883',-1.83
'0:05.887',-1.54
'0:05.891',-1.02
'0:05.895',-0.94
'0:05.898',-1.49
'0:05.902',-2.03
'0:05.906',-2.4
'0:05.910',-2.93
'0:05.914',-3.37
'0:05.918',-3.16
'0:05.922',-3.09
'0:05.926',-3.38
'0:05.930',-3.62
'0:05.934',-3.82
'0:05.938',-3.8
'0:05.941',-3.82
'0:05.945',-3.72
'0:05.949',-3.2
'0:05.953',-2.33
'0:05.957',-1.54
'0:05.961',-1.05
'0:05.965',-0.4
'0:05.969',0.5
'0:05.973',2.16
'0:05.977',4.93
'0:05.980',7.6
'0:05.984',8.41
'0:05.988',6.72
'0:05.992',3.12
'0:05.996',-0.61
'0:06.000',-3.62
'0:06.004',-5.79
'0:06.008',-6.71
'0:06.012',-6.46
'0:06.016',-5.16
'0:06.020',-4.09
'0:06.023',-3.32
'0:06.027',-2.56
'0:06.031',-2.26
'0:06.035',-2.36
'0:06.039',-2.46
'0:06.043',-2.15
'0:06.047',-1.88
'0:06.051',-1.58
'0:06.055',-1.46
'0:06.059',-1.26
'0:06.063',-0.73
'0:06.066',-0.57
'0:06.070',-0.66
'0:06.074',-0.58
'0:06.078',-0.66
'0:06.082',-0.68
'0:06.086',-0.44
'0:06.090',-0.12
'0:06.094',0.07
'0:06.098',0.34
'0:06.102',0.89
'0:06.105',1.64
'0:06.109',2.28
'0:06.113',2.35
'0:06.117',1.96
'0:06.121',1.62
'0:06.125',1.39
'0:06.129',0.99
'0:06.133',0.49
'0:06.137',0.13
'0:06.141',0.15
'0:06.145',0.39
'0:06.148',0.61
'0:06.152',0.69
'0:06.156',0.1
'0:06.160',-0.85
'0:06.164',-1.4
'0:06.168',-1.07
'0:06.172',-0.69
'0:06.176',-0.79
'0:06.180',-1.3
'0:06.184',-1.22
'0:06.188',-0.85
'0:06.191',-0.82
'0:06.195',-1.14
'0:06.199',-1.02
'0:06.203',-0.71
'0:06.207',-0.96
'0:06.211',-1.67
'0:06.215',-2.16
'0:06.219',-2.28
'0:06.223',-2.5
'0:06.227',-2.74
'0:06.230',-3.08
'0:06.234',-3.26
'0:06.238',-3.3
'0:06.242',-3.24
'0:06.246',-3.19
'0:06.250',-3.23
'0:06.254',-3.07
'0:06.258',-2.78
'0:06.262',-2.62
'0:06.266',-2.85
'0:06.270',-3.13
'0:06.273',-3.12
'0:06.277',-2.42
'0:06.281',-1.31
'0:06.285',0.37
'0:06.289',2.91
'0:06.293',5.9
'0:06.297',7.56
'0:06.301',6.44
'0:06.305',3.06
'0:06.309',-1.03
'0:06.313',-4.1
'0:06.316',-5.87
'0:06.320',-6.76
'0:06.324',-6.68
'0:06.328',-6.03
'0:06.332',-5.41
'0:06.336',-4.58
'0:06.340',-3.5
'0:06.344',-2.16
'0:06.348',-1.37
'0:06.352',-1.38
'0:06.355',-1.5
'0:06.359',-1.7
'0:06.363',-1.58
'0:06.367',-1.24
'0:06.371',-0.78
'0:06.375',-0.43
'0:06.379',-0.29
'0:06.383',0.05
'0:06.387',0.74
'0:06.391',0.83
'0:06.395',0.71
'0:06.398',0.62
'0:06.402',1.16
'0:06.406',1.62
'0:06.410',1.88
'0:06.414',2.12
'0:06.418',2.46
'0:06.422',2.76
'0:06.426',3
'0:06.430',3.24
'0:06.434',3.09
'0:06.438',2.74
'0:06.441',2.37
'0:06.445',2.13
'0:06.449',1.98
'0:06.453',1.84
'0:06.457',1.88
'0:06.461',2.05
'0:06.465',1.88
'0:06.469',1.79
'0:06.473',1.87
'0:06.477',2.08
'0:06.480',2.09
'0:06.484',1.96
'0:06.488',1.98
'0:06.492',2.05
'0:06.496',2.03
'0:06.500',1.93
'0:06.504',1.6
'0:06.508',1.79
'0:06.512',2.12
'0:06.516',1.82
'0:06.520',1.4
'0:06.523',1.34
'0:06.527',1.6
'0:06.531',1.76
'0:06.535',1.83
'0:06.539',1.75
'0:06.543',1.18
'0:06.547',0.57
'0:06.551',0.26
'0:06.555',0.2
'0:06.559',0.23
'0:06.563',0.55
'0:06.566',0.71
'0:06.570',0.95
'0:06.574',1.29
'0:06.578',1.37
'0:06.582',1.37
'0:06.586',1.15
'0:06.590',1.62
'0:06.594',3.03
'0:06.598',5.08
'0:06.602',7.6
'0:06.605',10.23
'0:06.609',11.29
'0:06.613',9.19
'0:06.617',5.02
'0:06.621',0.8
'0:06.625',-1.63
'0:06.629',-2.86
'0:06.633',-3.54
'0:06.637',-3.46
'0:06.641',-3.17
'0:06.645',-3.19
'0:06.648',-2.88
'0:06.652',-2.42
'0:06.656',-2.14
'0:06.660',-1.34
'0:06.664',-0.08
'0:06.668',0.95
'0:06.672',0.72
'0:06.676',0.44
'0:06.680',0.63
'0:06.684',0.64
'0:06.688',0.52
'0:06.691',0.54
'0:06.695',0.51
'0:06.699',0.54
'0:06.703',0.87
'0:06.707',1.19
'0:06.711',1.97
'0:06.715',2.29
'0:06.719',2.2
'0:06.723',2.25
'0:06.727',2.78
'0:06.730',3.2
'0:06.734',3.34
'0:06.738',3
'0:06.742',3.18
'0:06.746',3.94
'0:06.750',4.14
'0:06.754',3.74
'0:06.758',3.57
'0:06.762',3.9
'0:06.766',3.3
'0:06.770',2.47
'0:06.773',2.2
'0:06.777',2.1
'0:06.781',1.74
'0:06.785',2
'0:06.789',1.71
'0:06.793',0.86
'0:06.797',0.52
'0:06.801',0.56
'0:06.805',0.4
'0:06.809',0.25
'0:06.813',0.04
'0:06.816',-0.16
'0:06.820',0.07
'0:06.824',-0.14
'0:06.828',-0.65
'0:06.832',-0.68
'0:06.836',0.34
'0:06.840',1.53
'0:06.844',2.09
'0:06.848',1.45
'0:06.852',0.89
'0:06.855',0.66
'0:06.859',0.88
'0:06.863',-0.6
'0:06.867',-1.96
'0:06.871',-1.56
'0:06.875',-0.53
'0:06.879',-0.56
'0:06.883',-0.89
'0:06.887',-1.63
'0:06.891',-1.12
'0:06.895',-0.27
'0:06.898',-0.02
'0:06.902',0.37
'0:06.906',2.28
'0:06.910',6.2
'0:06.914',9.17
'0:06.918',9.79
'0:06.922',7.77
'0:06.926',3.83
'0:06.930',-0.35
'0:06.934',-3.04
'0:06.938',-3.6
'0:06.941',-4.07
'0:06.945',-5.13
'0:06.949',-5.04
'0:06.953',-3.98
'0:06.957',-2.9
'0:06.961',-2.38
'0:06.965',-2.55
'0:06.969',-2.82
'0:06.973',-3.16
'0:06.977',-3.36
'0:06.980',-2.8
'0:06.984',-2.37
'0:06.988',-2.68
'0:06.992',-2.12
'0:06.996',-1.02
'0:07.000',-0.34
'0:07.004',-0.82
'0:07.008',-1.19
'0:07.012',-0.56
'0:07.016',-0.09
'0:07.020',-0.34
'0:07.023',-1.01
'0:07.027',-1.36
'0:07.031',-0.66
'0:07.035',0.1
'0:07.039',0.3
'0:07.043',0.68
'0:07.047',1.04
'0:07.051',1.17
'0:07.055',1.05
'0:07.059',0.83
'0:07.063',0.57
'0:07.066',0.22
'0:07.070',-0.02
'0:07.074',-0.18
'0:07.078',-0.36
'0:07.082',-0.58
'0:07.086',-0.79
'0:07.090',-0.89
'0:07.094',-1.07
'0:07.098',-1.17
'0:07.102',-1.03
'0:07.105',-0.95
'0:07.109',-1.12
'0:07.113',-1.33
'0:07.117',-1.6
'0:07.121',-1.83
'0:07.125',-2.17
'0:07.129',-2.77
'0:07.133',-2.98
'0:07.137',-2.75
'0:07.141',-2.65
'0:07.145',-2.82
'0:07.148',-3.13
'0:07.152',-3.41
'0:07.156',-3.51
'0:07.160',-3.7
'0:07.164',-3.78
'0:07.168',-3.84
'0:07.172',-3.94
'0:07.176',-3.87
'0:07.180',-3.45
'0:07.184',-3.14
'0:07.188',-3.21
'0:07.191',-3.39
'0:07.195',-3.09
'0:07.199',-2.43
'0:07.203',-1.95
'0:07.207',-1.94
'0:07.211',-2.01
'0:07.215',-0.84
'0:07.219',1.71
'0:07.223',4.63
'0:07.227',6.09
'0:07.230',4.95
'0:07.234',1.46
'0:07.238',-2.62
'0:07.242',-5.64
'0:07.246',-7.63
'0:07.250',-8.27
'0:07.254',-7.75
'0:07.258',-6.84
'0:07.262',-6.36
'0:07.266',-5.89
'0:07.270',-4.83
'0:07.273',-3.94
'0:07.277',-3.8
'0:07.281',-4
'0:07.285',-3.77
'0:07.289',-3.17
'0:07.293',-2.84
'0:07.297',-2.63
'0:07.301',-2.77
'0:07.305',-2.92
'0:07.309',-2.76
'0:07.313',-2.41
'0:07.316',-1.83
'0:07.320',-1.2
'0:07.324',-0.9
'0:07.328',-0.93
'0:07.332',-1.28
'0:07.336',-1.43
'0:07.340',-0.6
'0:07.344',0.56
'0:07.348',1.29
'0:07.352',1.49
'0:07.355',1.2
'0:07.359',0.61
'0:07.363',0.18
'0:07.367',0.49
'0:07.371',0.94
'0:07.375',0.95
'0:07.379',0.81
'0:07.383',0.47
'0:07.387',-0.28
'0:07.391',-0.91
'0:07.395',-0.21
'0:07.398',1.09
'0:07.402',0.85
'0:07.406',-0.46
'0:07.410',-1.29
'0:07.414',-1.16
'0:07.418',-0.71
'0:07.422',-0.67
'0:07.426',-0.48
'0:07.430',-0.58
'0:07.434',-1.16
'0:07.438',-1.73
'0:07.441',-1.37
'0:07.445',-1.1
'0:07.449',-1.51
'0:07.453',-1.83
'0:07.457',-1.94
'0:07.461',-1.65
'0:07.465',-1.25
'0:07.469',-1.58
'0:07.473',-1.95
'0:07.477',-1.97
'0:07.480',-1.88
'0:07.484',-1.99
'0:07.488',-1.75
'0:07.492',-1.31
'0:07.496',-1.27
'0:07.500',-1.54
'0:07.504',-1.75
'0:07.508',-1.7
'0:07.512',-1.67
'0:07.516',-1.62
'0:07.520',-0.99
'0:07.523',0.21
'0:07.527',2.51
'0:07.531',5.81
'0:07.535',9.14
'0:07.539',10.57
'0:07.543',8.82
'0:07.547',4.65
'0:07.551',0.17
'0:07.555',-2.95
'0:07.559',-4.75
'0:07.563',-5.35
'0:07.566',-5.15
'0:07.570',-4.37
'0:07.574',-3.23
'0:07.578',-2.21
'0:07.582',-1.63
'0:07.586',-1.34
'0:07.590',-1.01
'0:07.594',-0.66
'0:07.598',-0.41
'0:07.602',-0.11
'0:07.605',0.25
'0:07.609',0.64
'0:07.613',0.93
'0:07.617',1.12
'0:07.621',1.39
'0:07.625',1.5
'0:07.629',1.66
'0:07.633',1.86
'0:07.637',2
'0:07.641',1.98
'0:07.645',1.73
'0:07.648',1.9
'0:07.652',2.57
'0:07.656',3.25
'0:07.660',3.91
'0:07.664',4.47
'0:07.668',4.47
'0:07.672',3.9
'0:07.676',3.27
'0:07.680',3.3
'0:07.684',3.49
'0:07.688',3.32
'0:07.691',3.12
'0:07.695',2.98
'0:07.699',3.09
'0:07.703',3.02
'0:07.707',2.97
'0:07.711',2.67
'0:07.715',2.57
'0:07.719',3.27
'0:07.723',4.05
'0:07.727',3.93
'0:07.730',3.34
'0:07.734',2.83
'0:07.738',3.01
'0:07.742',3
'0:07.746',2.53
'0:07.750',2.14
'0:07.754',1.81
'0:07.758',1.72
'0:07.762',2.39
'0:07.766',2.9
'0:07.770',2.87
'0:07.773',2.08
'0:07.777',1
'0:07.781',0.36
'0:07.785',0.42
'0:07.789',1.12
'0:07.793',1.93
'0:07.797',2.43
'0:07.801',1.84
'0:07.805',1.03
'0:07.809',0.52
'0:07.813',0.4
'0:07.816',0.2
'0:07.820',-0.29
'0:07.824',-0.28
'0:07.828',-0.16
'0:07.832',0.01
'0:07.836',1.49
'0:07.840',4.85
'0:07.844',9.25
'0:07.848',11.58
'0:07.852',10.6
'0:07.855',7.31
'0:07.859',3.15
'0:07.863',-0.4
'0:07.867',-3.1
'0:07.871',-5.07
'0:07.875',-5.64
'0:07.879',-4.52
'0:07.883',-3.18
'0:07.887',-2.63
'0:07.891',-2.04
'0:07.895',-1.06
'0:07.898',0.15
'0:07.902',0.8
'0:07.906',0.82
'0:07.910',0.29
'0:07.914',-0.22
'0:07.918',-0.21
'0:07.922',0.18
'0:07.926',0.52
'0:07.930',0.71
'0:07.934',0.85
'0:07.938',0.71
'0:07.941',0.74
'0:07.945',1.11
'0:07.949',1.49
'0:07.953',1.62
'0:07.957',1.63
'0:07.961',1.72
'0:07.965',1.87
'0:07.969',2.37
'0:07.973',2.87
'0:07.977',3.68
'0:07.980',4.25
'0:07.984',4.55
'0:07.988',4.18
'0:07.992',3.33
'0:07.996',2.61
'0:08.000',1.77
'0:08.004',1
'0:08.008',0.74
'0:08.012',0.88
'0:08.016',0.76
'0:08.020',0.54
'0:08.023',0.81
'0:08.027',0.69
'0:08.031',0.61
'0:08.035',0.54
'0:08.039',0.45
'0:08.043',0.42
'0:08.047',1.01
'0:08.051',2.01
'0:08.055',2.11
'0:08.059',1.44
'0:08.063',0.74
'0:08.066',0.25
'0:08.070',-0.24
'0:08.074',-0.31
'0:08.078',-0.32
'0:08.082',-0.93
'0:08.086',-1.61
'0:08.090',-1.9
'0:08.094',-2.26
'0:08.098',-2.49
'0:08.102',-2.49
'0:08.105',-2.67
'0:08.109',-2.79
'0:08.113',-2.36
'0:08.117',-1.83
'0:08.121',-1.31
'0:08.125',-1.64
'0:08.129',-2.59
'0:08.133',-2.87
'0:08.137',-2.53
'0:08.141',-1.78
'0:08.145',-0.78
'0:08.148',0.89
'0:08.152',3.19
'0:08.156',6.02
'0:08.160',7.74
'0:08.164',6.43
'0:08.168',2.53
'0:08.172',-2.14
'0:08.176',-5.22
'0:08.180',-6.75
'0:08.184',-7.69
'0:08.188',-7.78
'0:08.191',-6.49
'0:08.195',-5.08
'0:08.199',-4.24
'0:08.203',-3.85
'0:08.207',-3.37
'0:08.211',-2.7
'0:08.215',-2.24
'0:08.219',-2.56
'0:08.223',-2.92
'0:08.227',-2.55
'0:08.230',-1.82
'0:08.234',-1.68
'0:08.238',-1.88
'0:08.242',-2.37
'0:08.246',-2.36
'0:08.250',-2.33
'0:08.254',-1.88
'0:08.258',-0.89
'0:08.262',-0.36
'0:08.266',-0.78
'0:08.270',-1.14
'0:08.273',-0.83
'0:08.277',0.74
'0:08.281',1.11
'0:08.285',0.19
'0:08.289',-0.58
'0:08.293',-0.84
'0:08.297',-0.78
'0:08.301',-0.6
'0:08.305',-0.46
'0:08.309',-0.93
'0:08.313',-1.36
'0:08.316',-1.39
'0:08.320',-1.24
'0:08.324',-1.24
'0:08.328',-1.58
'0:08.332',-1.74
'0:08.336',-1.29
'0:08.340',-1.32
'0:08.344',-2.07
'0:08.348',-2.5
'0:08.352',-2.75
'0:08.355',-2.97
'0:08.359',-3.1
'0:08.363',-2.84
'0:08.367',-2.82
'0:08.371',-3.04
'0:08.375',-2.8
'0:08.379',-2.31
'0:08.383',-2.1
'0:08.387',-2.82
'0:08.391',-3.95
'0:08.395',-3.99
'0:08.398',-3.55
'0:08.402',-3.49
'0:08.406',-4.07
'0:08.410',-4.67
'0:08.414',-4.76
'0:08.418',-4.55
'0:08.422',-4.23
'0:08.426',-3.92
'0:08.430',-3.87
'0:08.434',-4.07
'0:08.438',-4.06
'0:08.441',-3.58
'0:08.445',-3.42
'0:08.449',-2.99
'0:08.453',-2.24
'0:08.457',-1.49
'0:08.461',-0.1
'0:08.465',2.03
'0:08.469',4.59
'0:08.473',6.27
'0:08.477',5.93
'0:08.480',3.52
'0:08.484',-0.23
'0:08.488',-3.38
'0:08.492',-6.1
'0:08.496',-7.73
'0:08.500',-7.46
'0:08.504',-6.07
'0:08.508',-4.83
'0:08.512',-3.91
'0:08.516',-3.03
'0:08.520',-2.53
'0:08.523',-2.5
'0:08.527',-2.15
'0:08.531',-1.72
'0:08.535',-1.82
'0:08.539',-1.97
'0:08.543',-1.61
'0:08.547',-0.65
'0:08.551',-0.04
'0:08.555',0
'0:08.559',0.13
'0:08.563',0.39
'0:08.566',0.2
'0:08.570',0.29
'0:08.574',0.55
'0:08.578',0.91
'0:08.582',1.3
'0:08.586',1.83
'0:08.590',1.73
'0:08.594',1.64
'0:08.598',2.13
'0:08.602',2.57
'0:08.605',2.69
'0:08.609',2.76
'0:08.613',3.16
'0:08.617',3.66
'0:08.621',3.03
'0:08.625',1.74
'0:08.629',0.68
'0:08.633',0.23
'0:08.637',0.05
'0:08.641',0.08
'0:08.645',0.24
'0:08.648',0.63
'0:08.652',0.83
'0:08.656',1.17
'0:08.660',1.62
'0:08.664',1.99
'0:08.668',2.37
'0:08.672',2.04
'0:08.676',0.35
'0:08.680',-0.8
'0:08.684',-0.79
'0:08.688',0.04
'0:08.691',0.49
'0:08.695',0.11
'0:08.699',-0.29
'0:08.703',-0.51
'0:08.707',-0.64
'0:08.711',-1.07
'0:08.715',-1.23
'0:08.719',-0.99
'0:08.723',-0.85
'0:08.727',-0.41
'0:08.730',-0.16
'0:08.734',-0.39
'0:08.738',-0.72
'0:08.742',-0.53
'0:08.746',-0.32
'0:08.750',-1.2
'0:08.754',-1.99
'0:08.758',-1.91
'0:08.762',-1.43
'0:08.766',-1.58
'0:08.770',-1.05
'0:08.773',1.67
'0:08.777',5.76
'0:08.781',9.09
'0:08.785',9.61
'0:08.789',7.23
'0:08.793',3.04
'0:08.797',-0.67
'0:08.801',-3.09
'0:08.805',-4.13
'0:08.809',-4.17
'0:08.813',-3.45
'0:08.816',-2.42
'0:08.820',-1.48
'0:08.824',-1.66
'0:08.828',-2.19
'0:08.832',-1.99
'0:08.836',-1.1
'0:08.840',-0.61
'0:08.844',-0.55
'0:08.848',-0.53
'0:08.852',-0.48
'0:08.855',-0.3
'0:08.859',-0.18
'0:08.863',0.13
'0:08.867',0.67
'0:08.871',0.95
'0:08.875',1.19
'0:08.879',1.86
'0:08.883',2.58
'0:08.887',3.16
'0:08.891',3.3
'0:08.895',3.45
'0:08.898',3.27
'0:08.902',3.28
'0:08.906',3.49
'0:08.910',3.78
'0:08.914',3.63
'0:08.918',3.09
'0:08.922',2.48
'0:08.926',1.98
'0:08.930',2.11
'0:08.934',2.29
'0:08.938',1.86
'0:08.941',1.93
'0:08.945',2.45
'0:08.949',2.44
'0:08.953',2.21
'0:08.957',1.85
'0:08.961',2.06
'0:08.965',2.36
'0:08.969',2.03
'0:08.973',1.94
'0:08.977',1.38
'0:08.980',0.39
'0:08.984',-0.3
'0:08.988',-0.32
'0:08.992',0.48
'0:08.996',0.85
'0:09.000',0.88
'0:09.004',1.04
'0:09.008',0.6
'0:09.012',0.24
'0:09.016',-0.01
'0:09.020',-0.62
'0:09.023',-1.47
'0:09.027',-2.11
'0:09.031',-1.85
'0:09.035',-1.68
'0:09.039',-1.92
'0:09.043',-2.01
'0:09.047',-1.84
'0:09.051',-1.62
'0:09.055',-0.8
'0:09.059',-0.91
'0:09.063',-1.34
'0:09.066',-1.28
'0:09.070',-0.64
'0:09.074',0.2
'0:09.078',2.23
'0:09.082',5.49
'0:09.086',8.45
'0:09.090',9.86
'0:09.094',8.44
'0:09.098',4.86
'0:09.102',0.14
'0:09.105',-3.74
'0:09.109',-5.51
'0:09.113',-5.96
'0:09.117',-5.47
'0:09.121',-3.78
'0:09.125',-2.93
'0:09.129',-3.2
'0:09.133',-3.17
'0:09.137',-2.44
'0:09.141',-1.59
'0:09.145',-0.79
'0:09.148',-0.04
'0:09.152',0.14
'0:09.156',0.17
'0:09.160',-0.32
'0:09.164',-0.93
'0:09.168',-0.6
'0:09.172',0.09
'0:09.176',0.44
'0:09.180',0.61
'0:09.184',0.68
'0:09.188',1.29
'0:09.191',2.08
'0:09.195',2.13
'0:09.199',2.16
'0:09.203',2.37
'0:09.207',2.79
'0:09.211',2.58
'0:09.215',2.56
'0:09.219',2.46
'0:09.223',2.4
'0:09.227',2.45
'0:09.230',2.02
'0:09.234',1.75
'0:09.238',1.73
'0:09.242',1.99
'0:09.246',2.59
'0:09.250',2.58
'0:09.254',2.4
'0:09.258',2.25
'0:09.262',2.35
'0:09.266',2.33
'0:09.270',1.97
'0:09.273',1.63
'0:09.277',1.72
'0:09.281',1.86
'0:09.285',1.65
'0:09.289',0.95
'0:09.293',0.07
'0:09.297',0.02
'0:09.301',0.33
'0:09.305',0.92
'0:09.309',0.81
'0:09.313',-0.15
'0:09.316',-0.58
'0:09.320',-0.63
'0:09.324',-0.67
'0:09.328',-0.81
'0:09.332',-1.57
'0:09.336',-2.23
'0:09.340',-2.52
'0:09.344',-2.44
'0:09.348',-2.33
'0:09.352',-1.84
'0:09.355',-2.16
'0:09.359',-2.82
'0:09.363',-3.12
'0:09.367',-2.91
'0:09.371',-2.83
'0:09.375',-2.89
'0:09.379',-2.5
'0:09.383',-1.99
'0:09.387',-0.92
'0:09.391',1.67
'0:09.395',5.07
'0:09.398',7.6
'0:09.402',8.06
'0:09.406',5.52
'0:09.410',0.96
'0:09.414',-3.32
'0:09.418',-5.63
'0:09.422',-6.56
'0:09.426',-6.87
'0:09.430',-6.72
'0:09.434',-6.56
'0:09.438',-6.03
'0:09.441',-4.84
'0:09.445',-3.98
'0:09.449',-3.6
'0:09.453',-2.97
'0:09.457',-2.31
'0:09.461',-2.02
'0:09.465',-2.15
'0:09.469',-2.36
'0:09.473',-2.47
'0:09.477',-2.18
'0:09.480',-2.24
'0:09.484',-2.18
'0:09.488',-1.74
'0:09.492',-1.36
'0:09.496',-1.21
'0:09.500',-0.94
'0:09.504',-0.42
'0:09.508',0.44
'0:09.512',0.79
'0:09.516',0.37
'0:09.520',0.25
'0:09.523',0.25
'0:09.527',0.25
'0:09.531',0.25
'0:09.535',0.25
'0:09.539',0.25
'0:09.543',0.25
'0:09.547',0.25
'0:09.551',0.25
'0:09.555',0.25
'0:09.559',0.25
'0:09.563',0.25
'0:09.566',0.25
'0:09.570',0.25
'0:09.574',0.25
'0:09.578',0.25
'0:09.582',0.25
'0:09.586',0.25
'0:09.590',0.25
'0:09.594',0.25
'0:09.598',0.25
'0:09.602',0.25
'0:09.605',0.25
'0:09.609',0.25
'0:09.613',0.25
'0:09.617',0.25
'0:09.621',0.25
'0:09.625',0.25
'0:09.629',0.25
'0:09.633',0.25
'0:09.637',0.25
'0:09.641',0.25
'0:09.645',0.25
'0:09.648',-1.85
'0:09.652',-3.04
'0:09.656',-3.04
'0:09.660',-3.04
'0:09.664',-3.04
'0:09.668',-3.04
'0:09.672',-3.04
'0:09.676',-3.04
'0:09.680',-3.04
'0:09.684',-3.04
'0:09.688',-3.04
'0:09.691',-2.2
'0:09.695',-2.1
'0:09.699',-1.19
'0:09.703',1.14
'0:09.707',4.1
'0:09.711',6.58
'0:09.715',6.27
'0:09.719',3.64
'0:09.723',-0.03
'0:09.727',-2.78
'0:09.730',-4.19
'0:09.734',-5.3
'0:09.738',-5.29
'0:09.742',-4.5
'0:09.746',-3.77
'0:09.750',-3.26
'0:09.754',-2.03
'0:09.758',-1.09
'0:09.762',-1.16
'0:09.766',-1.19
'0:09.770',-0.72
'0:09.773',-0.51
'0:09.777',-0.3
'0:09.781',0.27
'0:09.785',0.49
'0:09.789',0.58
'0:09.793',0.73
'0:09.797',0.46
'0:09.801',-0.08
'0:09.805',-0.23
'0:09.809',0.24
'0:09.813',0.94
'0:09.816',1.21
'0:09.820',1.56
'0:09.824',2.14
'0:09.828',2.7
'0:09.832',3.2
'0:09.836',3.61
'0:09.840',3.72
'0:09.844',2.75
'0:09.848',1.44
'0:09.852',0.79
'0:09.855',0.97
'0:09.859',1.17
'0:09.863',0.93
'0:09.867',0.95
'0:09.871',1.44
'0:09.875',2.33
'0:09.879',2.36
'0:09.883',1.24
'0:09.887',0.5
'0:09.891',0.25
'0:09.895',0.1
'0:09.898',-0.12
'0:09.902',0
'0:09.906',0.83
'0:09.910',1.34
'0:09.914',1.36
'0:09.918',1.8
'0:09.922',1.43
'0:09.926',0.71
'0:09.930',0.63
'0:09.934',1.46
'0:09.938',1.41
'0:09.941',0.67
'0:09.945',-0.11
'0:09.949',-0.95
'0:09.953',-1.71
'0:09.957',-1.78
'0:09.961',-1.41
'0:09.965',-1.14
'0:09.969',-1.12
'0:09.973',-1.24
'0:09.977',-0.97
'0:09.980',-0.23
'0:09.984',-0.32
'0:09.988',-0.97
'0:09.992',-1.72
'0:09.996',-1.95
'0:10.000',-1.59
'0:10.004',-1.44
'0:10.008',-1.08
'0:10.012',0.87
'0:10.016',4.38
'0:10.020',7.54
'0:10.023',9.07
'0:10.027',8.6
'0:10.031',5.82
'0:10.035',1.94
'0:10.039',-1.06
'0:10.043',-3.26
'0:10.047',-4.82
'0:10.051',-5.63
'0:10.055',-5.3
'0:10.059',-3.91
'0:10.063',-1.83
'0:10.066',-0.44
'0:10.070',-0.18
'0:10.074',-0.25
'0:10.078',-0.16
'0:10.082',0.04
'0:10.086',0.67
'0:10.090',0.8
'0:10.094',0.98
'0:10.098',1.43
'0:10.102',2.07
'0:10.105',2.47
'0:10.109',2.13
'0:10.113',1.52
'0:10.117',1.32
'0:10.121',1.32
'0:10.125',1.78
'0:10.129',2.55
'0:10.133',3.2
'0:10.137',3.53
'0:10.141',2.91
'0:10.145',2.37
'0:10.148',2.68
'0:10.152',3.1
'0:10.156',2.92
'0:10.160',3.15
'0:10.164',3.32
'0:10.168',3.28
'0:10.172',2.97
'0:10.176',2.41
'0:10.180',1.96
'0:10.184',2.16
'0:10.188',2.26
'0:10.191',1.8
'0:10.195',1.69
'0:10.199',1.72
'0:10.203',1.71
'0:10.207',2.04
'0:10.211',2.12
'0:10.215',1.7
'0:10.219',1.28
'0:10.223',1.16
'0:10.227',1.49
'0:10.230',1.41
'0:10.234',1.08
'0:10.238',1.03
'0:10.242',0.97
'0:10.246',0.72
'0:10.250',0.11
'0:10.254',-0.33
'0:10.258',-0.48
'0:10.262',-0.24
'0:10.266',-0.31
'0:10.270',-0.15
'0:10.273',-0.46
'0:10.277',-1.43
'0:10.281',-1.94
'0:10.285',-1.7
'0:10.289',-0.91
'0:10.293',-0.53
'0:10.297',-0.59
'0:10.301',-0.79
'0:10.305',-1.33
'0:10.309',-1.89
'0:10.313',-2.31
'0:10.316',-2.12
'0:10.320',-0.41
'0:10.324',2.79
'0:10.328',6.41
'0:10.332',9.56
'0:10.336',10.02
'0:10.340',7.18
'0:10.344',2.91
'0:10.348',-0.53
'0:10.352',-4.22
'0:10.355',-4.37
'0:10.359',-4
'0:10.363',-3.49
'0:10.367',-2.81
'0:10.371',-2.08
'0:10.375',-1.67
'0:10.379',-1.57
'0:10.383',-1.4
'0:10.387',-0.83
'0:10.391',-0.55
'0:10.395',-0.71
'0:10.398',-0.68
'0:10.402',-0.37
'0:10.406',-0.01
'0:10.410',0.32
'0:10.414',0.76
'0:10.418',0.88
'0:10.422',0.98
'0:10.426',0.82
'0:10.430',0.41
'0:10.434',0.05
'0:10.438',0.19
'0:10.441',0.91
'0:10.445',1.5
'0:10.449',1.63
'0:10.453',2.43
'0:10.457',3.63
'0:10.461',4.07
'0:10.465',4.09
'0:10.469',4.07
'0:10.473',3.96
'0:10.477',3.15
'0:10.480',2.09
'0:10.484',1.21
'0:10.488',0.98
'0:10.492',1.31
'0:10.496',1.92
'0:10.500',2.38
'0:10.504',2.57
'0:10.508',1.73
'0:10.512',0.69
'0:10.516',0.47
'0:10.520',0.83
'0:10.523',1.38
'0:10.527',2.06
'0:10.531',2.72
'0:10.535',2.92
'0:10.539',2.55
'0:10.543',1.75
'0:10.547',1.1
'0:10.551',1
'0:10.555',0.92
'0:10.559',0.67
'0:10.563',0.22
'0:10.566',-0.4
'0:10.570',-0.78
'0:10.574',-1.3
'0:10.578',-1.63
'0:10.582',-1.76
'0:10.586',-1.87
'0:10.590',-1.95
'0:10.594',-1.97
'0:10.598',-1.85
'0:10.602',-2.24
'0:10.605',-2.72
'0:10.609',-2.53
'0:10.613',-2.4
'0:10.617',-2.06
'0:10.621',-1.62
'0:10.625',-1.1
'0:10.629',-0.25
'0:10.633',1.67
'0:10.637',4.67
'0:10.641',7.44
'0:10.645',8.4
'0:10.648',6.44
'0:10.652',2.67
'0:10.656',-1.29
'0:10.660',-4.22
'0:10.664',-5.97
'0:10.668',-6.52
'0:10.672',-6.09
'0:10.676',-5.14
'0:10.680',-4.27
'0:10.684',-3.76
'0:10.688',-3.38
'0:10.691',-2.5
'0:10.695',-1.76
'0:10.699',-1.56
'0:10.703',-2.04
'0:10.707',-2.16
'0:10.711',-1.73
'0:10.715',-0.93
'0:10.719',-0.17
'0:10.723',-0.18
'0:10.727',-0.85
'0:10.730',-1.36
'0:10.734',-1.23
'0:10.738',-0.81
'0:10.742',-0.5
'0:10.746',-0.04
'0:10.750',0.58
'0:10.754',0.96
'0:10.758',1.22
'0:10.762',1.83
'0:10.766',2.28
'0:10.770',2.23
'0:10.773',2.27
'0:10.777',2.28
'0:10.781',2.23
'0:10.785',1.36
'0:10.789',0.42
'0:10.793',-0.3
'0:10.797',-0.72
'0:10.801',-0.7
'0:10.805',-0.75
'0:10.809',-0.66
'0:10.813',-0.23
'0:10.816',-0.17
'0:10.820',-0.33
'0:10.824',0.05
'0:10.828',0.9
'0:10.832',1.66
'0:10.836',2.02
'0:10.840',1.44
'0:10.844',0.82
'0:10.848',0.58
'0:10.852',0
'0:10.855',-0.97
'0:10.859',-1.36
'0:10.863',-1.36
'0:10.867',-1.54
'0:10.871',-1.93
'0:10.875',-1.79
'0:10.879',-1.46
'0:10.883',-1.75
'0:10.887',-2.22
'0:10.891',-2.16
'0:10.895',-2.2
'0:10.898',-2.19
'0:10.902',-2.5
'0:10.906',-2.77
'0:10.910',-2.49
'0:10.914',-1.99
'0:10.918',-1.6
'0:10.922',-1.61
'0:10.926',-2.01
'0:10.930',-2.54
'0:10.934',-2.88
'0:10.938',-2.91
'0:10.941',-2.64
'0:10.945',-1.39
'0:10.949',1.41
'0:10.953',4.58
'0:10.957',6.6
'0:10.961',6.16
'0:10.965',3.43
'0:10.969',0
'0:10.973',-2.55
'0:10.977',-3.99
'0:10.980',-4.35
'0:10.984',-4.28
'0:10.988',-3.89
'0:10.992',-3.07
'0:10.996',-2.32
'0:11.000',-2.09
'0:11.004',-1.93
'0:11.008',-1.57
'0:11.012',-1.16
'0:11.016',-0.82
'0:11.020',-0.42
'0:11.023',0.03
'0:11.027',0.24
'0:11.031',0.04
'0:11.035',-0.04
'0:11.039',-0.02
'0:11.043',0.19
'0:11.047',0.59
'0:11.051',1.25
'0:11.055',1.61
'0:11.059',1.82
'0:11.063',2.13
'0:11.066',2.36
'0:11.070',2.71
'0:11.074',2.85
'0:11.078',2.78
'0:11.082',3.04
'0:11.086',3.73
'0:11.090',4.04
'0:11.094',3.45
'0:11.098',2.42
'0:11.102',1.47
'0:11.105',1.41
'0:11.109',1.57
'0:11.113',1.62
'0:11.117',1.67
'0:11.121',1.81
'0:11.125',1.47
'0:11.129',0.93
'0:11.133',0.43
'0:11.137',0.2
'0:11.141',0.38
'0:11.145',0.73
'0:11.148',0.88
'0:11.152',0.75
'0:11.156',0.69
'0:11.160',1.13
'0:11.164',1.52
'0:11.168',1.35
'0:11.172',1.01
'0:11.176',0.55
'0:11.180',-0.17
'0:11.184',-0.8
'0:11.188',-1.28
'0:11.191',-1.55
'0:11.195',-1.58
'0:11.199',-1.58
'0:11.203',-1.75
'0:11.207',-1.7
'0:11.211',-1.58
'0:11.215',-1.77
'0:11.219',-2.2
'0:11.223',-2.13
'0:11.227',-1.71
'0:11.230',-1.56
'0:11.234',-1.88
'0:11.238',-2.64
'0:11.242',-3.35
'0:11.246',-2.99
'0:11.250',-2.35
'0:11.254',-1.3
'0:11.258',0.84
'0:11.262',4.05
'0:11.266',7.66
'0:11.270',9.87
'0:11.273',8.62
'0:11.277',4.81
'0:11.281',0.39
'0:11.285',-2.6
'0:11.289',-4.17
'0:11.293',-4.73
'0:11.297',-4.8
'0:11.301',-4.85
'0:11.305',-5.01
'0:11.309',-4.49
'0:11.313',-3.4
'0:11.316',-2.18
'0:11.320',-1.34
'0:11.324',-0.73
'0:11.328',-0.09
'0:11.332',0.34
'0:11.336',0.86
'0:11.340',1.4
'0:11.344',1.39
'0:11.348',1.01
'0:11.352',0.58
'0:11.355',0.29
'0:11.359',-0.12
'0:11.363',-0.38
'0:11.367',-0.05
'0:11.371',0.8
'0:11.375',1.49
'0:11.379',1.86
'0:11.383',1.91
'0:11.387',1.75
'0:11.391',1.71
'0:11.395',1.88
'0:11.398',2.15
'0:11.402',2.25
'0:11.406',2.17
'0:11.410',1.41
'0:11.414',1.68
'0:11.418',2.19
'0:11.422',2.55
'0:11.426',2.71
'0:11.430',2.6
'0:11.434',2.39
'0:11.438',1.99
'0:11.441',1.67
'0:11.445',1.44
'0:11.449',1.32
'0:11.453',0.89
'0:11.457',0.86
'0:11.461',1.09
'0:11.465',1.7
'0:11.469',2.33
'0:11.473',1.99
'0:11.477',0.94
'0:11.480',0.23
'0:11.484',-0.43
'0:11.488',-1.19
'0:11.492',-1.74
'0:11.496',-2.1
'0:11.500',-2.37
'0:11.504',-2.31
'0:11.508',-2.06
'0:11.512',-1.47
'0:11.516',-0.7
'0:11.520',0
'0:11.523',0.14
'0:11.527',-0.27
'0:11.531',-0.93
'0:11.535',-1.85
'0:11.539',-2.23
'0:11.543',-2.44
'0:11.547',-2.5
'0:11.551',-3.13
'0:11.555',-3.65
'0:11.559',-3.27
'0:11.563',-2.48
'0:11.566',-1
'0:11.570',2.13
'0:11.574',5.71
'0:11.578',7.97
'0:11.582',7.23
'0:11.586',4.48
'0:11.590',1.34
'0:11.594',-1.08
'0:11.598',-3.27
'0:11.602',-4.44
'0:11.605',-4.65
'0:11.609',-4.54
'0:11.613',-3.99
'0:11.617',-3.14
'0:11.621',-2.42
'0:11.625',-1.68
'0:11.629',-1.05
'0:11.633',-0.97
'0:11.637',-0.93
'0:11.641',-1.22
'0:11.645',-0.96
'0:11.648',-0.77
'0:11.652',-0.87
'0:11.656',-0.69
'0:11.660',-0.38
'0:11.664',-0.13
'0:11.668',-0.16
'0:11.672',-0.9
'0:11.676',-1.33
'0:11.680',-0.63
'0:11.684',0.75
'0:11.688',1.97
'0:11.691',2.72
'0:11.695',2.74
'0:11.699',2.46
'0:11.703',2.34
'0:11.707',2.03
'0:11.711',2.43
'0:11.715',2.59
'0:11.719',2.08
'0:11.723',1.94
'0:11.727',2.03
'0:11.730',1.49
'0:11.734',0.26
'0:11.738',-0.46
'0:11.742',-0.32
'0:11.746',0.61
'0:11.750',1.74
'0:11.754',1.91
'0:11.758',1.1
'0:11.762',1
'0:11.766',0.95
'0:11.770',0.87
'0:11.773',0.51
'0:11.777',-0.1
'0:11.781',0.57
'0:11.785',0.59
'0:11.789',-0.65
'0:11.793',-0.96
'0:11.797',-0.27
'0:11.801',-0.04
'0:11.805',-0.3
'0:11.809',-1.13
'0:11.813',-1.79
'0:11.816',-2.19
'0:11.820',-2.11
'0:11.824',-1.82
'0:11.828',-2.07
'0:11.832',-2.62
'0:11.836',-2.48
'0:11.840',-1.6
'0:11.844',-0.1
'0:11.848',-0.01
'0:11.852',-1.42
'0:11.855',-2.73
'0:11.859',-3.07
'0:11.863',-3.29
'0:11.867',-3.47
'0:11.871',-2.92
'0:11.875',-1.69
'0:11.879',1.28
'0:11.883',4.46
'0:11.887',7
'0:11.891',7.58
'0:11.895',5.07
'0:11.898',0.61
'0:11.902',-3.46
'0:11.906',-6
'0:11.910',-7.15
'0:11.914',-7.03
'0:11.918',-6.16
'0:11.922',-4.31
'0:11.926',-2.43
'0:11.930',-1.45
'0:11.934',-1.33
'0:11.938',-1.44
'0:11.941',-1.74
'0:11.945',-1.9
'0:11.949',-2.53
'0:11.953',-2.91
'0:11.957',-2.67
'0:11.961',-2.21
'0:11.965',-1.7
'0:11.969',-1.14
'0:11.973',-0.71
'0:11.977',-0.61
'0:11.980',-0.79
'0:11.984',-0.15
'0:11.988',0.63
'0:11.992',0.7
'0:11.996',0.38
'0:12.000',0.43
'0:12.004',0.42
'0:12.008',0.84
'0:12.012',1.39
'0:12.016',1.68
'0:12.020',1.74
'0:12.023',1.06
'0:12.027',0.22
'0:12.031',-0.2
'0:12.035',-0.09
'0:12.039',-0.28
'0:12.043',-0.46
'0:12.047',-0.28
'0:12.051',-0.31
'0:12.055',-0.28
'0:12.059',-1.23
'0:12.063',-2.07
'0:12.066',-1.75
'0:12.070',-1.2
'0:12.074',-0.63
'0:12.078',0.07
'0:12.082',1.1
'0:12.086',1.42
'0:12.090',0.56
'0:12.094',-0.29
'0:12.098',-0.39
'0:12.102',-0.71
'0:12.105',-1.63
'0:12.109',-2.22
'0:12.113',-2.06
'0:12.117',-1.72
'0:12.121',-1.61
'0:12.125',-2.02
'0:12.129',-2.72
'0:12.133',-2.92
'0:12.137',-2.78
'0:12.141',-2.42
'0:12.145',-2.46
'0:12.148',-2.43
'0:12.152',-2.68
'0:12.156',-2.92
'0:12.160',-3.11
'0:12.164',-2.96
'0:12.168',-3.34
'0:12.172',-4.17
'0:12.176',-4.83
'0:12.180',-4.69
'0:12.184',-3.93
'0:12.188',-3.56
'0:12.191',-2.27
'0:12.195',0.71
'0:12.199',4.22
'0:12.203',6.88
'0:12.207',6.49
'0:12.211',3.75
'0:12.215',0.75
'0:12.219',-1.9
'0:12.223',-4.14
'0:12.227',-5.17
'0:12.230',-5.71
'0:12.234',-5.19
'0:12.238',-4.19
'0:12.242',-3.71
'0:12.246',-3.32
'0:12.250',-2.37
'0:12.254',-1.37
'0:12.258',-0.89
'0:12.262',-1
'0:12.266',-1.19
'0:12.270',-1.23
'0:12.273',-0.45
'0:12.277',0.78
'0:12.281',0.83
'0:12.285',0.36
'0:12.289',-0.01
'0:12.293',0.04
'0:12.297',0.61
'0:12.301',1.06
'0:12.305',1.18
'0:12.309',1.19
'0:12.313',1.86
'0:12.316',2.84
'0:12.320',3.5
'0:12.324',3.4
'0:12.328',3.2
'0:12.332',2.81
'0:12.336',2.63
'0:12.340',2.63
'0:12.344',2.12
'0:12.348',1.24
'0:12.352',0.88
'0:12.355',0.97
'0:12.359',1.26
'0:12.363',1.21
'0:12.367',0.9
'0:12.371',1.12
'0:12.375',1.45
'0:12.379',1.08
'0:12.383',0.59
'0:12.387',0.92
'0:12.391',1.33
'0:12.395',1.6
'0:12.398',1.21
'0:12.402',0.8
'0:12.406',0.87
'0:12.410',0.68
'0:12.414',0.31
'0:12.418',-0.31
'0:12.422',-1.24
'0:12.426',-1.71
'0:12.430',-1.34
'0:12.434',-0.75
'0:12.438',-0.43
'0:12.441',-0.56
'0:12.445',-0.65
'0:12.449',-0.82
'0:12.453',-1.4
'0:12.457',-2.22
'0:12.461',-2.65
'0:12.465',-2.76
'0:12.469',-2.93
'0:12.473',-2.7
'0:12.477',-1.83
'0:12.480',-0.97
'0:12.484',-0.89
'0:12.488',-1.89
'0:12.492',-2.91
'0:12.496',-3.3
'0:12.500',-3.35
'0:12.504',-2.4
'0:12.508',0.14
'0:12.512',4.41
'0:12.516',8.39
'0:12.520',9.21
'0:12.523',6.47
'0:12.527',2.64
'0:12.531',-0.22
'0:12.535',-2.63
'0:12.539',-4.08
'0:12.543',-4.76
'0:12.547',-4.68
'0:12.551',-3.98
'0:12.555',-2.78
'0:12.559',-1.86
'0:12.563',-1.21
'0:12.566',-0.56
'0:12.570',-0.23
'0:12.574',-0.15
'0:12.578',-0.45
'0:12.582',-1.04
'0:12.586',-1.28
'0:12.590',-0.61
'0:12.594',0.16
'0:12.598',0.4
'0:12.602',0.94
'0:12.605',1.55
'0:12.609',1.62
'0:12.613',1.1
'0:12.617',0.6
'0:12.621',0.77
'0:12.625',1.77
'0:12.629',3.35
'0:12.633',4.29
'0:12.637',3.91
'0:12.641',3.13
'0:12.645',2.83
'0:12.648',2.88
'0:12.652',2.66
'0:12.656',2.01
'0:12.660',1.4
'0:12.664',0.87
'0:12.668',0.94
'0:12.672',1.6
'0:12.676',2.47
'0:12.680',3.3
'0:12.684',3.77
'0:12.688',3.5
'0:12.691',2.47
'0:12.695',1.42
'0:12.699',1.24
'0:12.703',1.27
'0:12.707',1.29
'0:12.711',1.44
'0:12.715',1.33
'0:12.719',1.25
'0:12.723',1.42
'0:12.727',1.59
'0:12.730',1.57
'0:12.734',1.03
'0:12.738',0.54
'0:12.742',0.31
'0:12.746',0.09
'0:12.750',0.29
'0:12.754',0.21
'0:12.758',-0.26
'0:12.762',-0.88
'0:12.766',-1.61
'0:12.770',-2.37
'0:12.773',-2.71
'0:12.777',-2.62
'0:12.781',-1.79
'0:12.785',-1.1
'0:12.789',-0.48
'0:12.793',0.24
'0:12.797',-0.17
'0:12.801',-1.51
'0:12.805',-2.73
'0:12.809',-3.51
'0:12.813',-3.66
'0:12.816',-2.25
'0:12.820',0.81
'0:12.824',3.97
'0:12.828',7.09
'0:12.832',8.39
'0:12.836',6.6
'0:12.840',2.99
'0:12.844',-0.52
'0:12.848',-2.78
'0:12.852',-3.74
'0:12.855',-4.64
'0:12.859',-5.26
'0:12.863',-4.6
'0:12.867',-3.2
'0:12.871',-1.86
'0:12.875',-1.08
'0:12.879',-0.6
'0:12.883',-0.6
'0:12.887',-0.38
'0:12.891',-0.35
'0:12.895',-0.87
'0:12.898',-0.87
'0:12.902',-0.29
'0:12.906',0.04
'0:12.910',0.21
'0:12.914',0.3
'0:12.918',0.38
'0:12.922',0.62
'0:12.926',0.71
'0:12.930',0.92
'0:12.934',1.2
'0:12.938',0.76
'0:12.941',0.05
'0:12.945',0.01
'0:12.949',0.81
'0:12.953',1.64
'0:12.957',2.32
'0:12.961',2.49
'0:12.965',2.68
'0:12.969',3
'0:12.973',3.24
'0:12.977',3.51
'0:12.980',3.01
'0:12.984',2.2
'0:12.988',1.65
'0:12.992',1.49
'0:12.996',1.91
'0:13.000',1.5
'0:13.004',0.37
'0:13.008',0.29
'0:13.012',0.78
'0:13.016',1.29
'0:13.020',1.5
'0:13.023',1.92
'0:13.027',2.06
'0:13.031',1.43
'0:13.035',0.68
'0:13.039',-0.16
'0:13.043',-0.17
'0:13.047',0.1
'0:13.051',-0.12
'0:13.055',-0.91
'0:13.059',-1.87
'0:13.063',-2.13
'0:13.066',-2.49
'0:13.070',-2.39
'0:13.074',-2.06
'0:13.078',-1.61
'0:13.082',-1.46
'0:13.086',-1.64
'0:13.090',-2.38
'0:13.094',-3.1
'0:13.098',-3.04
'0:13.102',-2.17
'0:13.105',-1.87
'0:13.109',-2.01
'0:13.113',-2.61
'0:13.117',-3.56
'0:13.121',-4.09
'0:13.125',-2.87
'0:13.129',0.1
'0:13.133',3.33
'0:13.137',6.12
'0:13.141',7.82
'0:13.145',7.11
'0:13.148',4.2
'0:13.152',0.36
'0:13.156',-2.65
'0:13.160',-4.18
'0:13.164',-4.16
'0:13.168',-3.61
'0:13.172',-3.48
'0:13.176',-3.38
'0:13.180',-3.04
'0:13.184',-2.41
'0:13.188',-1.79
'0:13.191',-1.6
'0:13.195',-1.54
'0:13.199',-1.39
'0:13.203',-1.39
'0:13.207',-1.12
'0:13.211',-0.5
'0:13.215',0.13
'0:13.219',-0.22
'0:13.223',-1.01
'0:13.227',-1.17
'0:13.230',-0.25
'0:13.234',0.48
'0:13.238',0.72
'0:13.242',0.65
'0:13.246',0.67
'0:13.250',1.1
'0:13.254',1.93
'0:13.258',2.49
'0:13.262',2.52
'0:13.266',2.25
'0:13.270',1.55
'0:13.273',1.06
'0:13.277',0.06
'0:13.281',-0.31
'0:13.285',0.89
'0:13.289',1.8
'0:13.293',2.06
'0:13.297',1.65
'0:13.301',1.45
'0:13.305',0.98
'0:13.309',0.52
'0:13.313',0.26
'0:13.316',0.37
'0:13.320',0.73
'0:13.324',0.53
'0:13.328',-0.36
'0:13.332',-0.68
'0:13.336',-0.68
'0:13.340',-0.53
'0:13.344',0.13
'0:13.348',0.9
'0:13.352',1.23
'0:13.355',0.74
'0:13.359',-0.46
'0:13.363',-1.46
'0:13.367',-1.99
'0:13.371',-2.58
'0:13.375',-3.17
'0:13.379',-3.32
'0:13.383',-3.07
'0:13.387',-2.81
'0:13.391',-3.14
'0:13.395',-3.46
'0:13.398',-3.07
'0:13.402',-2.48
'0:13.406',-2.2
'0:13.410',-2.59
'0:13.414',-2.78
'0:13.418',-2.78
'0:13.422',-3
'0:13.426',-3.57
'0:13.430',-4.45
'0:13.434',-4.67
'0:13.438',-4.05
'0:13.441',-2.2
'0:13.445',0.16
'0:13.449',2.17
'0:13.453',4.43
'0:13.457',5.76
'0:13.461',4.78
'0:13.465',1.75
'0:13.469',-1.89
'0:13.473',-4.19
'0:13.477',-5.03
'0:13.480',-5.11
'0:13.484',-4.49
'0:13.488',-2.98
'0:13.492',-2.26
'0:13.496',-2.42
'0:13.500',-2.5
'0:13.504',-2.29
'0:13.508',-1.82
'0:13.512',-1.76
'0:13.516',-1.38
'0:13.520',-0.46
'0:13.523',-0.24
'0:13.527',-0.18
'0:13.531',0.18
'0:13.535',0.59
'0:13.539',0.62
'0:13.543',0.66
'0:13.547',0.25
'0:13.551',-0.13
'0:13.555',0.03
'0:13.559',0.58
'0:13.563',1.69
'0:13.566',2.62
'0:13.570',2.54
'0:13.574',1.73
'0:13.578',1.54
'0:13.582',2.39
'0:13.586',3.25
'0:13.590',3.41
'0:13.594',2.99
'0:13.598',2.47
'0:13.602',1.52
'0:13.605',1.15
'0:13.609',0.95
'0:13.613',0.89
'0:13.617',0.27
'0:13.621',-0.45
'0:13.625',-0.49
'0:13.629',-0.12
'0:13.633',0.62
'0:13.637',1.2
'0:13.641',1.58
'0:13.645',2.1
'0:13.648',1.97
'0:13.652',1.04
'0:13.656',0.63
'0:13.660',1.13
'0:13.664',1.19
'0:13.668',0.37
'0:13.672',-0.13
'0:13.676',-0.13
'0:13.680',-0.82
'0:13.684',-1.72
'0:13.688',-2.03
'0:13.691',-1.58
'0:13.695',-1.14
'0:13.699',-1.48
'0:13.703',-1.98
'0:13.707',-2.29
'0:13.711',-2.58
'0:13.715',-2.81
'0:13.719',-2.88
'0:13.723',-3.2
'0:13.727',-3.62
'0:13.730',-3.23
'0:13.734',-2.87
'0:13.738',-3.37
'0:13.742',-4.06
'0:13.746',-4.05
'0:13.750',-3.46
'0:13.754',-2.62
'0:13.758',-0.63
'0:13.762',2.79
'0:13.766',6.51
'0:13.770',8.83
'0:13.773',8.09
'0:13.777',4.75
'0:13.781',0.63
'0:13.785',-2.63
'0:13.789',-4.43
'0:13.793',-5.11
'0:13.797',-4.8
'0:13.801',-3.49
'0:13.805',-2.3
'0:13.809',-1.77
'0:13.813',-1.69
'0:13.816',-1.42
'0:13.820',-1
'0:13.824',-0.72
'0:13.828',-0.52
'0:13.832',-0.45
'0:13.836',0.11
'0:13.840',0.67
'0:13.844',1.02
'0:13.848',1.33
'0:13.852',1.51
'0:13.855',1.54
'0:13.859',1.68
'0:13.863',1.52
'0:13.867',0.96
'0:13.871',0.83
'0:13.875',1.96
'0:13.879',3.15
'0:13.883',3.74
'0:13.887',3.79
'0:13.891',3.2
'0:13.895',2.29
'0:13.898',1.89
'0:13.902',2.56
'0:13.906',3.44
'0:13.910',3.83
'0:13.914',3.74
'0:13.918',2.86
'0:13.922',1.94
'0:13.926',1.99
'0:13.930',2.23
'0:13.934',2.23
'0:13.938',2.04
'0:13.941',1.89
'0:13.945',1.69
'0:13.949',1.61
'0:13.953',1.62
'0:13.957',1.69
'0:13.961',1.91
'0:13.965',2.08
'0:13.969',1.43
'0:13.973',0.82
'0:13.977',0.83
'0:13.980',0.46
'0:13.984',0.02
'0:13.988',0.05
'0:13.992',0.43
'0:13.996',0.6
'0:14.000',0.39
'0:14.004',0.23
'0:14.008',0.21
'0:14.012',-0.37
'0:14.016',-0.88
'0:14.020',-1.03
'0:14.023',-1.37
'0:14.027',-1.73
'0:14.031',-2.29
'0:14.035',-3.1
'0:14.039',-3.47
'0:14.043',-2.48
'0:14.047',-1.08
'0:14.051',-0.69
'0:14.055',-1.04
'0:14.059',-1.54
'0:14.063',-1.74
'0:14.066',-2.14
'0:14.070',-2.03
'0:14.074',-0.32
'0:14.078',2.72
'0:14.082',6.27
'0:14.086',7.93
'0:14.090',6.82
'0:14.094',4.08
'0:14.098',0.82
'0:14.102',-1.86
'0:14.105',-3.59
'0:14.109',-3.84
'0:14.113',-3.46
'0:14.117',-3.19
'0:14.121',-2.43
'0:14.125',-2.15
'0:14.129',-2.44
'0:14.133',-2.33
'0:14.137',-1.71
'0:14.141',-0.99
'0:14.145',-0.57
'0:14.148',-0.14
'0:14.152',0.3
'0:14.156',0.44
'0:14.160',1.19
'0:14.164',1.66
'0:14.168',1.03
'0:14.172',1.16
'0:14.176',1.07
'0:14.180',0.63
'0:14.184',0.55
'0:14.188',1.14
'0:14.191',2.21
'0:14.195',2.72
'0:14.199',3.02
'0:14.203',2.86
'0:14.207',2.29
'0:14.211',2.18
'0:14.215',2.15
'0:14.219',2.02
'0:14.223',1.86
'0:14.227',1.88
'0:14.230',2.03
'0:14.234',2.04
'0:14.238',1.81
'0:14.242',1.43
'0:14.246',0.94
'0:14.250',0.51
'0:14.254',0.14
'0:14.258',0.75
'0:14.262',0.64
'0:14.266',0.59
'0:14.270',0.79
'0:14.273',1.07
'0:14.277',1.21
'0:14.281',0.92
'0:14.285',-0.04
'0:14.289',-0.97
'0:14.293',-0.9
'0:14.297',-0.1
'0:14.301',0.45
'0:14.305',0.5
'0:14.309',0.74
'0:14.313',0
'0:14.316',-1.68
'0:14.320',-2.63
'0:14.324',-2.63
'0:14.328',-2.62
'0:14.332',-2.63
'0:14.336',-2.63
'0:14.340',-2.63
'0:14.344',-1.17
'0:14.348',-1.77
'0:14.352',-1.81
'0:14.355',-1.98
'0:14.359',-2.13
'0:14.363',-2.83
'0:14.367',-3.41
'0:14.371',-3.6
'0:14.375',-3.72
'0:14.379',-2.75
'0:14.383',-0.28
'0:14.387',2.71
'0:14.391',5.56
'0:14.395',6.52
'0:14.398',4.58
'0:14.402',1.37
'0:14.406',-1.13
'0:14.410',-2.87
'0:14.414',-4.58
'0:14.418',-5.08
'0:14.422',-4.8
'0:14.426',-4.26
'0:14.430',-3.23
'0:14.434',-2.53
'0:14.438',-2.21
'0:14.441',-1.81
'0:14.445',-1.35
'0:14.449',-1.11
'0:14.453',-1.34
'0:14.457',-1.56
'0:14.461',-1.09
'0:14.465',-0.14
'0:14.469',0.21
'0:14.473',0.28
'0:14.477',0.04
'0:14.480',0.17
'0:14.484',0.85
'0:14.488',1.46
'0:14.492',2.58
'0:14.496',2.91
'0:14.500',2.19
'0:14.504',1.76
'0:14.508',1.9
'0:14.512',2.66
'0:14.516',3.37
'0:14.520',3.72
'0:14.523',3.65
'0:14.527',3.53
'0:14.531',3.31
'0:14.535',2.17
'0:14.539',1.59
'0:14.543',1.5
'0:14.547',0.82
'0:14.551',0.49
'0:14.555',0.45
'0:14.559',0.22
'0:14.563',0.07
'0:14.566',0.14
'0:14.570',0.42
'0:14.574',0.67
'0:14.578',0.53
'0:14.582',-0.34
'0:14.586',-1.1
'0:14.590',-0.33
'0:14.594',1.41
'0:14.598',1.6
'0:14.602',0.77
'0:14.605',0.46
'0:14.609',-0.04
'0:14.613',-0.76
'0:14.617',-1.26
'0:14.621',-1.72
'0:14.625',-1.91
'0:14.629',-1.89
'0:14.633',-1.98
'0:14.637',-2.51
'0:14.641',-3.43
'0:14.645',-3.86
'0:14.648',-3.58
'0:14.652',-3.49
'0:14.656',-3.88
'0:14.660',-3.85
'0:14.664',-2.93
'0:14.668',-1.86
'0:14.672',-1.47
'0:14.676',-2.13
'0:14.680',-3.03
'0:14.684',-3.38
'0:14.688',-3.34
'0:14.691',-3.45
'0:14.695',-3.42
'0:14.699',-1.92
'0:14.703',1.3
'0:14.707',4.58
'0:14.711',6.59
'0:14.715',6.23
'0:14.719',4.05
'0:14.723',0.92
'0:14.727',-2.12
'0:14.730',-4.14
'0:14.734',-5.33
'0:14.738',-6.09
'0:14.742',-5.91
'0:14.746',-5.68
'0:14.750',-4.91
'0:14.754',-3.6
'0:14.758',-2.31
'0:14.762',-1.57
'0:14.766',-1.05
'0:14.770',-0.8
'0:14.773',-0.56
'0:14.777',-0.22
'0:14.781',-0.1
'0:14.785',-0.23
'0:14.789',-0.15
'0:14.793',-0.56
'0:14.797',-1.5
'0:14.801',-1.17
'0:14.805',-0.21
'0:14.809',-0.09
'0:14.813',-0.03
'0:14.816',1.3
'0:14.820',2.39
'0:14.824',2.76
'0:14.828',2.9
'0:14.832',3.32
'0:14.836',3.73
'0:14.840',3.36
'0:14.844',2.93
'0:14.848',2.67
'0:14.852',2.04
'0:14.855',1.09
'0:14.859',0.47
'0:14.863',0.26
'0:14.867',0.12
'0:14.871',-0.08
'0:14.875',0.12
'0:14.879',0.53
'0:14.883',0.87
'0:14.887',0.56
'0:14.891',-0.16
'0:14.895',-0.19
'0:14.898',0.4
'0:14.902',1.2
'0:14.906',1.95
'0:14.910',2.2
'0:14.914',1.66
'0:14.918',0.25
'0:14.922',-1.06
'0:14.926',-1.38
'0:14.930',-0.76
'0:14.934',0.25
'0:14.938',1
'0:14.941',0.58
'0:14.945',-0.27
'0:14.949',-0.78
'0:14.953',-1.25
'0:14.957',-1.28
'0:14.961',-1.69
'0:14.965',-2.53
'0:14.969',-2.68
'0:14.973',-1.97
'0:14.977',-1.89
'0:14.980',-2.3
'0:14.984',-2.77
'0:14.988',-3.21
'0:14.992',-3.39
'0:14.996',-3.36
'0:15.000',-3.57
'0:15.004',-3.93
'0:15.008',-3.73
'0:15.012',-2.99
'0:15.016',-1.63
'0:15.020',0.99
'0:15.023',4.32
'0:15.027',7.51
'0:15.031',9.25
'0:15.035',7.77
'0:15.039',3.07
'0:15.043',-1.94
'0:15.047',-4.96
'0:15.051',-5.4
'0:15.055',-4.2
'0:15.059',-3.11
'0:15.063',-3.09
'0:15.066',-3.18
'0:15.070',-2.62
'0:15.074',-2.16
'0:15.078',-1.98
'0:15.082',-1.76
'0:15.086',-1.58
'0:15.090',-1.65
'0:15.094',-1.63
'0:15.098',-0.85
'0:15.102',0.9
'0:15.105',1.48
'0:15.109',0.77
'0:15.113',0.23
'0:15.117',-0.19
'0:15.121',-0.32
'0:15.125',0.07
'0:15.129',0.61
'0:15.133',1.21
'0:15.137',1.64
'0:15.141',2.67
'0:15.145',3.84
'0:15.148',4.21
'0:15.152',4.21
'0:15.156',3.71
'0:15.160',2.99
'0:15.164',2.13
'0:15.168',0.98
'0:15.172',0.33
'0:15.176',1.18
'0:15.180',2.33
'0:15.184',2.82
'0:15.188',2.01
'0:15.191',1.07
'0:15.195',0.89
'0:15.199',0.89
'0:15.203',0.34
'0:15.207',-0.32
'0:15.211',-0.03
'0:15.215',0.82
'0:15.219',1.33
'0:15.223',1.08
'0:15.227',1.16
'0:15.230',1.39
'0:15.234',1.7
'0:15.238',2
'0:15.242',1.82
'0:15.246',1.12
'0:15.250',0.67
'0:15.254',0.16
'0:15.258',0.08
'0:15.262',-0.25
'0:15.266',-1.28
'0:15.270',-1.51
'0:15.273',-1.65
'0:15.277',-2.76
'0:15.281',-3.26
'0:15.285',-3.32
'0:15.289',-2.92
'0:15.293',-2.23
'0:15.297',-1.97
'0:15.301',-1.79
'0:15.305',-1.61
'0:15.309',-1.84
'0:15.313',-1.96
'0:15.316',-1.61
'0:15.320',-2.02
'0:15.324',-2.7
'0:15.328',-2.63
'0:15.332',-0.46
'0:15.336',3.03
'0:15.340',6.56
'0:15.344',8.62
'0:15.348',7.87
'0:15.352',5.15
'0:15.355',0.93
'0:15.359',-3.71
'0:15.363',-6.4
'0:15.367',-6.23
'0:15.371',-3.88
'0:15.375',-2.1
'0:15.379',-2.51
'0:15.383',-3.78
'0:15.387',-4.06
'0:15.391',-2.76
'0:15.395',-0.96
'0:15.398',0.54
'0:15.402',1.06
'0:15.406',0.21
'0:15.410',-1.03
'0:15.414',-1.45
'0:15.418',-0.67
'0:15.422',0.26
'0:15.426',0.81
'0:15.430',1.13
'0:15.434',1.54
'0:15.438',1.83
'0:15.441',1.13
'0:15.445',1.37
'0:15.449',2.65
'0:15.453',2.87
'0:15.457',2.41
'0:15.461',2.25
'0:15.465',2.41
'0:15.469',3.11
'0:15.473',4.1
'0:15.477',4.21
'0:15.480',3.66
'0:15.484',2.55
'0:15.488',1.22
'0:15.492',0.54
'0:15.496',0.86
'0:15.500',1.67
'0:15.504',1.78
'0:15.508',1.18
'0:15.512',0.99
'0:15.516',0.95
'0:15.520',1.05
'0:15.523',0.85
'0:15.527',0.89
'0:15.531',1.35
'0:15.535',1.55
'0:15.539',1.4
'0:15.543',1.28
'0:15.547',1.52
'0:15.551',1.85
'0:15.555',1.57
'0:15.559',1.1
'0:15.563',0.45
'0:15.566',0.05
'0:15.570',0.11
'0:15.574',0.17
'0:15.578',-0.12
'0:15.582',-0.51
'0:15.586',-1.4
'0:15.590',-2.3
'0:15.594',-2.92
'0:15.598',-3.13
'0:15.602',-2.41
'0:15.605',-1.61
'0:15.609',-1.77
'0:15.613',-2.48
'0:15.617',-2.68
'0:15.621',-1.95
'0:15.625',-1.35
'0:15.629',-1.85
'0:15.633',-3.2
'0:15.637',-3.64
'0:15.641',-2.6
'0:15.645',-0.64
'0:15.648',2.4
'0:15.652',5.59
'0:15.656',8.42
'0:15.660',9.04
'0:15.664',6.69
'0:15.668',2.78
'0:15.672',-1.03
'0:15.676',-3.59
'0:15.680',-4.39
'0:15.684',-3.91
'0:15.688',-2.98
'0:15.691',-3.01
'0:15.695',-2.84
'0:15.699',-1.97
'0:15.703',-1.63
'0:15.707',-2.02
'0:15.711',-2.4
'0:15.715',-1.68
'0:15.719',-0.85
'0:15.723',0.02
'0:15.727',-0.48
'0:15.730',-1.42
'0:15.734',-1.68
'0:15.738',-1.38
'0:15.742',-0.42
'0:15.746',0.6
'0:15.750',0.95
'0:15.754',1.12
'0:15.758',0.92
'0:15.762',1.11
'0:15.766',1.97
'0:15.770',3.33
'0:15.773',4.06
'0:15.777',3.43
'0:15.781',2.38
'0:15.785',2.08
'0:15.789',2.17
'0:15.793',2.72
'0:15.797',3.37
'0:15.801',2.75
'0:15.805',1.25
'0:15.809',0.23
'0:15.813',0.28
'0:15.816',1.04
'0:15.820',1.9
'0:15.824',1.29
'0:15.828',0.22
'0:15.832',-0.6
'0:15.836',-1.03
'0:15.840',-0.34
'0:15.844',1.49
'0:15.848',3.34
'0:15.852',3.58
'0:15.855',2.59
'0:15.859',1.65
'0:15.863',1.11
'0:15.867',1.19
'0:15.871',0.7
'0:15.875',-0.13
'0:15.879',-0.45
'0:15.883',-0.81
'0:15.887',-1.03
'0:15.891',-1.19
'0:15.895',-1.31
'0:15.898',-2.05
'0:15.902',-3.2
'0:15.906',-3.84
'0:15.910',-3.32
'0:15.914',-2.78
'0:15.918',-2.39
'0:15.922',-1.82
'0:15.926',-1.47
'0:15.930',-1.37
'0:15.934',-1.37
'0:15.938',-1.41
'0:15.941',-2.02
'0:15.945',-3.51
'0:15.949',-3.82
'0:15.953',-3.05
'0:15.957',-2.18
'0:15.961',-0.32
'0:15.965',2.12
'0:15.969',4.61
'0:15.973',6.18
'0:15.977',5.87
'0:15.980',3.17
'0:15.984',-0.78
'0:15.988',-3.72
'0:15.992',-5.23
'0:15.996',-5.39
'0:16.000',-5.07
'0:16.004',-4.43
'0:16.008',-3.21
'0:16.012',-2.37
'0:16.016',-1.68
'0:16.020',-1.81
'0:16.023',-2.69
'0:16.027',-2.93
'0:16.031',-2.31
'0:16.035',-1.29
'0:16.039',-0.67
'0:16.043',-0.74
'0:16.047',-0.89
'0:16.051',-1.09
'0:16.055',-1.42
'0:16.059',-1.36
'0:16.063',-0.3
'0:16.066',0.75
'0:16.070',0.5
'0:16.074',0.12
'0:16.078',0.84
'0:16.082',2.31
'0:16.086',3.92
'0:16.090',4.49
'0:16.094',4.3
'0:16.098',3.71
'0:16.102',2.58
'0:16.105',1.5
'0:16.109',0.56
'0:16.113',0.34
'0:16.117',0.43
'0:16.121',0.15
'0:16.125',-1.07
'0:16.129',-1.63
'0:16.133',-1.07
'0:16.137',-0.06
'0:16.141',0.84
'0:16.145',1.05
'0:16.148',1.28
'0:16.152',1.79
'0:16.156',1.37
'0:16.160',0.23
'0:16.164',-0.59
'0:16.168',-0.35
'0:16.172',0.45
'0:16.176',0.98
'0:16.180',0.87
'0:16.184',0.29
'0:16.188',-0.23
'0:16.191',-0.29
'0:16.195',0.03
'0:16.199',-0.36
'0:16.203',-0.6
'0:16.207',-0.95
'0:16.211',-1.5
'0:16.215',-1.93
'0:16.219',-2.95
'0:16.223',-3.42
'0:16.227',-2.86
'0:16.230',-2.28
'0:16.234',-2.62
'0:16.238',-3.24
'0:16.242',-2.9
'0:16.246',-2.04
'0:16.250',-1.85
'0:16.254',-3.16
'0:16.258',-4.73
'0:16.262',-5.13
'0:16.266',-4.33
'0:16.270',-2.88
'0:16.273',-1.54
'0:16.277',-0.68
'0:16.281',0.77
'0:16.285',3.44
'0:16.289',6.62
'0:16.293',8.03
'0:16.297',6.67
'0:16.301',3.67
'0:16.305',0.45
'0:16.309',-2.25
'0:16.313',-3.84
'0:16.316',-4.78
'0:16.320',-5.8
'0:16.324',-5.38
'0:16.328',-3.7
'0:16.332',-2.53
'0:16.336',-2.13
'0:16.340',-1.63
'0:16.344',-1.07
'0:16.348',-0.68
'0:16.352',-0.76
'0:16.355',-0.75
'0:16.359',0
'0:16.363',0.82
'0:16.367',1.58
'0:16.371',1.59
'0:16.375',0.91
'0:16.379',0.36
'0:16.383',0.38
'0:16.387',0.34
'0:16.391',0.13
'0:16.395',0.35
'0:16.398',1.39
'0:16.402',2.86
'0:16.406',3.5
'0:16.410',2.94
'0:16.414',2.4
'0:16.418',2.96
'0:16.422',3.71
'0:16.426',3.56
'0:16.430',2.81
'0:16.434',2.71
'0:16.438',2.01
'0:16.441',0.68
'0:16.445',-0.17
'0:16.449',-0.13
'0:16.453',0.13
'0:16.457',0.56
'0:16.461',0.58
'0:16.465',0.45
'0:16.469',0.44
'0:16.473',0.49
'0:16.477',0.26
'0:16.480',0.44
'0:16.484',1.62
'0:16.488',1.76
'0:16.492',1.19
'0:16.496',0.69
'0:16.500',0.5
'0:16.504',0.62
'0:16.508',0.78
'0:16.512',0.56
'0:16.516',-0.18
'0:16.520',-0.95
'0:16.523',-1.57
'0:16.527',-2.3
'0:16.531',-2.36
'0:16.535',-2.53
'0:16.539',-2.35
'0:16.543',-1.58
'0:16.547',-0.76
'0:16.551',-0.82
'0:16.555',-1.26
'0:16.559',-2.02
'0:16.563',-2.53
'0:16.566',-2.29
'0:16.570',-1.86
'0:16.574',-1.79
'0:16.578',-2.12
'0:16.582',-2.76
'0:16.586',-3.59
'0:16.590',-4.04
'0:16.594',-3.27
'0:16.598',-0.55
'0:16.602',3.46
'0:16.605',6.9
'0:16.609',7.92
'0:16.613',6.36
'0:16.617',3.59
'0:16.621',0.6
'0:16.625',-1.66
'0:16.629',-3.26
'0:16.633',-4.61
'0:16.637',-4.76
'0:16.641',-4.5
'0:16.645',-3.85
'0:16.648',-2.48
'0:16.652',-1.3
'0:16.656',-0.67
'0:16.660',-0.5
'0:16.664',-0.22
'0:16.668',0.12
'0:16.672',0.63
'0:16.676',1.23
'0:16.680',1.3
'0:16.684',1.13
'0:16.688',0.41
'0:16.691',-0.29
'0:16.695',-0.72
'0:16.699',-0.34
'0:16.703',0.74
'0:16.707',1.64
'0:16.711',1.95
'0:16.715',2.31
'0:16.719',2.55
'0:16.723',2.09
'0:16.727',2
'0:16.730',2.91
'0:16.734',3.9
'0:16.738',3.77
'0:16.742',2.74
'0:16.746',2.53
'0:16.750',2.46
'0:16.754',2.43
'0:16.758',2.78
'0:16.762',2.53
'0:16.766',1.87
'0:16.770',0.67
'0:16.773',-0.6
'0:16.777',-1.19
'0:16.781',-1.08
'0:16.785',0.12
'0:16.789',1.05
'0:16.793',1.45
'0:16.797',1.42
'0:16.801',1.36
'0:16.805',0.9
'0:16.809',0.48
'0:16.813',0.84
'0:16.816',1.38
'0:16.820',2.39
'0:16.824',2.75
'0:16.828',1.66
'0:16.832',0.25
'0:16.836',-0.11
'0:16.840',-0.45
'0:16.844',-1.43
'0:16.848',-1.59
'0:16.852',-1.19
'0:16.855',-1.27
'0:16.859',-1.7
'0:16.863',-2.33
'0:16.867',-3.13
'0:16.871',-2.66
'0:16.875',-1.72
'0:16.879',-1.05
'0:16.883',-0.67
'0:16.887',-0.79
'0:16.891',-1.3
'0:16.895',-2.17
'0:16.898',-2.92
'0:16.902',-3.47
'0:16.906',-3.33
'0:16.910',-2.28
'0:16.914',0.08
'0:16.918',3.27
'0:16.922',5.86
'0:16.926',7.9
'0:16.930',7.8
'0:16.934',5.63
'0:16.938',1.76
'0:16.941',-2.15
'0:16.945',-4.17
'0:16.949',-4.64
'0:16.953',-4.03
'0:16.957',-3.25
'0:16.961',-2.25
'0:16.965',-1.27
'0:16.969',-0.97
'0:16.973',-1.13
'0:16.977',-1.06
'0:16.980',0.04
'0:16.984',0.61
'0:16.988',0.43
'0:16.992',0.35
'0:16.996',0.11
'0:17.000',-0.15
'0:17.004',-0.1
'0:17.008',0.54
'0:17.012',1.17
'0:17.016',0.74
'0:17.020',0.81
'0:17.023',0.98
'0:17.027',0.9
'0:17.031',0.85
'0:17.035',1.07
'0:17.039',2.18
'0:17.043',3.75
'0:17.047',4.58
'0:17.051',4.22
'0:17.055',3.75
'0:17.059',3.46
'0:17.063',2.71
'0:17.066',2.31
'0:17.070',2.51
'0:17.074',2.25
'0:17.078',1.78
'0:17.082',1.03
'0:17.086',0.01
'0:17.090',-0.37
'0:17.094',-0.24
'0:17.098',0.13
'0:17.102',0.8
'0:17.105',1.18
'0:17.109',1.16
'0:17.113',1.1
'0:17.117',0.96
'0:17.121',1.56
'0:17.125',2.16
'0:17.129',1.57
'0:17.133',0.61
'0:17.137',0.06
'0:17.141',-0.18
'0:17.145',-0.4
'0:17.148',-0.97
'0:17.152',-1.38
'0:17.156',-1.47
'0:17.160',-1.05
'0:17.164',-0.69
'0:17.168',-1.07
'0:17.172',-2.18
'0:17.176',-2.8
'0:17.180',-2.92
'0:17.184',-2.82
'0:17.188',-2.15
'0:17.191',-1.7
'0:17.195',-2.02
'0:17.199',-2.71
'0:17.203',-2.94
'0:17.207',-2.74
'0:17.211',-2.72
'0:17.215',-2.76
'0:17.219',-3.05
'0:17.223',-3.32
'0:17.227',-2.55
'0:17.230',0.66
'0:17.234',4.97
'0:17.238',8
'0:17.242',7.85
'0:17.246',5.29
'0:17.250',1.47
'0:17.254',-1.8
'0:17.258',-3.56
'0:17.262',-4.32
'0:17.266',-4.69
'0:17.270',-4.84
'0:17.273',-3.92
'0:17.277',-2.63
'0:17.281',-1.96
'0:17.285',-1.62
'0:17.289',-1.07
'0:17.293',-1.44
'0:17.297',-1.99
'0:17.301',-1.58
'0:17.305',-0.44
'0:17.309',0.41
'0:17.313',0.37
'0:17.316',0.24
'0:17.320',0.83
'0:17.324',1.61
'0:17.328',1.46
'0:17.332',1.15
'0:17.336',1.23
'0:17.340',0.95
'0:17.344',0.6
'0:17.348',1.5
'0:17.352',2.78
'0:17.355',4.07
'0:17.359',5.16
'0:17.363',5.02
'0:17.367',3.59
'0:17.371',2.18
'0:17.375',1.86
'0:17.379',2.02
'0:17.383',1.34
'0:17.387',0.82
'0:17.391',0.64
'0:17.395',0.24
'0:17.398',-0.16
'0:17.402',-0.49
'0:17.406',-0.44
'0:17.410',-0.41
'0:17.414',-0.13
'0:17.418',0.39
'0:17.422',0.57
'0:17.426',0.95
'0:17.430',1.21
'0:17.434',1.12
'0:17.438',0.81
'0:17.441',0.61
'0:17.445',0.37
'0:17.449',-0.24
'0:17.453',-1.51
'0:17.457',-2.26
'0:17.461',-2.15
'0:17.465',-1.66
'0:17.469',-1.33
'0:17.473',-1.46
'0:17.477',-1.91
'0:17.480',-2.65
'0:17.484',-3.4
'0:17.488',-3.17
'0:17.492',-2.42
'0:17.496',-2.04
'0:17.500',-2.12
'0:17.504',-2.44
'0:17.508',-3.02
'0:17.512',-3.27
'0:17.516',-3.36
'0:17.520',-3.2
'0:17.523',-3.06
'0:17.527',-3.33
'0:17.531',-3.8
'0:17.535',-4.02
'0:17.539',-3.82
'0:17.543',-2.91
'0:17.547',-0.7
'0:17.551',2.05
'0:17.555',5.02
'0:17.559',6.7
'0:17.563',5.22
'0:17.566',1.93
'0:17.570',-1.82
'0:17.574',-4.6
'0:17.578',-5.54
'0:17.582',-5.38
'0:17.586',-5.48
'0:17.590',-5.17
'0:17.594',-4.37
'0:17.598',-3.43
'0:17.602',-2.82
'0:17.605',-2.52
'0:17.609',-2.17
'0:17.613',-1.78
'0:17.617',-1.3
'0:17.621',-0.7
'0:17.625',-0.26
'0:17.629',0.1
'0:17.633',-0.2
'0:17.637',-0.63
'0:17.641',-0.65
'0:17.645',-0.39
'0:17.648',-0.5
'0:17.652',-0.5
'0:17.656',-0.08
'0:17.660',0.45
'0:17.664',0.95
'0:17.668',1.57
'0:17.672',2.3
'0:17.676',2.54
'0:17.680',2.27
'0:17.684',1.87
'0:17.688',1.6
'0:17.691',1.57
'0:17.695',2.08
'0:17.699',2.32
'0:17.703',1.75
'0:17.707',1.01
'0:17.711',0.35
'0:17.715',0.26
'0:17.719',0.23
'0:17.723',-0.21
'0:17.727',-0.6
'0:17.730',-0.8
'0:17.734',-0.9
'0:17.738',-0.99
'0:17.742',-0.52
'0:17.746',0.51
'0:17.750',1.43
'0:17.754',1.75
'0:17.758',1.84
'0:17.762',1.62
'0:17.766',1.37
'0:17.770',0.78
'0:17.773',0.27
'0:17.777',0.28
'0:17.781',0.36
'0:17.785',-0.14
'0:17.789',-0.79
'0:17.793',-1.1
'0:17.797',-1.88
'0:17.801',-2.27
'0:17.805',-2.19
'0:17.809',-1.85
'0:17.813',-1.51
'0:17.816',-1.65
'0:17.820',-1.66
'0:17.824',-1.69
'0:17.828',-1.99
'0:17.832',-2
'0:17.836',-1.52
'0:17.840',-1.14
'0:17.844',-1.4
'0:17.848',-1.93
'0:17.852',-2.67
'0:17.855',-3.61
'0:17.859',-4.06
'0:17.863',-2.47
'0:17.867',1.08
'0:17.871',4.99
'0:17.875',7.88
'0:17.879',7.72
'0:17.883',5.12
'0:17.887',1.78
'0:17.891',-1.11
'0:17.895',-3.29
'0:17.898',-4.47
'0:17.902',-4.24
'0:17.906',-3.13
'0:17.910',-2.58
'0:17.914',-2.21
'0:17.918',-2.13
'0:17.922',-2.2
'0:17.926',-1.74
'0:17.930',-1.06
'0:17.934',-0.32
'0:17.938',0.82
'0:17.941',1.4
'0:17.945',0.81
'0:17.949',0.32
'0:17.953',0.26
'0:17.957',0.56
'0:17.961',1.05
'0:17.965',1.26
'0:17.969',0.44
'0:17.973',0.19
'0:17.977',0.51
'0:17.980',1
'0:17.984',1.93
'0:17.988',2.65
'0:17.992',2.75
'0:17.996',2.89
'0:18.000',3.07
'0:18.004',2.66
'0:18.008',2.5
'0:18.012',2.64
'0:18.016',2.33
'0:18.020',1.72
'0:18.023',1.38
'0:18.027',1.15
'0:18.031',0.92
'0:18.035',0.44
'0:18.039',-0.05
'0:18.043',-0.1
'0:18.047',0.13
'0:18.051',0.54
'0:18.055',0.82
'0:18.059',0.99
'0:18.063',1.14
'0:18.066',1.47
'0:18.070',1.93
'0:18.074',2.33
'0:18.078',2.4
'0:18.082',2.03
'0:18.086',1.46
'0:18.090',1.04
'0:18.094',0.79
'0:18.098',0.64
'0:18.102',0.35
'0:18.105',-0.11
'0:18.109',-0.65
'0:18.113',-1.14
'0:18.117',-1.43
'0:18.121',-1.21
'0:18.125',-0.99
'0:18.129',-1.31
'0:18.133',-1.66
'0:18.137',-1.69
'0:18.141',-1.35
'0:18.145',-1.58
'0:18.148',-2.24
'0:18.152',-1.96
'0:18.156',-1.57
'0:18.160',-1.67
'0:18.164',-2.41
'0:18.168',-2.8
'0:18.172',-2.6
'0:18.176',-2.43
'0:18.180',-1.85
'0:18.184',0.24
'0:18.188',3.33
'0:18.191',6.48
'0:18.195',8.23
'0:18.199',7.72
'0:18.203',5.38
'0:18.207',1.59
'0:18.211',-1.72
'0:18.215',-3.62
'0:18.219',-4.32
'0:18.223',-4.03
'0:18.227',-2.99
'0:18.230',-1.7
'0:18.234',-1.12
'0:18.238',-0.99
'0:18.242',-0.86
'0:18.246',-0.77
'0:18.250',-1.08
'0:18.254',-1.37
'0:18.258',-0.69
'0:18.262',0.47
'0:18.266',1.21
'0:18.270',1.8
'0:18.273',2.24
'0:18.277',2.25
'0:18.281',1.68
'0:18.285',1.15
'0:18.289',0.74
'0:18.293',0.69
'0:18.297',1.11
'0:18.301',1.86
'0:18.305',2.53
'0:18.309',2.79
'0:18.313',2.8
'0:18.316',3.22
'0:18.320',3.77
'0:18.324',3.66
'0:18.328',3.07
'0:18.332',2.53
'0:18.336',2.59
'0:18.340',2.71
'0:18.344',2.5
'0:18.348',2.18
'0:18.352',1.53
'0:18.355',0.94
'0:18.359',0.82
'0:18.363',1.19
'0:18.367',1.6
'0:18.371',1.57
'0:18.375',1.42
'0:18.379',1.56
'0:18.383',1.94
'0:18.387',1.94
'0:18.391',1.56
'0:18.395',1.26
'0:18.398',1.04
'0:18.402',1.05
'0:18.406',0.93
'0:18.410',0.55
'0:18.414',0.62
'0:18.418',0.48
'0:18.422',0.29
'0:18.426',0.14
'0:18.430',-0.09
'0:18.434',-0.25
'0:18.438',-0.14
'0:18.441',-0.19
'0:18.445',-1.22
'0:18.449',-1.7
'0:18.453',-1.48
'0:18.457',-1.04
'0:18.461',-0.76
'0:18.465',-0.75
'0:18.469',-1.12
'0:18.473',-1.3
'0:18.477',-1.17
'0:18.480',-1.25
'0:18.484',-2.15
'0:18.488',-3.08
'0:18.492',-3.46
'0:18.496',-2.89
'0:18.500',-0.89
'0:18.504',2.09
'0:18.508',5.05
'0:18.512',7.11
'0:18.516',6.94
'0:18.520',5.03
'0:18.523',2.06
'0:18.527',-0.76
'0:18.531',-2.6
'0:18.535',-3.27
'0:18.539',-3.48
'0:18.543',-3.09
'0:18.547',-2.33
'0:18.551',-1.85
'0:18.555',-1.58
'0:18.559',-1.64
'0:18.563',-1.73
'0:18.566',-1.21
'0:18.570',-0.23
'0:18.574',0.51
'0:18.578',0.71
'0:18.582',0.56
'0:18.586',0.1
'0:18.590',0.03
'0:18.594',0.06
'0:18.598',0.41
'0:18.602',0.53
'0:18.605',0.87
'0:18.609',1.62
'0:18.613',2.17
'0:18.617',2.1
'0:18.621',2.09
'0:18.625',2.35
'0:18.629',2.57
'0:18.633',2.72
'0:18.637',2.77
'0:18.641',2.41
'0:18.645',2.21
'0:18.648',2.28
'0:18.652',2.48
'0:18.656',2.11
'0:18.660',1.69
'0:18.664',1.46
'0:18.668',0.87
'0:18.672',0.29
'0:18.676',0.29
'0:18.680',0.65
'0:18.684',0.63
'0:18.688',0.47
'0:18.691',0.63
'0:18.695',0.51
'0:18.699',-0.05
'0:18.703',-0.06
'0:18.707',0.62
'0:18.711',0.88
'0:18.715',0.04
'0:18.719',-0.21
'0:18.723',0.54
'0:18.727',1.11
'0:18.730',0.99
'0:18.734',0.77
'0:18.738',0.53
'0:18.742',0.11
'0:18.746',-0.76
'0:18.750',-1.67
'0:18.754',-1.9
'0:18.758',-1.62
'0:18.762',-1.54
'0:18.766',-1.77
'0:18.770',-1.83
'0:18.773',-1.7
'0:18.777',-1.85
'0:18.781',-2.19
'0:18.785',-2.45
'0:18.789',-2.57
'0:18.793',-2.49
'0:18.797',-2.35
'0:18.801',-2.56
'0:18.805',-3.02
'0:18.809',-3.25
'0:18.813',-3.25
'0:18.816',-2.5
'0:18.820',-0.51
'0:18.824',2.73
'0:18.828',5.83
'0:18.832',7.5
'0:18.836',6.35
'0:18.840',3.04
'0:18.844',-0.63
'0:18.848',-3.14
'0:18.852',-4.41
'0:18.855',-5.04
'0:18.859',-5.32
'0:18.863',-5.19
'0:18.867',-4.36
'0:18.871',-3.5
'0:18.875',-2.74
'0:18.879',-2.12
'0:18.883',-1.7
'0:18.887',-1.33
'0:18.891',-1.12
'0:18.895',-1.2
'0:18.898',-1.19
'0:18.902',-0.71
'0:18.906',-0.4
'0:18.910',-0.33
'0:18.914',-0.47
'0:18.918',-0.62
'0:18.922',-0.92
'0:18.926',-0.99
'0:18.930',-0.72
'0:18.934',-0.32
'0:18.938',-0.08
'0:18.941',0.32
'0:18.945',0.92
'0:18.949',1.36
'0:18.953',1.49
'0:18.957',1.56
'0:18.961',1.82
'0:18.965',1.86
'0:18.969',1.15
'0:18.973',0.23
'0:18.977',-0.14
'0:18.980',-0.59
'0:18.984',-0.96
'0:18.988',-0.99
'0:18.992',-1.4
'0:18.996',-1.77
'0:19.000',-1.51
'0:19.004',-1.12
'0:19.008',-1.06
'0:19.012',-1.14
'0:19.016',-0.99
'0:19.020',-0.37
'0:19.023',0.08
'0:19.027',-0.32
'0:19.031',-1.11
'0:19.035',-1.41
'0:19.039',-1.34
'0:19.043',-1.2
'0:19.047',-0.97
'0:19.051',-0.99
'0:19.055',-1.19
'0:19.059',-1.1
'0:19.063',-1.16
'0:19.066',-1.72
'0:19.070',-2.32
'0:19.074',-2.46
'0:19.078',-2.59
'0:19.082',-3.04
'0:19.086',-3.46
'0:19.090',-3.53
'0:19.094',-3.3
'0:19.098',-2.63
'0:19.102',-2.27
'0:19.105',-2.49
'0:19.109',-3.01
'0:19.113',-3.4
'0:19.117',-3.54
'0:19.121',-3.28
'0:19.125',-3.6
'0:19.129',-4.23
'0:19.133',-4.58
'0:19.137',-4.13
'0:19.141',-2.87
'0:19.145',-0.34
'0:19.148',3.12
'0:19.152',6.39
'0:19.156',7.68
'0:19.160',6.34
'0:19.164',3.69
'0:19.168',0.41
'0:19.172',-2.8
'0:19.176',-5.06
'0:19.180',-5.79
'0:19.184',-5.23
'0:19.188',-4.12
'0:19.191',-3.18
'0:19.195',-2.33
'0:19.199',-1.57
'0:19.203',-0.9
'0:19.207',-0.31
'0:19.211',-0.11
'0:19.215',-0.01
'0:19.219',0.27
'0:19.223',0.6
'0:19.227',1
'0:19.230',0.91
'0:19.234',0.94
'0:19.238',1.09
'0:19.242',1.35
'0:19.246',1.45
'0:19.250',1.3
'0:19.254',1.66
'0:19.258',2.2
'0:19.262',2.75
'0:19.266',3.07
'0:19.270',3.16
'0:19.273',3.44
'0:19.277',3.46
'0:19.281',3.29
'0:19.285',3.01
'0:19.289',2.95
'0:19.293',2.87
'0:19.297',2.27
'0:19.301',1.61
'0:19.305',1.28
'0:19.309',1.29
'0:19.313',1.3
'0:19.316',0.8
'0:19.320',0.2
'0:19.324',1.04
'0:19.328',1.47
'0:19.332',1.26
'0:19.336',0.52
'0:19.340',0.4
'0:19.344',1.05
'0:19.348',0.98
'0:19.352',0.41
'0:19.355',0.4
'0:19.359',0.96
'0:19.363',1.33
'0:19.367',1.44
'0:19.371',1.01
'0:19.375',0.47
'0:19.379',-0.04
'0:19.383',-0.28
'0:19.387',-0.06
'0:19.391',0.15
'0:19.395',-0.58
'0:19.398',-1.69
'0:19.402',-2.27
'0:19.406',-2.29
'0:19.410',-2.24
'0:19.414',-2.28
'0:19.418',-2.34
'0:19.422',-2.45
'0:19.426',-2.35
'0:19.430',-1.87
'0:19.434',-1.6
'0:19.438',-1.78
'0:19.441',-2.39
'0:19.445',-3.06
'0:19.449',-3.61
'0:19.453',-3.87
'0:19.457',-3.43
'0:19.461',-1.79
'0:19.465',1.12
'0:19.469',4.57
'0:19.473',7.31
'0:19.477',7.87
'0:19.480',6.07
'0:19.484',2.74
'0:19.488',-0.44
'0:19.492',-2.54
'0:19.496',-4.13
'0:19.500',-4.8
'0:19.504',-4.39
'0:19.508',-3.57
'0:19.512',-2.53
'0:19.516',-1.48
'0:19.520',-0.75
'0:19.523',-0.77
'0:19.527',-0.82
