'0:00.000',0.49
'0:00.004',0.27
'0:00.008',-0.41
'0:00.012',-0.58
'0:00.016',-0.38
'0:00.020',-0.18
'0:00.023',0.61
'0:00.027',1.65
'0:00.031',1.73
'0:00.035',0.98
'0:00.039',0.98
'0:00.043',1.66
'0:00.047',1.98
'0:00.051',1.59
'0:00.055',1.34
'0:00.059',1.48
'0:00.063',1.4
'0:00.066',0.72
'0:00.070',-0.34
'0:00.074',-0.83
'0:00.078',-0.81
'0:00.082',-0.84
'0:00.086',-1.43
'0:00.090',-2.04
'0:00.094',-1.81
'0:00.098',-1.65
'0:00.102',-1.49
'0:00.105',-1.48
'0:00.109',-1.58
'0:00.113',-1.76
'0:00.117',-2.03
'0:00.121',-2.16
'0:00.125',-2.56
'0:00.129',-2.96
'0:00.133',-2.89
'0:00.137',-2.02
'0:00.141',0.28
'0:00.145',3.85
'0:00.148',7.6
'0:00.152',10.89
'0:00.156',11.64
'0:00.160',9.63
'0:00.164',5.11
'0:00.168',0.09
'0:00.172',-3.33
'0:00.176',-5.11
'0:00.180',-5.95
'0:00.184',-5.86
'0:00.188',-5.08
'0:00.191',-4.03
'0:00.195',-2.92
'0:00.199',-2.13
'0:00.203',-1.73
'0:00.207',-1.24
'0:00.211',-0.63
'0:00.215',-0.29
'0:00.219',0.08
'0:00.223',0.46
'0:00.227',0.67
'0:00.230',1.34
'0:00.234',2.22
'0:00.238',2.5
'0:00.242',1.98
'0:00.246',1.84
'0:00.250',2.54
'0:00.254',2.97
'0:00.258',3.2
'0:00.262',3.2
'0:00.266',3.37
'0:00.270',3.98
'0:00.273',4.34
'0:00.277',4.25
'0:00.281',4.04
'0:00.285',3.64
'0:00.289',3.54
'0:00.293',3.06
'0:00.297',2.43
'0:00.301',1.71
'0:00.305',0.72
'0:00.309',-0.14
'0:00.313',-0.74
'0:00.316',-0.93
'0:00.320',-1.61
'0:00.324',-1.75
'0:00.328',-1.92
'0:00.332',-1.72
'0:00.336',-1.59
'0:00.340',-1.91
'0:00.344',-1.98
'0:00.348',-1.38
'0:00.352',-1.05
'0:00.355',-0.86
'0:00.359',-0.98
'0:00.363',-1.73
'0:00.367',-2.49
'0:00.371',-2.72
'0:00.375',-3
'0:00.379',-3.54
'0:00.383',-4.04
'0:00.387',-4.87
'0:00.391',-5.57
'0:00.395',-6.07
'0:00.398',-6.47
'0:00.402',-6
'0:00.406',-5.36
'0:00.410',-4.91
'0:00.414',-4.77
'0:00.418',-4.93
'0:00.422',-5.08
'0:00.426',-5.35
'0:00.430',-4.9
'0:00.434',-4.39
'0:00.438',-3.17
'0:00.441',-1.05
'0:00.445',2.31
'0:00.449',7.04
'0:00.453',11.16
'0:00.457',12.23
'0:00.461',9.95
'0:00.465',5.17
'0:00.469',-0.56
'0:00.473',-5.02
'0:00.477',-7.65
'0:00.480',-8.74
'0:00.484',-8.43
'0:00.488',-6.83
'0:00.492',-5.16
'0:00.496',-3.48
'0:00.500',-2.3
'0:00.504',-1.48
'0:00.508',-1.04
'0:00.512',-0.48
'0:00.516',0.29
'0:00.520',1.23
'0:00.523',1.99
'0:00.527',2.28
'0:00.531',2.23
'0:00.535',2.08
'0:00.539',2.18
'0:00.543',2.87
'0:00.547',3.56
'0:00.551',3.99
'0:00.555',3.68
'0:00.559',3.23
'0:00.563',3.26
'0:00.566',3.75
'0:00.570',4.83
'0:00.574',5.65
'0:00.578',5.73
'0:00.582',4.9
'0:00.586',4.21
'0:00.590',3.93
'0:00.594',3.64
'0:00.598',3.29
'0:00.602',2.59
'0:00.605',1.97
'0:00.609',1.52
'0:00.613',1.62
'0:00.617',1.55
'0:00.621',1.26
'0:00.625',0.84
'0:00.629',0.52
'0:00.633',0.13
'0:00.637',0.13
'0:00.641',0.07
'0:00.645',-0.41
'0:00.648',-0.5
'0:00.652',-0.22
'0:00.656',-0.4
'0:00.660',-0.83
'0:00.664',-1.08
'0:00.668',-1
'0:00.672',-1.06
'0:00.676',-1.61
'0:00.680',-2.14
'0:00.684',-2.65
'0:00.688',-3.1
'0:00.691',-3.51
'0:00.695',-3.91
'0:00.699',-4.15
'0:00.703',-4.81
'0:00.707',-5.36
'0:00.711',-5.09
'0:00.715',-4.8
'0:00.719',-4.48
'0:00.723',-3.73
'0:00.727',-3.15
'0:00.730',-2.9
'0:00.734',-2.79
'0:00.738',-2.04
'0:00.742',-0.25
'0:00.746',2.97
'0:00.750',7.01
'0:00.754',10.92
'0:00.758',12.69
'0:00.762',11
'0:00.766',7.71
'0:00.770',2.37
'0:00.773',-2.77
'0:00.777',-5.88
'0:00.781',-7.62
'0:00.785',-7.92
'0:00.789',-6.19
'0:00.793',-4.43
'0:00.797',-3.84
'0:00.801',-4.41
'0:00.805',-4.78
'0:00.809',-4.03
'0:00.813',-3.07
'0:00.816',-2.39
'0:00.820',-1.68
'0:00.824',-1.35
'0:00.828',-1.39
'0:00.832',-1.78
'0:00.836',-2.2
'0:00.840',-1.81
'0:00.844',-0.15
'0:00.848',1.77
'0:00.852',2.67
'0:00.855',2.64
'0:00.859',3
'0:00.863',3.52
'0:00.867',3.77
'0:00.871',3.74
'0:00.875',3.48
'0:00.879',3.23
'0:00.883',3.13
'0:00.887',3.07
'0:00.891',3.09
'0:00.895',2.87
'0:00.898',2
'0:00.902',0.45
'0:00.906',-0.09
'0:00.910',0.04
'0:00.914',0.48
'0:00.918',0.75
'0:00.922',0.5
'0:00.926',0.25
'0:00.930',0.45
'0:00.934',0.82
'0:00.938',1.02
'0:00.941',1.12
'0:00.945',1.05
'0:00.949',1.02
'0:00.953',1.42
'0:00.957',1.98
'0:00.961',2.22
'0:00.965',2.06
'0:00.969',1.44
'0:00.973',0.77
'0:00.977',0.61
'0:00.980',0.57
'0:00.984',0.54
'0:00.988',0.23
'0:00.992',0.05
'0:00.996',0.04
'0:01.000',-0.37
'0:01.004',-0.84
'0:01.008',-1.23
'0:01.012',-1.36
'0:01.016',-1.24
'0:01.020',-1.1
'0:01.023',-0.92
'0:01.027',-1.17
'0:01.031',-1.73
'0:01.035',-2.11
'0:01.039',-1.36
'0:01.043',0.82
'0:01.047',4.25
'0:01.051',8.08
'0:01.055',11.64
'0:01.059',12.76
'0:01.063',10.62
'0:01.066',5.85
'0:01.070',-0.17
'0:01.074',-4.36
'0:01.078',-6.93
'0:01.082',-8.31
'0:01.086',-8.44
'0:01.090',-7.12
'0:01.094',-5.12
'0:01.098',-3.8
'0:01.102',-3.23
'0:01.105',-3.05
'0:01.109',-2.58
'0:01.113',-1.66
'0:01.117',-1.39
'0:01.121',-1.04
'0:01.125',-0.7
'0:01.129',-0.65
'0:01.133',-0.76
'0:01.137',-0.31
'0:01.141',0.16
'0:01.145',0.08
'0:01.148',-0.13
'0:01.152',-0.01
'0:01.156',0.48
'0:01.160',0.95
'0:01.164',1.48
'0:01.168',1.96
'0:01.172',2.26
'0:01.176',2.34
'0:01.180',2.56
'0:01.184',2.28
'0:01.188',1.66
'0:01.191',1.82
'0:01.195',2.08
'0:01.199',1.55
'0:01.203',-0.03
'0:01.207',-1.57
'0:01.211',-2.7
'0:01.215',-2.36
'0:01.219',-2.5
'0:01.223',-3.42
'0:01.227',-3.91
'0:01.230',-3.69
'0:01.234',-3.42
'0:01.238',-2.98
'0:01.242',-2.38
'0:01.246',-2.33
'0:01.250',-2.19
'0:01.254',-2.06
'0:01.258',-1.51
'0:01.262',-0.98
'0:01.266',0.12
'0:01.270',-0.16
'0:01.273',-1.17
'0:01.277',-2.07
'0:01.281',-2.42
'0:01.285',-2.39
'0:01.289',-2.45
'0:01.293',-2.69
'0:01.297',-2.59
'0:01.301',-2.25
'0:01.305',-1.95
'0:01.309',-1.79
'0:01.313',-1.79
'0:01.316',-2.03
'0:01.320',-2.05
'0:01.324',-1.88
'0:01.328',-1.92
'0:01.332',-1.95
'0:01.336',-1.88
'0:01.340',-1.18
'0:01.344',0.55
'0:01.348',3.36
'0:01.352',6.77
'0:01.355',10.51
'0:01.359',13.36
'0:01.363',13.24
'0:01.367',9.84
'0:01.371',4.5
'0:01.375',-0.53
'0:01.379',-4.32
'0:01.383',-6.51
'0:01.387',-7.32
'0:01.391',-6.65
'0:01.395',-5.28
'0:01.398',-4.28
'0:01.402',-3.46
'0:01.406',-2.48
'0:01.410',-1.34
'0:01.414',-0.66
'0:01.418',-0.18
'0:01.422',0.12
'0:01.426',0.2
'0:01.430',0.48
'0:01.434',0.22
'0:01.438',0.1
'0:01.441',0.52
'0:01.445',1.3
'0:01.449',1.59
'0:01.453',1.55
'0:01.457',1.98
'0:01.461',2.44
'0:01.465',2.77
'0:01.469',3.09
'0:01.473',3.36
'0:01.477',2.97
'0:01.480',2.48
'0:01.484',2.35
'0:01.488',2.11
'0:01.492',1.4
'0:01.496',1.03
'0:01.500',1.14
'0:01.504',1.18
'0:01.508',0.8
'0:01.512',0.17
'0:01.516',-0.79
'0:01.520',-1.65
'0:01.523',-2.06
'0:01.527',-2.12
'0:01.531',-1.87
'0:01.535',-2.22
'0:01.539',-2.1
'0:01.543',-0.96
'0:01.547',-0.08
'0:01.551',0.01
'0:01.555',-0.07
'0:01.559',-0.1
'0:01.563',0.07
'0:01.566',0.1
'0:01.570',0.08
'0:01.574',-0.17
'0:01.578',-0.63
'0:01.582',-1.03
'0:01.586',-1.08
'0:01.590',-1.23
'0:01.594',-1.48
'0:01.598',-2.12
'0:01.602',-2.48
'0:01.605',-2.33
'0:01.609',-1.78
'0:01.613',-0.99
'0:01.617',-0.18
'0:01.621',0.01
'0:01.625',-1.31
'0:01.629',-2.17
'0:01.633',-2.24
'0:01.637',-2.36
'0:01.641',-1.71
'0:01.645',-0.68
'0:01.648',1.25
'0:01.652',4.29
'0:01.656',7.87
'0:01.660',10.46
'0:01.664',10.62
'0:01.668',7.9
'0:01.672',3.42
'0:01.676',-0.94
'0:01.680',-4.44
'0:01.684',-7.2
'0:01.688',-7.88
'0:01.691',-6.5
'0:01.695',-4.93
'0:01.699',-4.06
'0:01.703',-3.57
'0:01.707',-2.97
'0:01.711',-1.77
'0:01.715',-0.79
'0:01.719',-0.85
'0:01.723',-1.49
'0:01.727',-1.84
'0:01.730',-1.78
'0:01.734',-1.56
'0:01.738',-1.69
'0:01.742',-1.93
'0:01.746',-1.75
'0:01.750',-1.38
'0:01.754',-0.38
'0:01.758',0.84
'0:01.762',1.88
'0:01.766',2.77
'0:01.770',3.47
'0:01.773',3.85
'0:01.777',3.9
'0:01.781',3.88
'0:01.785',3.43
'0:01.789',2.57
'0:01.793',1.83
'0:01.797',1.34
'0:01.801',1.31
'0:01.805',1.36
'0:01.809',1.28
'0:01.813',1.13
'0:01.816',1.08
'0:01.820',1.16
'0:01.824',1.36
'0:01.828',1.44
'0:01.832',1.88
'0:01.836',2.31
'0:01.840',2.3
'0:01.844',2.24
'0:01.848',2.55
'0:01.852',3.03
'0:01.855',3.01
'0:01.859',2.83
'0:01.863',3.02
'0:01.867',3.1
'0:01.871',2.91
'0:01.875',2.57
'0:01.879',1.75
'0:01.883',0.62
'0:01.887',-0.08
'0:01.891',-0.5
'0:01.895',-0.67
'0:01.898',-0.78
'0:01.902',-1.28
'0:01.906',-2.12
'0:01.910',-2.22
'0:01.914',-2.45
'0:01.918',-2.58
'0:01.922',-2.49
'0:01.926',-2.34
'0:01.930',-2.83
'0:01.934',-3.88
'0:01.938',-4.4
'0:01.941',-3.58
'0:01.945',-1.64
'0:01.949',1.55
'0:01.953',5.45
'0:01.957',9.28
'0:01.961',11.28
'0:01.965',10.13
'0:01.969',5.62
'0:01.973',-0.61
'0:01.977',-5.22
'0:01.980',-8.34
'0:01.984',-10.45
'0:01.988',-11.12
'0:01.992',-10.35
'0:01.996',-8.41
'0:02.000',-6.44
'0:02.004',-5.29
'0:02.008',-4.48
'0:02.012',-3.84
'0:02.016',-2.85
'0:02.020',-2.26
'0:02.023',-2.35
'0:02.027',-1.84
'0:02.031',-1.63
'0:02.035',-1.73
'0:02.039',-1.61
'0:02.043',-1.62
'0:02.047',-1.79
'0:02.051',-1.53
'0:02.055',-1.11
'0:02.059',-1.02
'0:02.063',-0.32
'0:02.066',0.86
'0:02.070',1.83
'0:02.074',2.6
'0:02.078',3.32
'0:02.082',3.61
'0:02.086',3.4
'0:02.090',3.27
'0:02.094',3.34
'0:02.098',3.25
'0:02.102',2.96
'0:02.105',2.95
'0:02.109',2.58
'0:02.113',1.64
'0:02.117',0.59
'0:02.121',0.11
'0:02.125',0.14
'0:02.129',0.59
'0:02.133',1.22
'0:02.137',1.79
'0:02.141',2.19
'0:02.145',2.36
'0:02.148',2.31
'0:02.152',2.43
'0:02.156',2.56
'0:02.160',2.42
'0:02.164',2.17
'0:02.168',1.96
'0:02.172',1.91
'0:02.176',1.7
'0:02.180',1.22
'0:02.184',0.71
'0:02.188',0.3
'0:02.191',-0.24
'0:02.195',-0.74
'0:02.199',-0.85
'0:02.203',-1.15
'0:02.207',-1.51
'0:02.211',-1.63
'0:02.215',-1.54
'0:02.219',-1.52
'0:02.223',-1.54
'0:02.227',-1.21
'0:02.230',-1.13
'0:02.234',-1.72
'0:02.238',-2.43
'0:02.242',-2.19
'0:02.246',-0.87
'0:02.250',1.06
'0:02.254',4.16
'0:02.258',7.93
'0:02.262',10.78
'0:02.266',11.29
'0:02.270',8.79
'0:02.273',4.27
'0:02.277',-0.39
'0:02.281',-3.58
'0:02.285',-5.71
'0:02.289',-6.88
'0:02.293',-7.14
'0:02.297',-6.95
'0:02.301',-6.24
'0:02.305',-5.17
'0:02.309',-4.24
'0:02.313',-3.43
'0:02.316',-2.65
'0:02.320',-2.26
'0:02.324',-2.28
'0:02.328',-2.52
'0:02.332',-2.98
'0:02.336',-3.35
'0:02.340',-3.62
'0:02.344',-3.15
'0:02.348',-1.88
'0:02.352',-1.27
'0:02.355',-1.51
'0:02.359',-1.3
'0:02.363',-0.89
'0:02.367',-0.51
'0:02.371',-0.38
'0:02.375',-0.45
'0:02.379',0.19
'0:02.383',1.45
'0:02.387',1.84
'0:02.391',1.46
'0:02.395',1.3
'0:02.398',1.28
'0:02.402',0.86
'0:02.406',0.4
'0:02.410',0.74
'0:02.414',1.1
'0:02.418',1.19
'0:02.422',1.57
'0:02.426',1.67
'0:02.430',1.1
'0:02.434',0.5
'0:02.438',0.51
'0:02.441',0.96
'0:02.445',1.59
'0:02.449',2.18
'0:02.453',2.77
'0:02.457',2.49
'0:02.461',1.49
'0:02.465',1.21
'0:02.469',1.18
'0:02.473',0.7
'0:02.477',-0.37
'0:02.480',-0.78
'0:02.484',0.3
'0:02.488',0.9
'0:02.492',0.66
'0:02.496',-0.18
'0:02.500',-1.11
'0:02.504',-1.94
'0:02.508',-2.79
'0:02.512',-3.01
'0:02.516',-2.22
'0:02.520',-1.38
'0:02.523',-1.08
'0:02.527',-1.28
'0:02.531',-2.13
'0:02.535',-2.8
'0:02.539',-2.83
'0:02.543',-2.77
'0:02.547',-2.23
'0:02.551',0.18
'0:02.555',3.47
'0:02.559',7.18
'0:02.563',10.61
'0:02.566',11.31
'0:02.570',8.71
'0:02.574',3.78
'0:02.578',-1.88
'0:02.582',-6.13
'0:02.586',-8.38
'0:02.590',-8.54
'0:02.594',-7.59
'0:02.598',-6.48
'0:02.602',-5.82
'0:02.605',-5.44
'0:02.609',-5.17
'0:02.613',-4.55
'0:02.617',-3.5
'0:02.621',-2.25
'0:02.625',-1.57
'0:02.629',-1.22
'0:02.633',-0.96
'0:02.637',-0.66
'0:02.641',-0.38
'0:02.645',0.43
'0:02.648',1.39
'0:02.652',2.15
'0:02.656',2.97
'0:02.660',3.9
'0:02.664',4.36
'0:02.668',4.37
'0:02.672',4.43
'0:02.676',4.75
'0:02.680',4.77
'0:02.684',4.46
'0:02.688',3.82
'0:02.691',3.41
'0:02.695',3.29
'0:02.699',3.26
'0:02.703',3.48
'0:02.707',3.02
'0:02.711',2.78
'0:02.715',2.61
'0:02.719',1.81
'0:02.723',1.08
'0:02.727',0.5
'0:02.730',0.11
'0:02.734',0.14
'0:02.738',0.36
'0:02.742',0.57
'0:02.746',0.8
'0:02.750',1.14
'0:02.754',1.18
'0:02.758',0.89
'0:02.762',0.97
'0:02.766',1.3
'0:02.770',0.81
'0:02.773',0.16
'0:02.777',-0.12
'0:02.781',-0.87
'0:02.785',-1.81
'0:02.789',-2.41
'0:02.793',-2.09
'0:02.797',-2.61
'0:02.801',-3.29
'0:02.805',-4.02
'0:02.809',-4.31
'0:02.813',-4.35
'0:02.816',-4.5
'0:02.820',-4.61
'0:02.824',-5.35
'0:02.828',-4.98
'0:02.832',-5.27
'0:02.836',-5.11
'0:02.840',-4.77
'0:02.844',-4.9
'0:02.848',-3.69
'0:02.852',-1.05
'0:02.855',2.43
'0:02.859',6.52
'0:02.863',8.72
'0:02.867',8.15
'0:02.871',5.08
'0:02.875',0.41
'0:02.879',-4.04
'0:02.883',-7.59
'0:02.887',-9.95
'0:02.891',-11.12
'0:02.895',-10.8
'0:02.898',-9.22
'0:02.902',-7.37
'0:02.906',-5.42
'0:02.910',-4.22
'0:02.914',-3.34
'0:02.918',-2.56
'0:02.922',-1.59
'0:02.926',-0.61
'0:02.930',0.04
'0:02.934',0.11
'0:02.938',0.42
'0:02.941',1.1
'0:02.945',2.04
'0:02.949',3
'0:02.953',3.92
'0:02.957',4.85
'0:02.961',5.58
'0:02.965',6.11
'0:02.969',6.36
'0:02.973',6.44
'0:02.977',6.6
'0:02.980',6.94
'0:02.984',7.49
'0:02.988',7.98
'0:02.992',8.07
'0:02.996',7.86
'0:03.000',7.45
'0:03.004',6.54
'0:03.008',5.73
'0:03.012',5.18
'0:03.016',4.67
'0:03.020',4.22
'0:03.023',3.67
'0:03.027',3.02
'0:03.031',2.53
'0:03.035',2.3
'0:03.039',2.17
'0:03.043',2.32
'0:03.047',2.23
'0:03.051',2.19
'0:03.055',2.26
'0:03.059',2.27
'0:03.063',2.38
'0:03.066',2.72
'0:03.070',2.92
'0:03.074',2.89
'0:03.078',2.33
'0:03.082',1.38
'0:03.086',0.5
'0:03.090',-0.55
'0:03.094',-1.53
'0:03.098',-2.24
'0:03.102',-3.09
'0:03.105',-3.73
'0:03.109',-4.18
'0:03.113',-4.28
'0:03.117',-4.15
'0:03.121',-4.26
'0:03.125',-4.38
'0:03.129',-4.43
'0:03.133',-4.39
'0:03.137',-4.22
'0:03.141',-3.99
'0:03.145',-3.55
'0:03.148',-2.76
'0:03.152',-0.97
'0:03.156',1.73
'0:03.160',5.17
'0:03.164',8.55
'0:03.168',9.96
'0:03.172',7.96
'0:03.176',3.53
'0:03.180',-1.34
'0:03.184',-5.03
'0:03.188',-7.68
'0:03.191',-9.01
'0:03.195',-8.67
'0:03.199',-7.24
'0:03.203',-6.02
'0:03.207',-4.82
'0:03.211',-3.45
'0:03.215',-2.07
'0:03.219',-1.58
'0:03.223',-2.33
'0:03.227',-3.07
'0:03.230',-3.28
'0:03.234',-3.13
'0:03.238',-2.86
'0:03.242',-2.26
'0:03.246',-1.8
'0:03.250',-1.5
'0:03.254',-1.52
'0:03.258',-1.91
'0:03.262',-1.92
'0:03.266',-1.53
'0:03.270',-1.13
'0:03.273',-0.7
'0:03.277',-0.17
'0:03.281',0.16
'0:03.285',0.5
'0:03.289',1.05
'0:03.293',1.62
'0:03.297',1.58
'0:03.301',0.66
'0:03.305',0.41
'0:03.309',0.65
'0:03.313',0.5
'0:03.316',0.07
'0:03.320',-0.58
'0:03.324',-1.13
'0:03.328',-1.03
'0:03.332',-0.6
'0:03.336',-0.46
'0:03.340',-0.57
'0:03.344',-0.54
'0:03.348',-0.34
'0:03.352',0.01
'0:03.355',0.71
'0:03.359',1.45
'0:03.363',1.92
'0:03.367',2.12
'0:03.371',1.98
'0:03.375',1.69
'0:03.379',1.52
'0:03.383',1.16
'0:03.387',0.33
'0:03.391',-0.77
'0:03.395',-1.58
'0:03.398',-2.15
'0:03.402',-2.54
'0:03.406',-2.77
'0:03.410',-2.54
'0:03.414',-2.31
'0:03.418',-2.22
'0:03.422',-2.26
'0:03.426',-2.2
'0:03.430',-1.89
'0:03.434',-1.61
'0:03.438',-1.54
'0:03.441',-1.21
'0:03.445',-0.95
'0:03.449',-0.57
'0:03.453',0.74
'0:03.457',3.69
'0:03.461',7.49
'0:03.465',11.13
'0:03.469',12.94
'0:03.473',11.95
'0:03.477',7.98
'0:03.480',2.5
'0:03.484',-2.25
'0:03.488',-5.51
'0:03.492',-6.98
'0:03.496',-7.33
'0:03.500',-6.78
'0:03.504',-5.22
'0:03.508',-3.45
'0:03.512',-2.12
'0:03.516',-1.51
'0:03.520',-1.08
'0:03.523',-0.85
'0:03.527',-0.99
'0:03.531',-0.72
'0:03.535',-0.37
'0:03.539',-0.33
'0:03.543',-0.36
'0:03.547',0.11
'0:03.551',0.42
'0:03.555',0.23
'0:03.559',0.48
'0:03.563',1.05
'0:03.566',1.48
'0:03.570',1.86
'0:03.574',3.09
'0:03.578',3.85
'0:03.582',3.48
'0:03.586',2.88
'0:03.590',1.93
'0:03.594',2.45
'0:03.598',3.7
'0:03.602',3.96
'0:03.605',3.6
'0:03.609',3.4
'0:03.613',2.62
'0:03.617',1.55
'0:03.621',0.47
'0:03.625',0.46
'0:03.629',0.05
'0:03.633',-0.26
'0:03.637',-0.31
'0:03.641',0.37
'0:03.645',0.11
'0:03.648',-0.62
'0:03.652',-0.58
'0:03.656',-0.78
'0:03.660',-0.61
'0:03.664',-0.29
'0:03.668',-0.87
'0:03.672',-1.1
'0:03.676',-0.33
'0:03.680',0.14
'0:03.684',0.08
'0:03.688',-0.37
'0:03.691',-1.02
'0:03.695',-1.38
'0:03.699',-1.32
'0:03.703',-1.29
'0:03.707',-1.8
'0:03.711',-2.51
'0:03.715',-2.84
'0:03.719',-2.92
'0:03.723',-2.84
'0:03.727',-2.7
'0:03.730',-2.51
'0:03.734',-2.32
'0:03.738',-2.19
'0:03.742',-2.02
'0:03.746',-1.53
'0:03.750',-0.26
'0:03.754',2.33
'0:03.758',5.93
'0:03.762',9.83
'0:03.766',12.59
'0:03.770',12.52
'0:03.773',9.45
'0:03.777',4.31
'0:03.781',-1.07
'0:03.785',-4.95
'0:03.789',-6.98
'0:03.793',-7.5
'0:03.797',-7.03
'0:03.801',-5.98
'0:03.805',-4.62
'0:03.809',-3.27
'0:03.813',-2.24
'0:03.816',-1.48
'0:03.820',-1.05
'0:03.824',-0.62
'0:03.828',-0.23
'0:03.832',0.05
'0:03.836',0.36
'0:03.840',0.8
'0:03.844',0.95
'0:03.848',1
'0:03.852',1.4
'0:03.855',1.92
'0:03.859',2.62
'0:03.863',3.52
'0:03.867',4.25
'0:03.871',4.86
'0:03.875',4.93
'0:03.879',4.81
'0:03.883',4.72
'0:03.887',4.18
'0:03.891',3.93
'0:03.895',4.14
'0:03.898',4.22
'0:03.902',3.78
'0:03.906',3.19
'0:03.910',2.51
'0:03.914',1.63
'0:03.918',0.95
'0:03.922',0.38
'0:03.926',0.23
'0:03.930',0.23
'0:03.934',0.12
'0:03.938',-0.11
'0:03.941',-0.24
'0:03.945',-0.28
'0:03.949',-0.34
'0:03.953',-0.32
'0:03.957',-0.26
'0:03.961',-0.24
'0:03.965',-0.05
'0:03.969',0.19
'0:03.973',0.57
'0:03.977',0.64
'0:03.980',0.45
'0:03.984',0.18
'0:03.988',-0.06
'0:03.992',-0.77
'0:03.996',-1.26
'0:04.000',-1.3
'0:04.004',-1.71
'0:04.008',-2.13
'0:04.012',-2.54
'0:04.016',-2.87
'0:04.020',-3.25
'0:04.023',-3.74
'0:04.027',-3.87
'0:04.031',-3.98
'0:04.035',-4.68
'0:04.039',-5.18
'0:04.043',-5.12
'0:04.047',-4.4
'0:04.051',-3.55
'0:04.055',-2.53
'0:04.059',-0.4
'0:04.063',2.98
'0:04.066',7
'0:04.070',9.92
'0:04.074',10.08
'0:04.078',7.14
'0:04.082',1.46
'0:04.086',-3.93
'0:04.090',-7.43
'0:04.094',-9.53
'0:04.098',-10.57
'0:04.102',-10.62
'0:04.105',-9.62
'0:04.109',-8
'0:04.113',-6.44
'0:04.117',-5.26
'0:04.121',-4.3
'0:04.125',-3.66
'0:04.129',-3.18
'0:04.133',-2.99
'0:04.137',-2.95
'0:04.141',-2.97
'0:04.145',-2.85
'0:04.148',-2.94
'0:04.152',-3.02
'0:04.156',-2.71
'0:04.160',-1.97
'0:04.164',-1.01
'0:04.168',-0.18
'0:04.172',0.54
'0:04.176',1.16
'0:04.180',1.6
'0:04.184',2.07
'0:04.188',2.5
'0:04.191',2.65
'0:04.195',2.48
'0:04.199',2.51
'0:04.203',2.44
'0:04.207',1.94
'0:04.211',1.29
'0:04.215',0.53
'0:04.219',-0.08
'0:04.223',-0.31
'0:04.227',0.23
'0:04.230',0.81
'0:04.234',1.12
'0:04.238',1.51
'0:04.242',1.52
'0:04.246',1.35
'0:04.250',1.63
'0:04.254',2.23
'0:04.258',2.65
'0:04.262',2.64
'0:04.266',2.72
'0:04.270',3.12
'0:04.273',3.36
'0:04.277',3.3
'0:04.281',2.89
'0:04.285',2.53
'0:04.289',2.13
'0:04.293',1.55
'0:04.297',0.96
'0:04.301',0.55
'0:04.305',-0.05
'0:04.309',-0.55
'0:04.313',-1.06
'0:04.316',-1.12
'0:04.320',-1.01
'0:04.324',-1.57
'0:04.328',-1.72
'0:04.332',-1.57
'0:04.336',-1.4
'0:04.340',-2.55
'0:04.344',-3.7
'0:04.348',-4.33
'0:04.352',-3.71
'0:04.355',-2.1
'0:04.359',1.31
'0:04.363',5.29
'0:04.367',9.14
'0:04.371',11.4
'0:04.375',10.85
'0:04.379',6.67
'0:04.383',1.29
'0:04.387',-3.45
'0:04.391',-6.93
'0:04.395',-9.2
'0:04.398',-9.34
'0:04.402',-8.9
'0:04.406',-7.79
'0:04.410',-6.29
'0:04.414',-4.06
'0:04.418',-3.11
'0:04.422',-2.54
'0:04.426',-1.96
'0:04.430',-1.75
'0:04.434',-1.48
'0:04.438',-1.6
'0:04.441',-0.98
'0:04.445',-0.21
'0:04.449',0.05
'0:04.453',0.01
'0:04.457',-0.69
'0:04.461',-0.78
'0:04.465',0.06
'0:04.469',1.89
'0:04.473',3.71
'0:04.477',4.67
'0:04.480',4.9
'0:04.484',5.59
'0:04.488',6.14
'0:04.492',5.97
'0:04.496',5.28
'0:04.500',4.55
'0:04.504',4.13
'0:04.508',3.55
'0:04.512',2.86
'0:04.516',2.87
'0:04.520',2.86
'0:04.523',2.64
'0:04.527',2.4
'0:04.531',2.41
'0:04.535',2.34
'0:04.539',1.93
'0:04.543',1.57
'0:04.547',1.25
'0:04.551',0.95
'0:04.555',1
'0:04.559',1.43
'0:04.563',1.94
'0:04.566',2.17
'0:04.570',2.41
'0:04.574',2.59
'0:04.578',2.5
'0:04.582',2.04
'0:04.586',1.16
'0:04.590',0.28
'0:04.594',-0.17
'0:04.598',-0.58
'0:04.602',-1.01
'0:04.605',-1.52
'0:04.609',-2.29
'0:04.613',-2.66
'0:04.617',-2.58
'0:04.621',-2.68
'0:04.625',-3.2
'0:04.629',-3.79
'0:04.633',-3.9
'0:04.637',-3.76
'0:04.641',-3.42
'0:04.645',-2.73
'0:04.648',-2.03
'0:04.652',-0.89
'0:04.656',1.24
'0:04.660',4.39
'0:04.664',8.4
'0:04.668',11.61
'0:04.672',11.42
'0:04.676',7.8
'0:04.680',2.49
'0:04.684',-2.71
'0:04.688',-6.39
'0:04.691',-8.69
'0:04.695',-9.73
'0:04.699',-9.24
'0:04.703',-7.66
'0:04.707',-6.23
'0:04.711',-4.7
'0:04.715',-3.47
'0:04.719',-2.62
'0:04.723',-2.13
'0:04.727',-1.83
'0:04.730',-1.54
'0:04.734',-1.29
'0:04.738',-1.12
'0:04.742',-1.07
'0:04.746',-0.81
'0:04.750',-0.56
'0:04.754',-0.46
'0:04.758',0
'0:04.762',0.22
'0:04.766',0.41
'0:04.770',0.45
'0:04.773',0.71
'0:04.777',1.84
'0:04.781',2.94
'0:04.785',3.61
'0:04.789',4.17
'0:04.793',4.36
'0:04.797',4.72
'0:04.801',4.8
'0:04.805',4.37
'0:04.809',3.62
'0:04.813',2.91
'0:04.816',2.16
'0:04.820',1.54
'0:04.824',0.88
'0:04.828',-0.25
'0:04.832',-0.94
'0:04.836',-1.06
'0:04.840',-1.07
'0:04.844',-1.02
'0:04.848',-1.11
'0:04.852',-1.11
'0:04.855',-0.59
'0:04.859',-0.06
'0:04.863',0.03
'0:04.867',0.27
'0:04.871',0.69
'0:04.875',0.73
'0:04.879',0.33
'0:04.883',-0.19
'0:04.887',-0.6
'0:04.891',-1.09
'0:04.895',-1.53
'0:04.898',-2.31
'0:04.902',-3.01
'0:04.906',-3.52
'0:04.910',-3.54
'0:04.914',-3.4
'0:04.918',-3.74
'0:04.922',-4.54
'0:04.926',-5.25
'0:04.930',-5.09
'0:04.934',-4.63
'0:04.938',-4.53
'0:04.941',-4.86
'0:04.945',-4.51
'0:04.949',-3.94
'0:04.953',-3.27
'0:04.957',-1.79
'0:04.961',0.91
'0:04.965',4.27
'0:04.969',7.87
'0:04.973',10.1
'0:04.977',9.41
'0:04.980',5.86
'0:04.984',0.63
'0:04.988',-4.13
'0:04.992',-7.23
'0:04.996',-9
'0:05.000',-9.51
'0:05.004',-8.34
'0:05.008',-6.3
'0:05.012',-4.57
'0:05.016',-3.37
'0:05.020',-2.64
'0:05.023',-2.45
'0:05.027',-2.05
'0:05.031',-1.39
'0:05.035',-0.88
'0:05.039',-0.39
'0:05.043',0.08
'0:05.047',0.37
'0:05.051',0.56
'0:05.055',0.49
'0:05.059',0.83
'0:05.063',1.75
'0:05.066',2.55
'0:05.070',3.14
'0:05.074',3.92
'0:05.078',4.63
'0:05.082',4.66
'0:05.086',4.17
'0:05.090',3.81
'0:05.094',3.61
'0:05.098',3.4
'0:05.102',3.39
'0:05.105',3.34
'0:05.109',3.07
'0:05.113',2.74
'0:05.117',2.48
'0:05.121',2.1
'0:05.125',1.23
'0:05.129',1.25
'0:05.133',1.15
'0:05.137',0.54
'0:05.141',-0.05
'0:05.145',-0.68
'0:05.148',-0.82
'0:05.152',-0.44
'0:05.156',-0.2
'0:05.160',0.13
'0:05.164',0.91
'0:05.168',1.66
'0:05.172',2.12
'0:05.176',1.61
'0:05.180',-0.02
'0:05.184',-1.32
'0:05.188',-1.97
'0:05.191',-2.42
'0:05.195',-2.56
'0:05.199',-2.85
'0:05.203',-3.02
'0:05.207',-2.93
'0:05.211',-3.25
'0:05.215',-3.6
'0:05.219',-3.57
'0:05.223',-3.36
'0:05.227',-3.48
'0:05.230',-3.52
'0:05.234',-3.46
'0:05.238',-3.67
'0:05.242',-3.05
'0:05.246',-2.51
'0:05.250',-2.36
'0:05.254',-1.9
'0:05.258',-0.81
'0:05.262',0.95
'0:05.266',4.06
'0:05.270',7.93
'0:05.273',10.62
'0:05.277',10.67
'0:05.281',8.33
'0:05.285',4.05
'0:05.289',-0.3
'0:05.293',-3.74
'0:05.297',-5.52
'0:05.301',-5.94
'0:05.305',-5.23
'0:05.309',-3.92
'0:05.313',-2.75
'0:05.316',-2.43
'0:05.320',-1.85
'0:05.324',-0.75
'0:05.328',0.15
'0:05.332',0.59
'0:05.336',0.95
'0:05.340',1.03
'0:05.344',0.89
'0:05.348',1.05
'0:05.352',1.25
'0:05.355',1.25
'0:05.359',1.37
'0:05.363',1.75
'0:05.367',2.2
'0:05.371',2.49
'0:05.375',2.76
'0:05.379',3.18
'0:05.383',3.73
'0:05.387',4.29
'0:05.391',4.85
'0:05.395',5.07
'0:05.398',5.05
'0:05.402',4.88
'0:05.406',4.71
'0:05.410',4.58
'0:05.414',4.32
'0:05.418',3.82
'0:05.422',3.13
'0:05.426',2.43
'0:05.430',1.98
'0:05.434',1.57
'0:05.438',1.42
'0:05.441',1.25
'0:05.445',1.26
'0:05.449',1.17
'0:05.453',0.88
'0:05.457',0.88
'0:05.461',1.15
'0:05.465',1.33
'0:05.469',1.54
'0:05.473',1.63
'0:05.477',1.34
'0:05.480',0.83
'0:05.484',0.35
'0:05.488',-0.04
'0:05.492',-0.68
'0:05.496',-1.49
'0:05.500',-2.5
'0:05.504',-3.11
'0:05.508',-3.31
'0:05.512',-3.65
'0:05.516',-3.55
'0:05.520',-3.19
'0:05.523',-2.96
'0:05.527',-3.02
'0:05.531',-3.48
'0:05.535',-3.6
'0:05.539',-4.08
'0:05.543',-4.58
'0:05.547',-4.63
'0:05.551',-4.33
'0:05.555',-3.27
'0:05.559',-1.2
'0:05.563',1.94
'0:05.566',5.54
'0:05.570',9.52
'0:05.574',10.83
'0:05.578',8.8
'0:05.582',4.54
'0:05.586',-0.47
'0:05.590',-4.17
'0:05.594',-6.65
'0:05.598',-7.92
'0:05.602',-8.02
'0:05.605',-6.99
'0:05.609',-5.47
'0:05.613',-3.92
'0:05.617',-3.14
'0:05.621',-3.23
'0:05.625',-2.98
'0:05.629',-2.88
'0:05.633',-2.48
'0:05.637',-1.92
'0:05.641',-1.55
'0:05.645',-1.04
'0:05.648',-0.77
'0:05.652',-0.66
'0:05.656',-0.16
'0:05.660',0.28
'0:05.664',0.69
'0:05.668',1.23
'0:05.672',1.68
'0:05.676',1.91
'0:05.680',2.15
'0:05.684',2.47
'0:05.688',3.07
'0:05.691',3.38
'0:05.695',3.54
'0:05.699',3.58
'0:05.703',3.39
'0:05.707',2.73
'0:05.711',1.93
'0:05.715',1.63
'0:05.719',1.17
'0:05.723',0.41
'0:05.727',-0.34
'0:05.730',-1.16
'0:05.734',-1.24
'0:05.738',-1.24
'0:05.742',-1.33
'0:05.746',-1.14
'0:05.750',-1.27
'0:05.754',-1.68
'0:05.758',-1.88
'0:05.762',-1.84
'0:05.766',-1.28
'0:05.770',-0.94
'0:05.773',-0.55
'0:05.777',0.05
'0:05.781',0.22
'0:05.785',-0.21
'0:05.789',-0.7
'0:05.793',-1.02
'0:05.797',-1.51
'0:05.801',-2.01
'0:05.805',-2.51
'0:05.809',-3.19
'0:05.813',-3.45
'0:05.816',-3.38
'0:05.820',-3.11
'0:05.824',-2.72
'0:05.828',-2.6
'0:05.832',-2.71
'0:05.836',-2.64
'0:05.840',-2.33
'0:05.844',-2.19
'0:05.848',-2.48
'0:05.852',-2.43
'0:05.855',-1.76
'0:05.859',-0.29
'0:05.863',2.35
'0:05.867',5.86
'0:05.871',9.7
'0:05.875',12.65
'0:05.879',12.8
'0:05.883',10.17
'0:05.887',5.37
'0:05.891',0.2
'0:05.895',-3.36
'0:05.898',-5.4
'0:05.902',-6.74
'0:05.906',-7.02
'0:05.910',-6.06
'0:05.914',-4.8
'0:05.918',-3.7
'0:05.922',-3.1
'0:05.926',-2.28
'0:05.930',-1.48
'0:05.934',-0.87
'0:05.938',-0.42
'0:05.941',-0.68
'0:05.945',-0.68
'0:05.949',-0.45
'0:05.953',-0.19
'0:05.957',-0.19
'0:05.961',-0.35
'0:05.965',0.06
'0:05.969',0.31
'0:05.973',1.01
'0:05.977',1.44
'0:05.980',1.86
'0:05.984',2.4
'0:05.988',2.47
'0:05.992',2.82
'0:05.996',3.8
'0:06.000',2.8
'0:06.004',1.24
'0:06.008',0.86
'0:06.012',0.91
'0:06.016',1.03
'0:06.020',0.66
'0:06.023',0.68
'0:06.027',0.34
'0:06.031',0.06
'0:06.035',-0.07
'0:06.039',-0.79
'0:06.043',-1.71
'0:06.047',-1.35
'0:06.051',-0.07
'0:06.055',1.34
'0:06.059',2.04
'0:06.063',1.99
'0:06.066',1.09
'0:06.070',0.54
'0:06.074',1.01
'0:06.078',1.44
'0:06.082',1.31
'0:06.086',0.5
'0:06.090',-0.06
'0:06.094',-0.07
'0:06.098',-0.05
'0:06.102',-0.27
'0:06.105',-0.67
'0:06.109',-1.17
'0:06.113',-1.44
'0:06.117',-1.57
'0:06.121',-1.58
'0:06.125',-1.43
'0:06.129',-0.93
'0:06.133',-0.71
'0:06.137',-0.83
'0:06.141',-1.34
'0:06.145',-1.67
'0:06.148',-1.34
'0:06.152',-0.96
'0:06.156',-0.33
'0:06.160',0.56
'0:06.164',2.57
'0:06.168',5.56
'0:06.172',9.18
'0:06.176',11.6
'0:06.180',10.63
'0:06.184',7.06
'0:06.188',2.65
'0:06.191',-1.28
'0:06.195',-4.41
'0:06.199',-6.37
'0:06.203',-7.16
'0:06.207',-6.93
'0:06.211',-5.69
'0:06.215',-4.08
'0:06.219',-2.94
'0:06.223',-2.37
'0:06.227',-1.99
'0:06.230',-1.8
'0:06.234',-1.35
'0:06.238',-0.5
'0:06.242',0.55
'0:06.246',1.45
'0:06.250',1.97
'0:06.254',1.9
'0:06.258',1.7
'0:06.262',1.54
'0:06.266',1.59
'0:06.270',1.79
'0:06.273',1.97
'0:06.277',2.22
'0:06.281',2.9
'0:06.285',3.72
'0:06.289',4.31
'0:06.293',4.77
'0:06.297',4.33
'0:06.301',4
'0:06.305',4.17
'0:06.309',4.36
'0:06.313',4.26
'0:06.316',3.89
'0:06.320',3.31
'0:06.324',2.45
'0:06.328',1.5
'0:06.332',0.65
'0:06.336',0.18
'0:06.340',0.15
'0:06.344',0.1
'0:06.348',-0.11
'0:06.352',0.03
'0:06.355',0.03
'0:06.359',-0.09
'0:06.363',-0.42
'0:06.367',-0.85
'0:06.371',-0.76
'0:06.375',-0.57
'0:06.379',-0.63
'0:06.383',-0.61
'0:06.387',-0.63
'0:06.391',-0.41
'0:06.395',-0.64
'0:06.398',-1.1
'0:06.402',-1.65
'0:06.406',-2.05
'0:06.410',-2.51
'0:06.414',-2.5
'0:06.418',-2.39
'0:06.422',-2.56
'0:06.426',-2.83
'0:06.430',-3.05
'0:06.434',-3.27
'0:06.438',-3.58
'0:06.441',-3.68
'0:06.445',-4.12
'0:06.449',-4.68
'0:06.453',-4.7
'0:06.457',-4.55
'0:06.461',-3.94
'0:06.465',-2.35
'0:06.469',0.2
'0:06.473',3.48
'0:06.477',7.07
'0:06.480',9.38
'0:06.484',9.37
'0:06.488',6.5
'0:06.492',1.78
'0:06.496',-3.22
'0:06.500',-7.24
'0:06.504',-9.62
'0:06.508',-10.17
'0:06.512',-9.08
'0:06.516',-7.9
'0:06.520',-7.1
'0:06.523',-6.09
'0:06.527',-5.19
'0:06.531',-4.16
'0:06.535',-3.29
'0:06.539',-2.77
'0:06.543',-2.74
'0:06.547',-2.29
'0:06.551',-1.5
'0:06.555',-1.29
'0:06.559',-1.55
'0:06.563',-1.4
'0:06.566',-1.07
'0:06.570',-0.96
'0:06.574',-0.32
'0:06.578',0.6
'0:06.582',1.44
'0:06.586',1.87
'0:06.590',2.31
'0:06.594',2.33
'0:06.598',2.28
'0:06.602',2.29
'0:06.605',2.49
'0:06.609',2.51
'0:06.613',2.16
'0:06.617',1.73
'0:06.621',1.73
'0:06.625',1.25
'0:06.629',0.38
'0:06.633',-0.34
'0:06.637',-0.58
'0:06.641',-0.62
'0:06.645',-0.63
'0:06.648',-0.73
'0:06.652',-1.01
'0:06.656',-1.1
'0:06.660',-0.51
'0:06.664',0.38
'0:06.668',1.13
'0:06.672',1.51
'0:06.676',1.54
'0:06.680',1.67
'0:06.684',2.04
'0:06.688',2.24
'0:06.691',1.79
'0:06.695',1.39
'0:06.699',0.93
'0:06.703',-0.16
'0:06.707',-1.33
'0:06.711',-2.01
'0:06.715',-2.24
'0:06.719',-2.17
'0:06.723',-2.37
'0:06.727',-2.48
'0:06.730',-2.4
'0:06.734',-1.66
'0:06.738',-0.97
'0:06.742',-0.51
'0:06.746',-0.99
'0:06.750',-1.89
'0:06.754',-2.81
'0:06.758',-3.11
'0:06.762',-2.55
'0:06.766',-0.97
'0:06.770',1.54
'0:06.773',5.24
'0:06.777',8.78
'0:06.781',11.02
'0:06.785',10.3
'0:06.789',6.86
'0:06.793',1.42
'0:06.797',-3.22
'0:06.801',-6.76
'0:06.805',-9.14
'0:06.809',-9.36
'0:06.813',-8.54
'0:06.816',-7.43
'0:06.820',-6.01
'0:06.824',-4.41
'0:06.828',-3.89
'0:06.832',-3.63
'0:06.836',-2.97
'0:06.840',-2.96
'0:06.844',-1.77
'0:06.848',-0.76
'0:06.852',-0.77
'0:06.855',-1.43
'0:06.859',-1.41
'0:06.863',-1.16
'0:06.867',-0.23
'0:06.871',1.32
'0:06.875',2.07
'0:06.879',1.62
'0:06.883',1.56
'0:06.887',2.34
'0:06.891',2.85
'0:06.895',3.77
'0:06.898',4.18
'0:06.902',4.75
'0:06.906',5.65
'0:06.910',6.32
'0:06.914',6.38
'0:06.918',6
'0:06.922',5.29
'0:06.926',4.32
'0:06.930',3.4
'0:06.934',2.75
'0:06.938',2.57
'0:06.941',2.64
'0:06.945',2.79
'0:06.949',2.98
'0:06.953',2.57
'0:06.957',2.18
'0:06.961',2.26
'0:06.965',2.19
'0:06.969',1.95
'0:06.973',1.83
'0:06.977',1.88
'0:06.980',2.14
'0:06.984',2.49
'0:06.988',2.56
'0:06.992',2.44
'0:06.996',2.42
'0:07.000',1.9
'0:07.004',1.08
'0:07.008',0.52
'0:07.012',0.25
'0:07.016',0.14
'0:07.020',-0.63
'0:07.023',-1.49
'0:07.027',-1.65
'0:07.031',-1.72
'0:07.035',-1.62
'0:07.039',-1.36
'0:07.043',-1.34
'0:07.047',-1.59
'0:07.051',-1.74
'0:07.055',-1.58
'0:07.059',-1.47
'0:07.063',-0.82
'0:07.066',1.48
'0:07.070',4.82
'0:07.074',8.54
'0:07.078',11.83
'0:07.082',12.44
'0:07.086',10.12
'0:07.090',5.61
'0:07.094',0.31
'0:07.098',-4.36
'0:07.102',-7.46
'0:07.105',-9
'0:07.109',-9.07
'0:07.113',-7.75
'0:07.117',-6.27
'0:07.121',-4.87
'0:07.125',-3.4
'0:07.129',-2.56
'0:07.133',-2.75
'0:07.137',-2.62
'0:07.141',-2.38
'0:07.145',-2.16
'0:07.148',-1.73
'0:07.152',-1
'0:07.156',-0.6
'0:07.160',-0.48
'0:07.164',-0.56
'0:07.168',-0.21
'0:07.172',0.26
'0:07.176',0.74
'0:07.180',1.21
'0:07.184',1.74
'0:07.188',2.16
'0:07.191',2.47
'0:07.195',2.84
'0:07.199',3.05
'0:07.203',3.15
'0:07.207',3.46
'0:07.211',3.67
'0:07.215',3.79
'0:07.219',3.32
'0:07.223',2.67
'0:07.227',2.31
'0:07.230',2.07
'0:07.234',1.96
'0:07.238',1.71
'0:07.242',0.94
'0:07.246',0.7
'0:07.250',0.23
'0:07.254',-0.52
'0:07.258',-0.94
'0:07.262',-1.22
'0:07.266',-1.46
'0:07.270',-1.35
'0:07.273',-0.92
'0:07.277',-0.75
'0:07.281',-0.65
'0:07.285',-0.6
'0:07.289',-0.61
'0:07.293',-0.64
'0:07.297',-0.97
'0:07.301',-1.38
'0:07.305',-1.99
'0:07.309',-2.58
'0:07.313',-3.19
'0:07.316',-3.87
'0:07.320',-4.32
'0:07.324',-4.68
'0:07.328',-4.79
'0:07.332',-4.78
'0:07.336',-4.92
'0:07.340',-4.78
'0:07.344',-4.27
'0:07.348',-4.14
'0:07.352',-4.56
'0:07.355',-4.79
'0:07.359',-4.88
'0:07.363',-4.15
'0:07.367',-2.69
'0:07.371',-0.26
'0:07.375',2.95
'0:07.379',6.43
'0:07.383',9.62
'0:07.387',10.67
'0:07.391',8.77
'0:07.395',4.55
'0:07.398',-0.67
'0:07.402',-5.07
'0:07.406',-7.59
'0:07.410',-8.76
'0:07.414',-9.02
'0:07.418',-8.16
'0:07.422',-6.55
'0:07.426',-4.87
'0:07.430',-3.39
'0:07.434',-3.23
'0:07.438',-3.5
'0:07.441',-3.21
'0:07.445',-2.64
'0:07.449',-2.01
'0:07.453',-1.04
'0:07.457',-0.35
'0:07.461',-0.49
'0:07.465',-0.8
'0:07.469',-0.26
'0:07.473',0.82
'0:07.477',1.53
'0:07.480',1.74
'0:07.484',1.86
'0:07.488',1.7
'0:07.492',1.72
'0:07.496',2.18
'0:07.500',2.6
'0:07.504',2.88
'0:07.508',3.38
'0:07.512',3.61
'0:07.516',2.99
'0:07.520',2.06
'0:07.523',1.82
'0:07.527',2.14
'0:07.531',1.81
'0:07.535',0.79
'0:07.539',0.21
'0:07.543',-0.13
'0:07.547',-0.44
'0:07.551',-0.04
'0:07.555',0.42
'0:07.559',0
'0:07.563',-0.78
'0:07.566',-0.41
'0:07.570',0.6
'0:07.574',0.58
'0:07.578',0.76
'0:07.582',0.56
'0:07.586',0.39
'0:07.590',0.42
'0:07.594',0.73
'0:07.598',0.92
'0:07.602',0.72
'0:07.605',0.04
'0:07.609',-1.76
'0:07.613',-2.76
'0:07.617',-2.26
'0:07.621',-1.9
'0:07.625',-2.18
'0:07.629',-2.91
'0:07.633',-2.94
'0:07.637',-2.56
'0:07.641',-2.22
'0:07.645',-2.13
'0:07.648',-1.99
'0:07.652',-2.59
'0:07.656',-3.79
'0:07.660',-3.8
'0:07.664',-3.04
'0:07.668',-1.68
'0:07.672',-0.06
'0:07.676',3.12
'0:07.680',7.27
'0:07.684',10.48
'0:07.688',12.12
'0:07.691',11.81
'0:07.695',8.89
'0:07.699',4.34
'0:07.703',-0.31
'0:07.707',-4.08
'0:07.711',-6.01
'0:07.715',-6.43
'0:07.719',-5.1
'0:07.723',-3.39
'0:07.727',-1.99
'0:07.730',-0.94
'0:07.734',-0.24
'0:07.738',-0.16
'0:07.742',-0.39
'0:07.746',-0.46
'0:07.750',-0.15
'0:07.754',0.91
'0:07.758',1.5
'0:07.762',1.73
'0:07.766',1.83
'0:07.770',2.11
'0:07.773',2.26
'0:07.777',1.84
'0:07.781',1.19
'0:07.785',1.29
'0:07.789',2.15
'0:07.793',2.81
'0:07.797',3.69
'0:07.801',4.58
'0:07.805',5.35
'0:07.809',5.19
'0:07.813',5.05
'0:07.816',4.94
'0:07.820',4.84
'0:07.824',4.61
'0:07.828',3.57
'0:07.832',2.42
'0:07.836',2.52
'0:07.840',3.21
'0:07.844',3.18
'0:07.848',2.74
'0:07.852',2.4
'0:07.855',1.83
'0:07.859',1.42
'0:07.863',1.27
'0:07.867',1.41
'0:07.871',2.09
'0:07.875',2.57
'0:07.879',2.85
'0:07.883',2.68
'0:07.887',2.34
'0:07.891',2.29
'0:07.895',2.34
'0:07.898',2.27
'0:07.902',1.91
'0:07.906',1.12
'0:07.910',-0.11
'0:07.914',-1.37
'0:07.918',-2.44
'0:07.922',-3.5
'0:07.926',-4.02
'0:07.930',-4.19
'0:07.934',-4.28
'0:07.938',-4.44
'0:07.941',-4.48
'0:07.945',-4.57
'0:07.949',-4.8
'0:07.953',-4.79
'0:07.957',-4.64
'0:07.961',-4.54
'0:07.965',-4.22
'0:07.969',-3.04
'0:07.973',-0.4
'0:07.977',3.3
'0:07.980',6.89
'0:07.984',8.94
'0:07.988',8.15
'0:07.992',4.78
'0:07.996',-0.04
'0:08.000',-4.76
'0:08.004',-7.96
'0:08.008',-9.08
'0:08.012',-8.95
'0:08.016',-7.6
'0:08.020',-5.99
'0:08.023',-4.61
'0:08.027',-3.31
'0:08.031',-2.74
'0:08.035',-2.53
'0:08.039',-2.39
'0:08.043',-2.63
'0:08.047',-2.62
'0:08.051',-2.43
'0:08.055',-2.23
'0:08.059',-1.89
'0:08.063',-1.43
'0:08.066',-1.12
'0:08.070',-0.89
'0:08.074',-0.61
'0:08.078',-0.06
'0:08.082',0.58
'0:08.086',1.14
'0:08.090',1.86
'0:08.094',2.56
'0:08.098',2.93
'0:08.102',3.11
'0:08.105',3.27
'0:08.109',3.18
'0:08.113',3.09
'0:08.117',2.71
'0:08.121',2.14
'0:08.125',1.64
'0:08.129',1.19
'0:08.133',0.84
'0:08.137',0.22
'0:08.141',-0.58
'0:08.145',-1.22
'0:08.148',-1.5
'0:08.152',-1.38
'0:08.156',-1.2
'0:08.160',-1.02
'0:08.164',-1.09
'0:08.168',-0.96
'0:08.172',-0.56
'0:08.176',-0.13
'0:08.180',0.19
'0:08.184',0.33
'0:08.188',0.69
'0:08.191',0.89
'0:08.195',0.43
'0:08.199',-0.08
'0:08.203',-0.15
'0:08.207',-0.74
'0:08.211',-1.68
'0:08.215',-2.17
'0:08.219',-2.11
'0:08.223',-2.12
'0:08.227',-2.52
'0:08.230',-2.87
'0:08.234',-2.78
'0:08.238',-2.47
'0:08.242',-2
'0:08.246',-2.11
'0:08.250',-2.31
'0:08.254',-2.2
'0:08.258',-2.69
'0:08.262',-3.01
'0:08.266',-2.42
'0:08.270',-1.2
'0:08.273',0.91
'0:08.277',3.57
'0:08.281',6.54
'0:08.285',9.46
'0:08.289',10.66
'0:08.293',8.99
'0:08.297',5.21
'0:08.301',0.18
'0:08.305',-4.28
'0:08.309',-7.29
'0:08.313',-8.76
'0:08.316',-8.82
'0:08.320',-7.64
'0:08.324',-6.24
'0:08.328',-5.07
'0:08.332',-3.73
'0:08.336',-2.56
'0:08.340',-1.66
'0:08.344',-1.51
'0:08.348',-1.8
'0:08.352',-1.58
'0:08.355',-1.24
'0:08.359',-1.56
'0:08.363',-1.58
'0:08.367',-1.74
'0:08.371',-1.84
'0:08.375',-1.35
'0:08.379',-1.02
'0:08.383',-0.65
'0:08.387',0.39
'0:08.391',1.22
'0:08.395',1.46
'0:08.398',0.51
'0:08.402',0.26
'0:08.406',1.25
'0:08.410',1.77
'0:08.414',1.9
'0:08.418',1.56
'0:08.422',1.61
'0:08.426',0.82
'0:08.430',-0.47
'0:08.434',-0.8
'0:08.438',-0.73
'0:08.441',-0.93
'0:08.445',-1.26
'0:08.449',-0.63
'0:08.453',0.49
'0:08.457',1.68
'0:08.461',2.3
'0:08.465',1.86
'0:08.469',1.39
'0:08.473',1.4
'0:08.477',1.62
'0:08.480',1.91
'0:08.484',1.52
'0:08.488',1.37
'0:08.492',1.34
'0:08.496',1.62
'0:08.500',2.21
'0:08.504',2.16
'0:08.508',1.64
'0:08.512',1.24
'0:08.516',1.37
'0:08.520',1.33
'0:08.523',0.89
'0:08.527',0.63
'0:08.531',0.4
'0:08.535',-0.02
'0:08.539',-0.6
'0:08.543',-1.12
'0:08.547',-1.55
'0:08.551',-1.64
'0:08.555',-1.3
'0:08.559',-1
'0:08.563',-0.59
'0:08.566',-0.12
'0:08.570',0.41
'0:08.574',1.48
'0:08.578',3.56
'0:08.582',7.01
'0:08.586',10.7
'0:08.590',12.49
'0:08.594',10.81
'0:08.598',6.61
'0:08.602',1.77
'0:08.605',-1.9
'0:08.609',-4.24
'0:08.613',-5.52
'0:08.617',-5.69
'0:08.621',-5.21
'0:08.625',-4.44
'0:08.629',-3.61
'0:08.633',-3.14
'0:08.637',-2.53
'0:08.641',-1.67
'0:08.645',-0.55
'0:08.648',0.31
'0:08.652',1.03
'0:08.656',1.15
'0:08.660',0.55
'0:08.664',0.58
'0:08.668',1.33
'0:08.672',1.85
'0:08.676',1.51
'0:08.680',2.03
'0:08.684',2.44
'0:08.688',2.61
'0:08.691',2.31
'0:08.695',2.63
'0:08.699',3.36
'0:08.703',3.82
'0:08.707',3.97
'0:08.711',4.14
'0:08.715',4.19
'0:08.719',4.02
'0:08.723',3.8
'0:08.727',3.42
'0:08.730',2.76
'0:08.734',2.42
'0:08.738',1.96
'0:08.742',1.4
'0:08.746',0.84
'0:08.750',0.53
'0:08.754',0.08
'0:08.758',-0.35
'0:08.762',-0.54
'0:08.766',-0.73
'0:08.770',-1.05
'0:08.773',-1.22
'0:08.777',-1.4
'0:08.781',-1.19
'0:08.785',-0.86
'0:08.789',-0.41
'0:08.793',-0.08
'0:08.797',-0.14
'0:08.801',-0.1
'0:08.805',-0.28
'0:08.809',-0.34
'0:08.813',-0.54
'0:08.816',-1.23
'0:08.820',-2.37
'0:08.824',-2.9
'0:08.828',-3
'0:08.832',-3.41
'0:08.836',-3.61
'0:08.840',-3.81
'0:08.844',-3.93
'0:08.848',-4.28
'0:08.852',-4.54
'0:08.855',-4.29
'0:08.859',-4.23
'0:08.863',-4.38
'0:08.867',-4.36
'0:08.871',-3.73
'0:08.875',-1.9
'0:08.879',0.97
'0:08.883',4.42
'0:08.887',8.02
'0:08.891',9.77
'0:08.895',8.93
'0:08.898',5.56
'0:08.902',0.46
'0:08.906',-4.24
'0:08.910',-7.65
'0:08.914',-9.54
'0:08.918',-9.97
'0:08.922',-9.22
'0:08.926',-7.61
'0:08.930',-5.93
'0:08.934',-4.63
'0:08.938',-3.86
'0:08.941',-3.49
'0:08.945',-3.05
'0:08.949',-2.69
'0:08.953',-2.25
'0:08.957',-1.7
'0:08.961',-1.1
'0:08.965',-0.55
'0:08.969',-0.28
'0:08.973',-0.02
'0:08.977',0.3
'0:08.980',0.53
'0:08.984',1.05
'0:08.988',1.65
'0:08.992',1.7
'0:08.996',1.79
'0:09.000',2.51
'0:09.004',3.06
'0:09.008',3.04
'0:09.012',3.05
'0:09.016',3.43
'0:09.020',3.68
'0:09.023',3.61
'0:09.027',3.17
'0:09.031',2.66
'0:09.035',2.24
'0:09.039',2.07
'0:09.043',1.62
'0:09.047',0.89
'0:09.051',0.2
'0:09.055',0.33
'0:09.059',0.58
'0:09.063',0.19
'0:09.066',0.23
'0:09.070',0.53
'0:09.074',0.42
'0:09.078',0.52
'0:09.082',0.39
'0:09.086',0.42
'0:09.090',0.76
'0:09.094',1.28
'0:09.098',1.58
'0:09.102',1.72
'0:09.105',1.29
'0:09.109',0.45
'0:09.113',-0.54
'0:09.117',-1.24
'0:09.121',-1.4
'0:09.125',-1.32
'0:09.129',-1.77
'0:09.133',-2.33
'0:09.137',-2.99
'0:09.141',-3.37
'0:09.145',-3.42
'0:09.148',-3.23
'0:09.152',-3.13
'0:09.156',-2.77
'0:09.160',-2.63
'0:09.164',-3.25
'0:09.168',-3.51
'0:09.172',-2.35
'0:09.176',-0.67
'0:09.180',2.46
'0:09.184',6.14
'0:09.188',9.09
'0:09.191',10.47
'0:09.195',8.49
'0:09.199',4.68
'0:09.203',0.17
'0:09.207',-4.69
'0:09.211',-7.5
'0:09.215',-8.86
'0:09.219',-9.28
'0:09.223',-7.77
'0:09.227',-5.52
'0:09.230',-5.01
'0:09.234',-5.29
'0:09.238',-5.33
'0:09.242',-5.62
'0:09.246',-5.43
'0:09.250',-3.79
'0:09.254',-2.6
'0:09.258',-2.06
'0:09.262',-1.38
'0:09.266',-0.93
'0:09.270',-0.81
'0:09.273',-0.44
'0:09.277',-0.35
'0:09.281',-0.02
'0:09.285',0.42
'0:09.289',1.1
'0:09.293',1.5
'0:09.297',1.76
'0:09.301',2.6
'0:09.305',3.57
'0:09.309',3.56
'0:09.313',3.15
'0:09.316',3.41
'0:09.320',4.08
'0:09.324',4.68
'0:09.328',4.97
'0:09.332',4.23
'0:09.336',3.11
'0:09.340',2.31
'0:09.344',2.28
'0:09.348',2.49
'0:09.352',2.39
'0:09.355',2.27
'0:09.359',2.27
'0:09.363',2.12
'0:09.367',1.8
'0:09.371',1.68
'0:09.375',1.99
'0:09.379',2.49
'0:09.383',3.26
'0:09.387',3.37
'0:09.391',3.26
'0:09.395',3.13
'0:09.398',2.85
'0:09.402',2.62
'0:09.406',2.92
'0:09.410',3.14
'0:09.414',2.57
'0:09.418',1.82
'0:09.422',0.95
'0:09.426',0.59
'0:09.430',0.3
'0:09.434',-0.38
'0:09.438',-0.87
'0:09.441',-1.58
'0:09.445',-1.59
'0:09.449',-0.86
'0:09.453',-0.41
'0:09.457',-0.25
'0:09.461',-1.08
'0:09.465',-1.58
'0:09.469',-1.55
'0:09.473',-0.81
'0:09.477',1.38
'0:09.480',4.49
'0:09.484',7.72
'0:09.488',10.17
'0:09.492',9.98
'0:09.496',7.51
'0:09.500',3.75
'0:09.504',-0.53
'0:09.508',-4.58
'0:09.512',-7.03
'0:09.516',-8.34
'0:09.520',-7.85
'0:09.523',-6.34
'0:09.527',-5.93
'0:09.531',-6.32
'0:09.535',-5.44
'0:09.539',-3.38
'0:09.543',-1.51
'0:09.547',-0.51
'0:09.551',-0.24
'0:09.555',-0.36
'0:09.559',-0.52
'0:09.563',-0.78
'0:09.566',-0.96
'0:09.570',-0.92
'0:09.574',-0.84
'0:09.578',-0.58
'0:09.582',-0.4
'0:09.586',0.05
'0:09.590',0.72
'0:09.594',1.33
'0:09.598',2.09
'0:09.602',2.76
'0:09.605',3.18
'0:09.609',4.14
'0:09.613',4.68
'0:09.617',4.88
'0:09.621',4.77
'0:09.625',4.42
'0:09.629',3.52
'0:09.633',2.11
'0:09.637',1.68
'0:09.641',1.23
'0:09.645',0.17
'0:09.648',-0.76
'0:09.652',-1.37
'0:09.656',-1.57
'0:09.660',-1.52
'0:09.664',-1.59
'0:09.668',-1.33
'0:09.672',-1.16
'0:09.676',-1.01
'0:09.680',-0.71
'0:09.684',-0.45
'0:09.688',-0.42
'0:09.691',-0.47
'0:09.695',-0.37
'0:09.699',-0.53
'0:09.703',-0.66
'0:09.707',-0.76
'0:09.711',-1.17
'0:09.715',-1.75
'0:09.719',-2.27
'0:09.723',-2.89
'0:09.727',-3.36
'0:09.730',-3.58
'0:09.734',-3.78
'0:09.738',-3.97
'0:09.742',-4.2
'0:09.746',-4.21
'0:09.750',-4.12
'0:09.754',-4.32
'0:09.758',-4.33
'0:09.762',-4.3
'0:09.766',-4.06
'0:09.770',-3.87
'0:09.773',-3.47
'0:09.777',-2.06
'0:09.781',0.52
'0:09.785',3.95
'0:09.789',7.66
'0:09.793',10.1
'0:09.797',9.82
'0:09.801',7.06
'0:09.805',2.15
'0:09.809',-2.65
'0:09.813',-6.26
'0:09.816',-8.29
'0:09.820',-8.95
'0:09.824',-8.53
'0:09.828',-6.96
'0:09.832',-5.17
'0:09.836',-3.73
'0:09.840',-2.9
'0:09.844',-2.47
'0:09.848',-2.12
'0:09.852',-1.3
'0:09.855',-0.38
'0:09.859',0.13
'0:09.863',0.7
'0:09.867',1.37
'0:09.871',1.58
'0:09.875',1.49
'0:09.879',1.35
'0:09.883',1.03
'0:09.887',1.36
'0:09.891',1.58
'0:09.895',1.86
'0:09.898',1.95
'0:09.902',2.2
'0:09.906',2.6
'0:09.910',2.93
'0:09.914',3.01
'0:09.918',3.06
'0:09.922',3
'0:09.926',2.36
'0:09.930',1.77
'0:09.934',1.3
'0:09.938',0.65
'0:09.941',-0.12
'0:09.945',-0.58
'0:09.949',-0.85
'0:09.953',-0.77
'0:09.957',-0.47
'0:09.961',-0.54
'0:09.965',-0.63
'0:09.969',-0.74
'0:09.973',-0.61
'0:09.977',-0.02
'0:09.980',-0.04
'0:09.984',0.49
'0:09.988',0.7
'0:09.992',0.42
'0:09.996',-0.02
'0:10.000',-0.67
'0:10.004',-1.02
'0:10.008',-1.85
'0:10.012',-2.53
'0:10.016',-2.54
'0:10.020',-1.89
'0:10.023',-1.97
'0:10.027',-2.46
'0:10.031',-3.16
'0:10.035',-3.27
'0:10.039',-3.34
'0:10.043',-3.67
'0:10.047',-3.87
'0:10.051',-4.48
'0:10.055',-4.84
'0:10.059',-4.78
'0:10.063',-3.72
'0:10.066',-2.54
'0:10.070',-2.45
'0:10.074',-2.54
'0:10.078',2.15
'0:10.082',6
'0:10.086',9.53
'0:10.090',12.05
'0:10.094',12.13
'0:10.098',9.44
'0:10.102',5.12
'0:10.105',0.34
'0:10.109',-3.81
'0:10.113',-6.36
'0:10.117',-7.06
'0:10.121',-6.45
'0:10.125',-4.91
'0:10.129',-2.73
'0:10.133',-0.9
'0:10.137',-0.03
'0:10.141',-0.08
'0:10.145',-0.01
'0:10.148',0.27
'0:10.152',0.64
'0:10.156',1.2
'0:10.160',1.57
'0:10.164',1.54
'0:10.168',1.7
'0:10.172',2.11
'0:10.176',2.44
'0:10.180',2.76
'0:10.184',2.74
'0:10.188',2.82
'0:10.191',3.04
'0:10.195',3.47
'0:10.199',4.07
'0:10.203',4.59
'0:10.207',5.13
'0:10.211',5.39
'0:10.215',5.39
'0:10.219',5.68
'0:10.223',5.62
'0:10.227',4.82
'0:10.230',3.45
'0:10.234',2.71
'0:10.238',3.02
'0:10.242',3.14
'0:10.246',2.65
'0:10.250',1.75
'0:10.254',1.26
'0:10.258',1.23
'0:10.262',1.48
'0:10.266',2.29
'0:10.270',2.61
'0:10.273',2.85
'0:10.277',3.25
'0:10.281',2.63
'0:10.285',2.38
'0:10.289',2.69
'0:10.293',3.28
'0:10.297',3.33
'0:10.301',3.09
'0:10.305',2.79
'0:10.309',1.81
'0:10.313',-0.06
'0:10.316',-1.34
'0:10.320',-1.86
'0:10.324',-2.25
'0:10.328',-2.65
'0:10.332',-3.46
'0:10.336',-3.64
'0:10.340',-3.24
'0:10.344',-3.31
'0:10.348',-4.03
'0:10.352',-4.61
'0:10.355',-4.63
'0:10.359',-4.45
'0:10.363',-4.28
'0:10.367',-4.56
'0:10.371',-4.42
'0:10.375',-2.74
'0:10.379',0.21
'0:10.383',3.83
'0:10.387',7.35
'0:10.391',9.17
'0:10.395',8.18
'0:10.398',4.53
'0:10.402',0.02
'0:10.406',-3.57
'0:10.410',-6.04
'0:10.414',-7.29
'0:10.418',-7.54
'0:10.422',-6.01
'0:10.426',-4.13
'0:10.430',-3.67
'0:10.434',-3.26
'0:10.438',-3.03
'0:10.441',-3.03
'0:10.445',-3
'0:10.449',-3.14
'0:10.453',-2.99
'0:10.457',-2.73
'0:10.461',-2.42
'0:10.465',-2.08
'0:10.469',-1.69
'0:10.473',-1.39
'0:10.477',-1.25
'0:10.480',-0.83
'0:10.484',-0.28
'0:10.488',0.6
'0:10.492',1.47
'0:10.496',2.15
'0:10.500',2.81
'0:10.504',3.43
'0:10.508',3.95
'0:10.512',4.18
'0:10.516',4.33
'0:10.520',4.16
'0:10.523',3.75
'0:10.527',3.31
'0:10.531',2.96
'0:10.535',2.37
'0:10.539',1.73
'0:10.543',1.1
'0:10.547',0.54
'0:10.551',0.04
'0:10.555',-0.38
'0:10.559',-0.58
'0:10.563',-0.56
'0:10.566',-0.45
'0:10.570',-0.3
'0:10.574',-0.12
'0:10.578',0.16
'0:10.582',0.42
'0:10.586',0.43
'0:10.590',0.3
'0:10.594',0.39
'0:10.598',0.49
'0:10.602',0.45
'0:10.605',0.39
'0:10.609',0.04
'0:10.613',-0.52
'0:10.617',-1.4
'0:10.621',-1.93
'0:10.625',-2.1
'0:10.629',-1.95
'0:10.633',-1.97
'0:10.637',-1.97
'0:10.641',-1.97
'0:10.645',-1.97
'0:10.648',-3.41
'0:10.652',-2.98
'0:10.656',-2.73
'0:10.660',-3.04
'0:10.664',-3.53
'0:10.668',-3.82
'0:10.672',-3.62
'0:10.676',-2.64
'0:10.680',-0.55
'0:10.684',2.14
'0:10.688',5.38
'0:10.691',9.11
'0:10.695',11.01
'0:10.699',9.39
'0:10.703',5.39
'0:10.707',0.03
'0:10.711',-4.7
'0:10.715',-7.61
'0:10.719',-9.21
'0:10.723',-9.74
'0:10.727',-9.14
'0:10.730',-7.81
'0:10.734',-6.36
'0:10.738',-4.91
'0:10.742',-3.78
'0:10.746',-2.75
'0:10.750',-2.44
'0:10.754',-2.4
'0:10.758',-2.49
'0:10.762',-2.2
'0:10.766',-1.7
'0:10.770',-1.6
'0:10.773',-1.62
'0:10.777',-1.37
'0:10.781',-1.19
'0:10.785',-0.74
'0:10.789',-0.37
'0:10.793',0.53
'0:10.797',1.22
'0:10.801',1.46
'0:10.805',1.53
'0:10.809',1.8
'0:10.813',2.53
'0:10.816',1.98
'0:10.820',1.4
'0:10.824',1.61
'0:10.828',1.21
'0:10.832',1.32
'0:10.836',1.62
'0:10.840',0.77
'0:10.844',-0.63
'0:10.848',-1.5
'0:10.852',-1.58
'0:10.855',-1.66
'0:10.859',-2.19
'0:10.863',-2.94
'0:10.867',-1.8
'0:10.871',-0.73
'0:10.875',-0.37
'0:10.879',-0.35
'0:10.883',-0.33
'0:10.887',0.99
'0:10.891',2.47
'0:10.895',2.24
'0:10.898',2.44
'0:10.902',3.24
'0:10.906',3.01
'0:10.910',2.19
'0:10.914',0.78
'0:10.918',-0.7
'0:10.922',-0.93
'0:10.926',-0.03
'0:10.930',0.48
'0:10.934',0.62
'0:10.938',0.92
'0:10.941',1.19
'0:10.945',1.09
'0:10.949',0.96
'0:10.953',1.14
'0:10.957',1.16
'0:10.961',0.78
'0:10.965',0.25
'0:10.969',-0.29
'0:10.973',-0.67
'0:10.977',-0.54
'0:10.980',0.47
'0:10.984',2.75
'0:10.988',6.16
'0:10.992',10.02
'0:10.996',13.03
'0:11.000',13.21
'0:11.004',10.02
'0:11.008',4.89
'0:11.012',0.06
'0:11.016',-3.62
'0:11.020',-5.97
'0:11.023',-6.46
'0:11.027',-5.52
'0:11.031',-3.99
'0:11.035',-2.81
'0:11.039',-2.34
'0:11.043',-2.15
'0:11.047',-2.04
'0:11.051',-1.66
'0:11.055',-0.87
'0:11.059',-0.22
'0:11.063',0.46
'0:11.066',1.24
'0:11.070',1.46
'0:11.074',1.68
'0:11.078',1.58
'0:11.082',0.8
'0:11.086',0.17
'0:11.090',0.63
'0:11.094',2.03
'0:11.098',3.34
'0:11.102',3.96
'0:11.105',4.21
'0:11.109',4.78
'0:11.113',5.1
'0:11.117',4.53
'0:11.121',3.36
'0:11.125',3.69
'0:11.129',4.39
'0:11.133',3.74
'0:11.137',2.85
'0:11.141',1.89
'0:11.145',0.2
'0:11.148',-1.14
'0:11.152',-0.75
'0:11.156',1.21
'0:11.160',2.38
'0:11.164',1.68
'0:11.168',0.7
'0:11.172',-0.19
'0:11.176',-0.99
'0:11.180',-1.12
'0:11.184',-0.17
'0:11.188',0.72
'0:11.191',0.64
'0:11.195',0.81
'0:11.199',0.95
'0:11.203',0.65
'0:11.207',0.21
'0:11.211',-0.05
'0:11.215',-0.36
'0:11.219',-0.74
'0:11.223',-1.12
'0:11.227',-1.79
'0:11.230',-2.55
'0:11.234',-3.28
'0:11.238',-3.6
'0:11.242',-4.06
'0:11.246',-4.52
'0:11.250',-4.7
'0:11.254',-4.73
'0:11.258',-4.45
'0:11.262',-4.32
'0:11.266',-4.73
'0:11.270',-4.98
'0:11.273',-4.8
'0:11.277',-3.97
'0:11.281',-1.59
'0:11.285',2.04
'0:11.289',5.78
'0:11.293',8.7
'0:11.297',9.19
'0:11.301',6.92
'0:11.305',2.69
'0:11.309',-2.34
'0:11.313',-6.36
'0:11.316',-8.86
'0:11.320',-9.86
'0:11.324',-9.59
'0:11.328',-8.29
'0:11.332',-6.72
'0:11.336',-5.02
'0:11.340',-3.65
'0:11.344',-2.8
'0:11.348',-2.24
'0:11.352',-1.62
'0:11.355',-1.07
'0:11.359',-0.65
'0:11.363',-0.52
'0:11.367',-0.4
'0:11.371',-0.09
'0:11.375',0.43
'0:11.379',1.08
'0:11.383',1.6
'0:11.387',1.97
'0:11.391',2.42
'0:11.395',2.89
'0:11.398',3.23
'0:11.402',3.58
'0:11.406',4.06
'0:11.410',4.34
'0:11.414',4.2
'0:11.418',3.97
'0:11.422',3.55
'0:11.426',3.11
'0:11.430',3.07
'0:11.434',2.08
'0:11.438',2.19
'0:11.441',2.19
'0:11.445',1.8
'0:11.449',1.32
'0:11.453',1.11
'0:11.457',1.08
'0:11.461',0.97
'0:11.465',0.7
'0:11.469',0.49
'0:11.473',0.25
'0:11.477',0.16
'0:11.480',0.16
'0:11.484',0.31
'0:11.488',0.2
'0:11.492',0.38
'0:11.496',0.95
'0:11.500',0.92
'0:11.504',0.97
'0:11.508',1.37
'0:11.512',1.24
'0:11.516',0.66
'0:11.520',-0.22
'0:11.523',-1.52
'0:11.527',-2.56
'0:11.531',-2.94
'0:11.535',-2.98
'0:11.539',-3.27
'0:11.543',-3.44
'0:11.547',-3.79
'0:11.551',-4.15
'0:11.555',-4.11
'0:11.559',-3.98
'0:11.563',-4.3
'0:11.566',-4.54
'0:11.570',-4.59
'0:11.574',-4.3
'0:11.578',-3.41
'0:11.582',-2.04
'0:11.586',0.99
'0:11.590',5.03
'0:11.594',8.61
'0:11.598',9.86
'0:11.602',7.85
'0:11.605',3.51
'0:11.609',-1.77
'0:11.613',-5.12
'0:11.617',-8.29
'0:11.621',-9.88
'0:11.625',-10.15
'0:11.629',-9.6
'0:11.633',-7.95
'0:11.637',-6
'0:11.641',-5.31
'0:11.645',-4.48
'0:11.648',-3.76
'0:11.652',-2.93
'0:11.656',-2.64
'0:11.660',-2.29
'0:11.664',-2.02
'0:11.668',-1.94
'0:11.672',-1.58
'0:11.676',-0.55
'0:11.680',0.57
'0:11.684',0.09
'0:11.688',-0.3
'0:11.691',-0.44
'0:11.695',-0.4
'0:11.699',0.38
'0:11.703',1.67
'0:11.707',2.32
'0:11.711',2.15
'0:11.715',2.68
'0:11.719',3.75
'0:11.723',4.48
'0:11.727',4.88
'0:11.730',4.48
'0:11.734',3.37
'0:11.738',2.64
'0:11.742',2.66
'0:11.746',3.01
'0:11.750',2.95
'0:11.754',2.55
'0:11.758',2.03
'0:11.762',1.65
'0:11.766',1.28
'0:11.770',1.08
'0:11.773',1.14
'0:11.777',1.47
'0:11.781',2.19
'0:11.785',2.73
'0:11.789',3.02
'0:11.793',3.24
'0:11.797',3.09
'0:11.801',2.83
'0:11.805',2.78
'0:11.809',2.74
'0:11.813',2.69
'0:11.816',2.62
'0:11.820',2.1
'0:11.824',1.01
'0:11.828',0.04
'0:11.832',-0.6
'0:11.836',-0.73
'0:11.840',-0.65
'0:11.844',-0.67
'0:11.848',-0.65
'0:11.852',-0.61
'0:11.855',-0.65
'0:11.859',-0.91
'0:11.863',-1.45
'0:11.867',-1.99
'0:11.871',-2.08
'0:11.875',-1.89
'0:11.879',-1.31
'0:11.883',0.26
'0:11.887',2.53
'0:11.891',5.37
'0:11.895',9.04
'0:11.898',10.84
'0:11.902',10.1
'0:11.906',7.15
'0:11.910',2.2
'0:11.914',-2.93
'0:11.918',-6.91
'0:11.922',-8.7
'0:11.926',-8.76
'0:11.930',-7.39
'0:11.934',-4.87
'0:11.938',-2.76
'0:11.941',-2.15
'0:11.945',-2.67
'0:11.949',-2.4
'0:11.953',-1.73
'0:11.957',-2.09
'0:11.961',-2.79
'0:11.965',-2.25
'0:11.969',-1.51
'0:11.973',-1.3
'0:11.977',-1.46
'0:11.980',-1.33
'0:11.984',-0.42
'0:11.988',0.14
'0:11.992',0.06
'0:11.996',0.12
'0:12.000',0.74
'0:12.004',1.12
'0:12.008',1.94
'0:12.012',2.44
'0:12.016',2.81
'0:12.020',3.65
'0:12.023',4
'0:12.027',3.54
'0:12.031',2.47
'0:12.035',1.47
'0:12.039',1.25
'0:12.043',1.47
'0:12.047',2.11
'0:12.051',2.44
'0:12.055',1.96
'0:12.059',1.26
'0:12.063',0.72
'0:12.066',0.51
'0:12.070',0.32
'0:12.074',0.49
'0:12.078',0.38
'0:12.082',-0.11
'0:12.086',-0.26
'0:12.090',-0.58
'0:12.094',-0.78
'0:12.098',-0.62
'0:12.102',-0.59
'0:12.105',-0.79
'0:12.109',-0.89
'0:12.113',-1.32
'0:12.117',-1.84
'0:12.121',-2.38
'0:12.125',-2.94
'0:12.129',-3.32
'0:12.133',-3.4
'0:12.137',-3.38
'0:12.141',-3.48
'0:12.145',-3.5
'0:12.148',-3.53
'0:12.152',-3.55
'0:12.156',-3.31
'0:12.160',-2.88
'0:12.164',-2.57
'0:12.168',-2.53
'0:12.172',-2.42
'0:12.176',-2.13
'0:12.180',-1.5
'0:12.184',0.21
'0:12.188',3.03
'0:12.191',6.44
'0:12.195',10.01
'0:12.199',11.58
'0:12.203',10.13
'0:12.207',6.28
'0:12.211',0.9
'0:12.215',-3.95
'0:12.219',-7.12
'0:12.223',-8.49
'0:12.227',-8.82
'0:12.230',-7.71
'0:12.234',-6.23
'0:12.238',-4.73
'0:12.242',-3.16
'0:12.246',-1.64
'0:12.250',-0.95
'0:12.254',-0.45
'0:12.258',0.28
'0:12.262',0.62
'0:12.266',0.34
'0:12.270',0.35
'0:12.273',0.78
'0:12.277',1.05
'0:12.281',1.05
'0:12.285',1.15
'0:12.289',1.76
'0:12.293',2.77
'0:12.297',3.58
'0:12.301',4.2
'0:12.305',4.45
'0:12.309',4.74
'0:12.313',5.14
'0:12.316',5.45
'0:12.320',5.55
'0:12.324',5.27
'0:12.328',4.81
'0:12.332',4.78
'0:12.336',4.63
'0:12.340',4
'0:12.344',3.38
'0:12.348',2.63
'0:12.352',1.53
'0:12.355',0.92
'0:12.359',0.56
'0:12.363',0.51
'0:12.367',0.78
'0:12.371',0.59
'0:12.375',0.5
'0:12.379',0.31
'0:12.383',-0.35
'0:12.387',-0.53
'0:12.391',-0.63
'0:12.395',-0.72
'0:12.398',-0.56
'0:12.402',-0.86
'0:12.406',-1.21
'0:12.410',-1.5
'0:12.414',-1.93
'0:12.418',-2.61
'0:12.422',-3.1
'0:12.426',-3.44
'0:12.430',-3.79
'0:12.434',-4.56
'0:12.438',-5.22
'0:12.441',-4.99
'0:12.445',-5.16
'0:12.449',-5.22
'0:12.453',-5.31
'0:12.457',-4.32
'0:12.461',-4.16
'0:12.465',-4.41
'0:12.469',-4.57
'0:12.473',-5.12
'0:12.477',-4.62
'0:12.480',-3.94
'0:12.484',-1.93
'0:12.488',1.53
'0:12.492',5.13
'0:12.496',8.94
'0:12.500',10.36
'0:12.504',8.96
'0:12.508',5.28
'0:12.512',0.37
'0:12.516',-3.97
'0:12.520',-6.73
'0:12.523',-8.69
'0:12.527',-9.55
'0:12.531',-8.72
'0:12.535',-6.98
'0:12.539',-5.06
'0:12.543',-3.56
'0:12.547',-2.98
'0:12.551',-2.62
'0:12.555',-1.78
'0:12.559',-1.24
'0:12.563',-0.84
'0:12.566',-0.22
'0:12.570',0.3
'0:12.574',0.51
'0:12.578',0.52
'0:12.582',0.42
'0:12.586',0.51
'0:12.590',1.01
'0:12.594',1.59
'0:12.598',2
'0:12.602',2.39
'0:12.605',2.72
'0:12.609',3.01
'0:12.613',3.31
'0:12.617',3.94
'0:12.621',4.48
'0:12.625',4.38
'0:12.629',4.04
'0:12.633',3.58
'0:12.637',3.28
'0:12.641',3.01
'0:12.645',2.59
'0:12.648',2.31
'0:12.652',2.1
'0:12.656',1.71
'0:12.660',1.61
'0:12.664',1.48
'0:12.668',1.27
'0:12.672',1.38
'0:12.676',1.62
'0:12.680',2.06
'0:12.684',2.38
'0:12.688',2.68
'0:12.691',2.5
'0:12.695',2.57
'0:12.699',3.02
'0:12.703',3.24
'0:12.707',2.91
'0:12.711',2.5
'0:12.715',2.3
'0:12.719',1.86
'0:12.723',0.63
'0:12.727',-0.15
'0:12.730',-0.42
'0:12.734',-1.25
'0:12.738',-1.97
'0:12.742',-3.08
'0:12.746',-3.56
'0:12.750',-2.6
'0:12.754',-2.19
'0:12.758',-2.8
'0:12.762',-3.33
'0:12.766',-3.56
'0:12.770',-3.58
'0:12.773',-3.09
'0:12.777',-2.8
'0:12.781',-2.01
'0:12.785',-0.72
'0:12.789',1.82
'0:12.793',5.78
'0:12.797',9.8
'0:12.801',10.09
'0:12.805',6.99
'0:12.809',2.25
'0:12.813',-3.24
'0:12.816',-7.23
'0:12.820',-9.49
'0:12.824',-9.91
'0:12.828',-9.8
'0:12.832',-9.47
'0:12.836',-7.11
'0:12.840',-4.21
'0:12.844',-1.64
'0:12.848',-0.55
'0:12.852',-0.14
'0:12.855',0.13
'0:12.859',-0.13
'0:12.863',-0.21
'0:12.867',-0.1
'0:12.871',-0.07
'0:12.875',0
'0:12.879',-0.04
'0:12.883',-0.05
'0:12.887',-0.02
'0:12.891',0.1
'0:12.895',0.3
'0:12.898',0.69
'0:12.902',1.08
'0:12.906',1.54
'0:12.910',2.22
'0:12.914',2.71
'0:12.918',3.2
'0:12.922',3.46
'0:12.926',3.3
'0:12.930',3.05
'0:12.934',2.63
'0:12.938',2.4
'0:12.941',2.08
'0:12.945',1.53
'0:12.949',1
'0:12.953',0.55
'0:12.957',0.1
'0:12.961',-0.11
'0:12.965',-0.15
'0:12.969',-0.25
'0:12.973',-0.33
'0:12.977',-0.16
'0:12.980',0.18
'0:12.984',0.54
'0:12.988',0.76
'0:12.992',0.93
'0:12.996',1.14
'0:13.000',1.28
'0:13.004',1.39
'0:13.008',1.37
'0:13.012',1.08
'0:13.016',0.74
'0:13.020',0.26
'0:13.023',-0.52
'0:13.027',-1.42
'0:13.031',-1.87
'0:13.035',-2.1
'0:13.039',-2.47
'0:13.043',-3.04
'0:13.047',-3.14
'0:13.051',-2.66
'0:13.055',-1.91
'0:13.059',-1.01
'0:13.063',-1.09
'0:13.066',-2.06
'0:13.070',-3.02
'0:13.074',-3
'0:13.078',-2.12
'0:13.082',-0.8
'0:13.086',1.14
'0:13.090',3.88
'0:13.094',7.12
'0:13.098',10.7
'0:13.102',13.32
'0:13.105',12.56
'0:13.109',8.83
'0:13.113',3.55
'0:13.117',-1.33
'0:13.121',-4.69
'0:13.125',-6.51
'0:13.129',-7.38
'0:13.133',-7.07
'0:13.137',-5.68
'0:13.141',-4.08
'0:13.145',-2.86
'0:13.148',-2.1
'0:13.152',-1.79
'0:13.156',-1.45
'0:13.160',-0.96
'0:13.164',-0.6
'0:13.168',-0.37
'0:13.172',-0.29
'0:13.176',-0.29
'0:13.180',-0.06
'0:13.184',-0.02
'0:13.188',-0.1
'0:13.191',0.18
'0:13.195',0.44
'0:13.199',0.79
'0:13.203',1
'0:13.207',0.93
'0:13.211',0.98
'0:13.215',1.44
'0:13.219',1.88
'0:13.223',2.1
'0:13.227',2.06
'0:13.230',1.45
'0:13.234',0.78
'0:13.238',-0.25
'0:13.242',-1.07
'0:13.246',-2.56
'0:13.250',-3.87
'0:13.254',-3.38
'0:13.258',-2.98
'0:13.262',-2.78
'0:13.266',-3.2
'0:13.270',-3.87
'0:13.273',-3.83
'0:13.277',-2.59
'0:13.281',-2.53
'0:13.285',-1.61
'0:13.289',-0.2
'0:13.293',-0.76
'0:13.297',-1.32
'0:13.301',-1.13
'0:13.305',-0.94
'0:13.309',-0.59
'0:13.313',-0.85
'0:13.316',-1.6
'0:13.320',-1.57
'0:13.324',-1.47
'0:13.328',-1.58
'0:13.332',-1.71
'0:13.336',-2.03
'0:13.340',-2.24
'0:13.344',-1.98
'0:13.348',-1.18
'0:13.352',-0.88
'0:13.355',-0.7
'0:13.359',-0.74
'0:13.363',-0.93
'0:13.367',-1.08
'0:13.371',-1.4
'0:13.375',-1.72
'0:13.379',-1.42
'0:13.383',-0.73
'0:13.387',0.51
'0:13.391',2.84
'0:13.395',5.95
'0:13.398',9.45
'0:13.402',12.45
'0:13.406',13.33
'0:13.410',10.97
'0:13.414',6.01
'0:13.418',0.73
'0:13.422',-3.43
'0:13.426',-5.87
'0:13.430',-6.75
'0:13.434',-6.29
'0:13.438',-5.07
'0:13.441',-3.79
'0:13.445',-2.78
'0:13.449',-1.71
'0:13.453',-1.29
'0:13.457',-1.41
'0:13.461',-0.96
'0:13.465',-0.32
'0:13.469',0.25
'0:13.473',1.01
'0:13.477',1.49
'0:13.480',1.61
'0:13.484',1.68
'0:13.488',1.87
'0:13.492',1.9
'0:13.496',1.95
'0:13.500',2.03
'0:13.504',2.52
'0:13.508',3.46
'0:13.512',3.87
'0:13.516',4.08
'0:13.520',4.3
'0:13.523',4.42
'0:13.527',4.57
'0:13.531',4.45
'0:13.535',4.34
'0:13.539',4.34
'0:13.543',3.34
'0:13.547',1.53
'0:13.551',0.58
'0:13.555',0.98
'0:13.559',1.41
'0:13.563',1.19
'0:13.566',0.95
'0:13.570',0.65
'0:13.574',0.48
'0:13.578',0.14
'0:13.582',0.27
'0:13.586',0.44
'0:13.590',0.58
'0:13.594',0.94
'0:13.598',1.77
'0:13.602',2.52
'0:13.605',2.09
'0:13.609',1.01
'0:13.613',-0.36
'0:13.617',-1.24
'0:13.621',-2.26
'0:13.625',-3.33
'0:13.629',-2.67
'0:13.633',-1.43
'0:13.637',-1.09
'0:13.641',-1.16
'0:13.645',-1.56
'0:13.648',-1.98
'0:13.652',-2.69
'0:13.656',-2.74
'0:13.660',-2.19
'0:13.664',-1.54
'0:13.668',-1.14
'0:13.672',-1.84
'0:13.676',-2.82
'0:13.680',-2.8
'0:13.684',-2.42
'0:13.688',-1.66
'0:13.691',0.56
'0:13.695',3.53
'0:13.699',7
'0:13.703',8.98
'0:13.707',8.02
'0:13.711',4.66
'0:13.715',-0.04
'0:13.719',-4.39
'0:13.723',-7.51
'0:13.727',-9.11
'0:13.730',-9.52
'0:13.734',-8.73
'0:13.738',-7.13
'0:13.742',-5.55
'0:13.746',-4.42
'0:13.750',-3.56
'0:13.754',-3.17
'0:13.758',-2.93
'0:13.762',-2.46
'0:13.766',-1.97
'0:13.770',-1.49
'0:13.773',-1.06
'0:13.777',-0.63
'0:13.781',-0.16
'0:13.785',0.12
'0:13.789',0.34
'0:13.793',0.44
'0:13.797',0.57
'0:13.801',1.07
'0:13.805',1.78
'0:13.809',2.47
'0:13.813',3
'0:13.816',3.35
'0:13.820',3.53
'0:13.824',3.92
'0:13.828',4.16
'0:13.832',3.78
'0:13.836',3.34
'0:13.840',3.09
'0:13.844',2.75
'0:13.848',2.43
'0:13.852',2.01
'0:13.855',1.39
'0:13.859',1.03
'0:13.863',1.09
'0:13.867',1.37
'0:13.871',1.67
'0:13.875',1.63
'0:13.879',1.28
'0:13.883',1.3
'0:13.887',1.73
'0:13.891',1.94
'0:13.895',1.53
'0:13.898',1.57
'0:13.902',1.98
'0:13.906',2.58
'0:13.910',2.98
'0:13.914',2.8
'0:13.918',2.2
'0:13.922',1.82
'0:13.926',1.3
'0:13.930',0.76
'0:13.934',-0.05
'0:13.938',-0.79
'0:13.941',-1.02
'0:13.945',-1.27
'0:13.949',-1.65
'0:13.953',-1.61
'0:13.957',-1.6
'0:13.961',-2
'0:13.965',-2.51
'0:13.969',-2.85
'0:13.973',-3.31
'0:13.977',-3.62
'0:13.980',-3.52
'0:13.984',-2.9
'0:13.988',-1.88
'0:13.992',0.45
'0:13.996',3.49
'0:14.000',7.1
'0:14.004',10.2
'0:14.008',10.75
'0:14.012',7.65
'0:14.016',2.4
'0:14.020',-3.23
'0:14.023',-7.3
'0:14.027',-9.39
'0:14.031',-10.07
'0:14.035',-10.08
'0:14.039',-9.49
'0:14.043',-7.64
'0:14.047',-5.69
'0:14.051',-4.49
'0:14.055',-4.45
'0:14.059',-4.16
'0:14.063',-4.02
'0:14.066',-3.87
'0:14.070',-3.13
'0:14.074',-2.51
'0:14.078',-2.29
'0:14.082',-2.62
'0:14.086',-2.61
'0:14.090',-2.84
'0:14.094',-3.02
'0:14.098',-2.24
'0:14.102',-1.79
'0:14.105',-1.29
'0:14.109',-1.05
'0:14.113',-0.56
'0:14.117',0.31
'0:14.121',1.33
'0:14.125',1.86
'0:14.129',1.84
'0:14.133',1.87
'0:14.137',2.32
'0:14.141',2.28
'0:14.145',0.99
'0:14.148',0.16
'0:14.152',0.49
'0:14.156',1.05
'0:14.160',1.29
'0:14.164',1.41
'0:14.168',1.53
'0:14.172',1.69
'0:14.176',1.76
'0:14.180',1.83
'0:14.184',1.91
'0:14.188',2.05
'0:14.191',2.18
'0:14.195',2.45
'0:14.199',2.61
'0:14.203',2.72
'0:14.207',3.04
'0:14.211',3.13
'0:14.215',2.8
'0:14.219',2.27
'0:14.223',1.74
'0:14.227',1.08
'0:14.230',0.4
'0:14.234',-0.23
'0:14.238',-1.06
'0:14.242',-1.82
'0:14.246',-2.28
'0:14.250',-2.48
'0:14.254',-2.25
'0:14.258',-2.19
'0:14.262',-2.16
'0:14.266',-2.35
'0:14.270',-2.52
'0:14.273',-2.42
'0:14.277',-2.21
'0:14.281',-2.36
'0:14.285',-2.71
'0:14.289',-3
'0:14.293',-1.94
'0:14.297',1.11
'0:14.301',5.11
'0:14.305',8.65
'0:14.309',10.47
'0:14.313',10.04
'0:14.316',6.57
'0:14.320',1.14
'0:14.324',-3.37
'0:14.328',-6.14
'0:14.332',-7.63
'0:14.336',-8.46
'0:14.340',-7.35
'0:14.344',-5.29
'0:14.348',-3.8
'0:14.352',-2.76
'0:14.355',-2.04
'0:14.359',-2.18
'0:14.363',-2.1
'0:14.367',-1.45
'0:14.371',-1.02
'0:14.375',-0.55
'0:14.379',-0.51
'0:14.383',-0.56
'0:14.387',0.02
'0:14.391',1.09
'0:14.395',1.41
'0:14.398',0.85
'0:14.402',0.81
'0:14.406',1.55
'0:14.410',2.32
'0:14.414',3.03
'0:14.418',3.88
'0:14.422',3.88
'0:14.426',4.07
'0:14.430',4.29
'0:14.434',4.29
'0:14.438',5.02
'0:14.441',5.75
'0:14.445',4.72
'0:14.449',3.8
'0:14.453',3.29
'0:14.457',2.46
'0:14.461',1.58
'0:14.465',1.59
'0:14.469',1.56
'0:14.473',1.63
'0:14.477',1.41
'0:14.480',0.98
'0:14.484',0.57
'0:14.488',0.39
'0:14.492',-0.31
'0:14.496',-1.03
'0:14.500',-1.28
'0:14.504',-0.93
'0:14.508',0.06
'0:14.512',0.7
'0:14.516',0.57
'0:14.520',0.39
'0:14.523',0.1
'0:14.527',-0.67
'0:14.531',-1.08
'0:14.535',-1.08
'0:14.539',-1.5
'0:14.543',-2.51
'0:14.547',-3.37
'0:14.551',-3.44
'0:14.555',-2.81
'0:14.559',-2.07
'0:14.563',-1.83
'0:14.566',-2.09
'0:14.570',-2.58
'0:14.574',-2.89
'0:14.578',-3.04
'0:14.582',-3.27
'0:14.586',-3.19
'0:14.590',-1.65
'0:14.594',1.65
'0:14.598',5.65
'0:14.602',9.2
'0:14.605',10.73
'0:14.609',9.17
'0:14.613',5.21
'0:14.617',0.03
'0:14.621',-4.15
'0:14.625',-7.06
'0:14.629',-8.72
'0:14.633',-9.14
'0:14.637',-8.37
'0:14.641',-7.11
'0:14.645',-5.88
'0:14.648',-4.67
'0:14.652',-3.2
'0:14.656',-1.75
'0:14.660',-0.85
'0:14.664',-0.57
'0:14.668',-0.4
'0:14.672',-0.03
'0:14.676',0.4
'0:14.680',0.79
'0:14.684',0.97
'0:14.688',1.19
'0:14.691',1.44
'0:14.695',1.69
'0:14.699',2.48
'0:14.703',3.46
'0:14.707',4.22
'0:14.711',5.03
'0:14.715',5.63
'0:14.719',5.62
'0:14.723',5.59
'0:14.727',5.71
'0:14.730',5.62
'0:14.734',5.31
'0:14.738',4.94
'0:14.742',4.48
'0:14.746',3.83
'0:14.750',3.1
'0:14.754',2.32
'0:14.758',1.86
'0:14.762',1.58
'0:14.766',1.32
'0:14.770',1.06
'0:14.773',0.87
'0:14.777',0.69
'0:14.781',0.49
'0:14.785',0.31
'0:14.789',-0.08
'0:14.793',-0.07
'0:14.797',-0.18
'0:14.801',0.2
'0:14.805',0.56
'0:14.809',0.28
'0:14.813',-0.06
'0:14.816',-0.61
'0:14.820',-0.88
'0:14.824',-2.1
'0:14.828',-3
'0:14.832',-2.15
'0:14.836',-2.38
'0:14.840',-3.24
'0:14.844',-4.63
'0:14.848',-4.42
'0:14.852',-4.62
'0:14.855',-5.14
'0:14.859',-5.33
'0:14.863',-5.9
'0:14.867',-6.2
'0:14.871',-6.13
'0:14.875',-5.46
'0:14.879',-5.42
'0:14.883',-6.09
'0:14.887',-6.14
'0:14.891',-4.65
'0:14.895',-2
'0:14.898',1.39
'0:14.902',5.12
'0:14.906',9.08
'0:14.910',11.12
'0:14.914',9
'0:14.918',3.36
'0:14.922',-2.51
'0:14.926',-6.72
'0:14.930',-9.38
'0:14.934',-10.31
'0:14.938',-9.96
'0:14.941',-8.74
'0:14.945',-6.93
'0:14.949',-5.26
'0:14.953',-4.12
'0:14.957',-3.31
'0:14.961',-2.41
'0:14.965',-1.63
'0:14.969',-0.94
'0:14.973',-0.4
'0:14.977',-0.12
'0:14.980',0.09
'0:14.984',0.27
'0:14.988',0.48
'0:14.992',0.85
'0:14.996',1.19
'0:15.000',1.22
'0:15.004',1.29
'0:15.008',1.48
'0:15.012',1.79
'0:15.016',2.38
'0:15.020',3.03
'0:15.023',3.57
'0:15.027',3.97
'0:15.031',3.85
'0:15.035',3.47
'0:15.039',3.01
'0:15.043',2.67
'0:15.047',2.73
'0:15.051',2.81
'0:15.055',2.95
'0:15.059',2.56
'0:15.063',2.02
'0:15.066',1.64
'0:15.070',1.27
'0:15.074',1.25
'0:15.078',1.15
'0:15.082',0.73
'0:15.086',0.48
'0:15.090',0.47
'0:15.094',0.38
'0:15.098',0.79
'0:15.102',1.47
'0:15.105',1.96
'0:15.109',2.21
'0:15.113',2.27
'0:15.117',2.22
'0:15.121',1.99
'0:15.125',0.87
'0:15.129',-0.59
'0:15.133',-1.86
'0:15.137',-2.75
'0:15.141',-3.36
'0:15.145',-3.33
'0:15.148',-2.28
'0:15.152',-0.86
'0:15.156',-0.59
'0:15.160',-1.51
'0:15.164',-2.44
'0:15.168',-2.64
'0:15.172',-1.72
'0:15.176',-0.88
'0:15.180',-1
'0:15.184',-1.94
'0:15.188',-3
'0:15.191',-2.4
'0:15.195',-0.42
'0:15.199',2.92
'0:15.203',6.87
'0:15.207',9.71
'0:15.211',10.52
'0:15.215',9.45
'0:15.219',6.96
'0:15.223',2.85
'0:15.227',-1.86
'0:15.230',-5.82
'0:15.234',-6.88
'0:15.238',-5.64
'0:15.242',-4.23
'0:15.246',-3.61
'0:15.250',-1.64
'0:15.254',-0.45
'0:15.258',-0.23
'0:15.262',-0.66
'0:15.266',-1.27
'0:15.270',-2.16
'0:15.273',-2.77
'0:15.277',-2.94
'0:15.281',-2.86
'0:15.285',-2.11
'0:15.289',-1.14
'0:15.293',-0.11
'0:15.297',-0.13
'0:15.301',-0.19
'0:15.305',-0.05
'0:15.309',0.05
'0:15.313',1
'0:15.316',2.01
'0:15.320',2.53
'0:15.324',2.73
'0:15.328',3
'0:15.332',2.72
'0:15.336',2.92
'0:15.340',3.86
'0:15.344',4.29
'0:15.348',3.17
'0:15.352',1.05
'0:15.355',0.34
'0:15.359',0.89
'0:15.363',1.36
'0:15.367',1.34
'0:15.371',1.13
'0:15.375',0.79
'0:15.379',0.43
'0:15.383',0.04
'0:15.387',-0.11
'0:15.391',0.21
'0:15.395',0.86
'0:15.398',1.22
'0:15.402',1.2
'0:15.406',1.03
'0:15.410',0.89
'0:15.414',0.69
'0:15.418',0.64
'0:15.422',0.31
'0:15.426',-0.47
'0:15.430',-1.15
'0:15.434',-1.59
'0:15.438',-1.75
'0:15.441',-1.92
'0:15.445',-2.08
'0:15.449',-2.28
'0:15.453',-2.29
'0:15.457',-1.89
'0:15.461',-1.46
'0:15.465',-1.53
'0:15.469',-1.6
'0:15.473',-1.56
'0:15.477',-1.48
'0:15.480',-1.5
'0:15.484',-1.88
'0:15.488',-1.85
'0:15.492',-0.48
'0:15.496',2.98
'0:15.500',7.38
'0:15.504',11.91
'0:15.508',14.87
'0:15.512',14.53
'0:15.516',11.11
'0:15.520',5.42
'0:15.523',-0.24
'0:15.527',-4.37
'0:15.531',-6.85
'0:15.535',-7.78
'0:15.539',-7.37
'0:15.543',-6.04
'0:15.547',-4.68
'0:15.551',-3.1
'0:15.555',-2.48
'0:15.559',-2.7
'0:15.563',-3.05
'0:15.566',-3.12
'0:15.570',-1.95
'0:15.574',-1.65
'0:15.578',-1.91
'0:15.582',-1.87
'0:15.586',-1.57
'0:15.590',-0.96
'0:15.594',-0.34
'0:15.598',-0.46
'0:15.602',-0.72
'0:15.605',-0.02
'0:15.609',0.48
'0:15.613',1.32
'0:15.617',2.12
'0:15.621',2.05
'0:15.625',1.78
'0:15.629',2.66
'0:15.633',2.54
'0:15.637',2.06
'0:15.641',1.89
'0:15.645',1.3
'0:15.648',-0.3
'0:15.652',-0.73
'0:15.656',-1.1
'0:15.660',-1.93
'0:15.664',-2.42
'0:15.668',-2.65
'0:15.672',-2.91
'0:15.676',-3.56
'0:15.680',-2.88
'0:15.684',-2.36
'0:15.688',-2.93
'0:15.691',-2.83
'0:15.695',-1.96
'0:15.699',-1.37
'0:15.703',-1.57
'0:15.707',-1.59
'0:15.711',-1.36
'0:15.715',-1.14
'0:15.719',-0.56
'0:15.723',-0.62
'0:15.727',-1.23
'0:15.730',-1.41
'0:15.734',-1.62
'0:15.738',-2.04
'0:15.742',-2.67
'0:15.746',-2.84
'0:15.750',-2.66
'0:15.754',-2.65
'0:15.758',-2.94
'0:15.762',-3.23
'0:15.766',-3.38
'0:15.770',-3.26
'0:15.773',-3.02
'0:15.777',-2.73
'0:15.781',-2.27
'0:15.785',-1.74
'0:15.789',-1.06
'0:15.793',-0.04
'0:15.797',1.79
'0:15.801',4.49
'0:15.805',7.53
'0:15.809',10.24
'0:15.813',11.4
'0:15.816',9.98
'0:15.820',6.54
'0:15.824',1.98
'0:15.828',-2
'0:15.832',-4.89
'0:15.836',-6.26
'0:15.840',-6.33
'0:15.844',-5.76
'0:15.848',-4.6
'0:15.852',-3.67
'0:15.855',-3.07
'0:15.859',-2.68
'0:15.863',-2.29
'0:15.867',-2.1
'0:15.871',-2.24
'0:15.875',-1.77
'0:15.879',-1.15
'0:15.883',-0.92
'0:15.887',-0.82
'0:15.891',-0.61
'0:15.895',-0.36
'0:15.898',-0.28
'0:15.902',0.07
'0:15.906',1.01
'0:15.910',1.76
'0:15.914',2.52
'0:15.918',2.77
'0:15.922',2.44
'0:15.926',2.65
'0:15.930',2.97
'0:15.934',3.19
'0:15.938',3.1
'0:15.941',2.81
'0:15.945',2.57
'0:15.949',2.44
'0:15.953',1.97
'0:15.957',1.72
'0:15.961',1.57
'0:15.965',1.28
'0:15.969',1.15
'0:15.973',1.13
'0:15.977',0.41
'0:15.980',-0.3
'0:15.984',0.12
'0:15.988',0.99
'0:15.992',0.89
'0:15.996',1.43
'0:16.000',2.48
'0:16.004',3.04
'0:16.008',3.45
'0:16.012',3.59
'0:16.016',2.97
'0:16.020',1.75
'0:16.023',1.03
'0:16.027',1.87
'0:16.031',2.43
'0:16.035',2.68
'0:16.039',2.31
'0:16.043',1.27
'0:16.047',-0.13
'0:16.051',-0.55
'0:16.055',-0.4
'0:16.059',-0.07
'0:16.063',-0.43
'0:16.066',-1.45
'0:16.070',-2.38
'0:16.074',-3.27
'0:16.078',-4.75
'0:16.082',-6.01
'0:16.086',-5.64
'0:16.090',-4.23
'0:16.094',-2.6
'0:16.098',0.26
'0:16.102',3.85
'0:16.105',7.49
'0:16.109',9.46
'0:16.113',9.19
'0:16.117',6.67
'0:16.121',2.21
'0:16.125',-3.29
'0:16.129',-6.73
'0:16.133',-8.43
'0:16.137',-8.53
'0:16.141',-7.35
'0:16.145',-5.62
'0:16.148',-3.89
'0:16.152',-2.76
'0:16.156',-2.31
'0:16.160',-2.27
'0:16.164',-2.07
'0:16.168',-1.6
'0:16.172',-1.15
'0:16.176',-0.78
'0:16.180',-0.62
'0:16.184',-0.58
'0:16.188',-0.34
'0:16.191',0.15
'0:16.195',0.59
'0:16.199',1.03
'0:16.203',1.43
'0:16.207',1.8
'0:16.211',2.46
'0:16.215',3.09
'0:16.219',3.63
'0:16.223',4.21
'0:16.227',4.54
'0:16.230',4.42
'0:16.234',4.31
'0:16.238',4.39
'0:16.242',4.17
'0:16.246',3.88
'0:16.250',3.43
'0:16.254',2.93
'0:16.258',2.37
'0:16.262',1.99
'0:16.266',1.91
'0:16.270',2.01
'0:16.273',2.04
'0:16.277',1.72
'0:16.281',1.42
'0:16.285',1.17
'0:16.289',1.39
'0:16.293',1.68
'0:16.297',1.76
'0:16.301',2.22
'0:16.305',2.82
'0:16.309',3.24
'0:16.313',3.1
'0:16.316',2.66
'0:16.320',1.96
'0:16.324',1.13
'0:16.328',0.67
'0:16.332',0.08
'0:16.336',-0.88
'0:16.340',-1.51
'0:16.344',-1.95
'0:16.348',-2.29
'0:16.352',-2.5
'0:16.355',-2.87
'0:16.359',-3.14
'0:16.363',-3.29
'0:16.367',-3.43
'0:16.371',-3.38
'0:16.375',-3.55
'0:16.379',-3.79
'0:16.383',-4.47
'0:16.387',-4.96
'0:16.391',-4.17
'0:16.395',-1.88
'0:16.398',1.01
'0:16.402',4.08
'0:16.406',8.01
'0:16.410',10.46
'0:16.414',9.97
'0:16.418',5.83
'0:16.422',0.2
'0:16.426',-4.3
'0:16.430',-7.79
'0:16.434',-10.22
'0:16.438',-10.81
'0:16.441',-10.01
'0:16.445',-8.2
'0:16.449',-7.21
'0:16.453',-6.03
'0:16.457',-4.81
'0:16.461',-4.48
'0:16.465',-4.5
'0:16.469',-4.82
'0:16.473',-4.46
'0:16.477',-4.16
'0:16.480',-3.65
'0:16.484',-2.76
'0:16.488',-1.97
'0:16.492',-2.11
'0:16.496',-2.17
'0:16.500',-1.29
'0:16.504',-0.75
'0:16.508',-0.37
'0:16.512',0.55
'0:16.516',1.05
'0:16.520',1.27
'0:16.523',1.75
'0:16.527',2.34
'0:16.531',2.47
'0:16.535',2.56
'0:16.539',3.13
'0:16.543',3.63
'0:16.547',3.17
'0:16.551',2.1
'0:16.555',1.38
'0:16.559',1.3
'0:16.563',1.1
'0:16.566',0.6
'0:16.570',0.4
'0:16.574',0.47
'0:16.578',0.42
'0:16.582',0.15
'0:16.586',0.13
'0:16.590',0.64
'0:16.594',1.22
'0:16.598',1.85
'0:16.602',2.05
'0:16.605',1.71
'0:16.609',1.42
'0:16.613',1.35
'0:16.617',1.12
'0:16.621',0.96
'0:16.625',1.29
'0:16.629',1.75
'0:16.633',1.63
'0:16.637',0.47
'0:16.641',-1.11
'0:16.645',-2.11
'0:16.648',-2.55
'0:16.652',-2.73
'0:16.656',-2.46
'0:16.660',-2.24
'0:16.664',-2.64
'0:16.668',-3.72
'0:16.672',-4.45
'0:16.676',-3.85
'0:16.680',-2.25
'0:16.684',-1.59
'0:16.688',-2.02
'0:16.691',-1.92
'0:16.695',-0.86
'0:16.699',1.05
'0:16.703',3.39
'0:16.707',6.02
'0:16.711',8.62
'0:16.715',8.87
'0:16.719',6.95
'0:16.723',3.76
'0:16.727',-0.21
'0:16.730',-4.17
'0:16.734',-7.3
'0:16.738',-8.73
'0:16.742',-8.09
'0:16.746',-6.66
'0:16.750',-5.5
'0:16.754',-4.43
'0:16.758',-3.29
'0:16.762',-2.7
'0:16.766',-2.68
'0:16.770',-2.8
'0:16.773',-1.95
'0:16.777',-0.85
'0:16.781',0.15
'0:16.785',1.09
'0:16.789',1.32
'0:16.793',1.06
'0:16.797',0.53
'0:16.801',-0.14
'0:16.805',-0.62
'0:16.809',0.33
'0:16.813',1.77
'0:16.816',2.9
'0:16.820',2.96
'0:16.824',3.06
'0:16.828',4.34
'0:16.832',6.02
'0:16.836',6.97
'0:16.840',6.99
'0:16.844',6.44
'0:16.848',5.32
'0:16.852',4.36
'0:16.855',3.4
'0:16.859',2.83
'0:16.863',2.15
'0:16.867',0.8
'0:16.871',-0.68
'0:16.875',-1.84
'0:16.879',-1.48
'0:16.883',0.13
'0:16.887',1.18
'0:16.891',1.51
'0:16.895',0.79
'0:16.898',0.58
'0:16.902',0.83
'0:16.906',1.12
'0:16.910',0.78
'0:16.914',-1.08
'0:16.918',-1.01
'0:16.922',0.77
'0:16.926',1.67
'0:16.930',1.37
'0:16.934',0.27
'0:16.938',-0.8
'0:16.941',-1.66
'0:16.945',-2.33
'0:16.949',-2.69
'0:16.953',-2.97
'0:16.957',-3.23
'0:16.961',-3.36
'0:16.965',-3.36
'0:16.969',-3.4
'0:16.973',-3.46
'0:16.977',-3.63
'0:16.980',-3.74
'0:16.984',-3.66
'0:16.988',-3.29
'0:16.992',-2.13
'0:16.996',0.18
'0:17.000',3.63
'0:17.004',7.29
'0:17.008',10.72
'0:17.012',11.93
'0:17.016',9.82
'0:17.020',5.14
'0:17.023',-0.04
'0:17.027',-4.13
'0:17.031',-6.74
'0:17.035',-7.83
'0:17.039',-7.89
'0:17.043',-7.32
'0:17.047',-6.09
'0:17.051',-4.18
'0:17.055',-2.25
'0:17.059',-1
'0:17.063',-0.38
'0:17.066',-0.07
'0:17.070',0.1
'0:17.074',0.3
'0:17.078',0.25
'0:17.082',0.13
'0:17.086',0.3
'0:17.090',0.99
'0:17.094',2.07
'0:17.098',2.61
'0:17.102',2.71
'0:17.105',2.95
'0:17.109',3.49
'0:17.113',4.15
'0:17.117',4.58
'0:17.121',4.8
'0:17.125',4.8
'0:17.129',4.78
'0:17.133',4.75
'0:17.137',4.44
'0:17.141',4.16
'0:17.145',3.81
'0:17.148',3.51
'0:17.152',2.78
'0:17.156',1.95
'0:17.160',1.34
'0:17.164',0.88
'0:17.168',0.25
'0:17.172',-0.55
'0:17.176',-0.99
'0:17.180',-0.87
'0:17.184',-1.18
'0:17.188',-0.74
'0:17.191',0.07
'0:17.195',-0.49
'0:17.199',-0.91
'0:17.203',-0.76
'0:17.207',-0.48
'0:17.211',0.07
'0:17.215',0.5
'0:17.219',0.08
'0:17.223',0.22
'0:17.227',0.1
'0:17.230',-1.02
'0:17.234',-2.7
'0:17.238',-3.7
'0:17.242',-4.56
'0:17.246',-4.99
'0:17.250',-5.22
'0:17.254',-6.06
'0:17.258',-6.33
'0:17.262',-6.08
'0:17.266',-5.28
'0:17.270',-4.84
'0:17.273',-4.84
'0:17.277',-4.99
'0:17.281',-5.06
'0:17.285',-4.75
'0:17.289',-4.38
'0:17.293',-3.38
'0:17.297',-1.3
'0:17.301',2.03
'0:17.305',5.67
'0:17.309',9.35
'0:17.313',11.85
'0:17.316',10.92
'0:17.320',6.93
'0:17.324',1.25
'0:17.328',-3.62
'0:17.332',-6.72
'0:17.336',-7.84
'0:17.340',-7.72
'0:17.344',-7.13
'0:17.348',-6.23
'0:17.352',-4.93
'0:17.355',-4.05
'0:17.359',-3.33
'0:17.363',-2.55
'0:17.367',-1.8
'0:17.371',-1.23
'0:17.375',-0.85
'0:17.379',-0.52
'0:17.383',0.17
'0:17.387',0.53
'0:17.391',0.47
'0:17.395',0.76
'0:17.398',1.15
'0:17.402',1.07
'0:17.406',0.84
'0:17.410',1
'0:17.414',1.35
'0:17.418',1.88
'0:17.422',2.47
'0:17.426',2.95
'0:17.430',3.39
'0:17.434',3.59
'0:17.438',3.54
'0:17.441',3.17
'0:17.445',2.56
'0:17.449',2.51
'0:17.453',2.07
'0:17.457',0.98
'0:17.461',0.26
'0:17.465',0.23
'0:17.469',0.42
'0:17.473',0.3
'0:17.477',0.06
'0:17.480',-0.14
'0:17.484',-0.14
'0:17.488',-0.07
'0:17.492',0.15
'0:17.496',0.35
'0:17.500',0.56
'0:17.504',0.57
'0:17.508',0.25
'0:17.512',-0.57
'0:17.516',-0.35
'0:17.520',0.96
'0:17.523',1.7
'0:17.527',1.47
'0:17.531',0.74
'0:17.535',-0.09
'0:17.539',-1.23
'0:17.543',-2.31
'0:17.547',-3.24
'0:17.551',-3.56
'0:17.555',-3.11
'0:17.559',-2.63
'0:17.563',-1.83
'0:17.566',-1.03
'0:17.570',-0.61
'0:17.574',-0.98
'0:17.578',-1.68
'0:17.582',-2.24
'0:17.586',-2.62
'0:17.590',-2.52
'0:17.594',-1.6
'0:17.598',-0.64
'0:17.602',1.69
'0:17.605',6.02
'0:17.609',10.71
'0:17.613',12.83
'0:17.617',12.17
'0:17.621',9.47
'0:17.625',4.68
'0:17.629',-0.57
'0:17.633',-5.03
'0:17.637',-7.56
'0:17.641',-8.26
'0:17.645',-7.85
'0:17.648',-6.81
'0:17.652',-5.18
'0:17.656',-4.02
'0:17.660',-3.99
'0:17.664',-4.6
'0:17.668',-4.14
'0:17.672',-2.21
'0:17.676',-0.64
'0:17.680',0.54
'0:17.684',0.71
'0:17.688',0.42
'0:17.691',0.22
'0:17.695',0.13
'0:17.699',0.56
'0:17.703',0.98
'0:17.707',1.54
'0:17.711',1.83
'0:17.715',2.35
'0:17.719',3.19
'0:17.723',3.93
'0:17.727',4.16
'0:17.730',4.31
'0:17.734',4.02
'0:17.738',4.01
'0:17.742',4.24
'0:17.746',4.12
'0:17.750',3.76
'0:17.754',2.98
'0:17.758',2.15
'0:17.762',1.68
'0:17.766',1.62
'0:17.770',1.75
'0:17.773',1.21
'0:17.777',0.66
'0:17.781',0.25
'0:17.785',0.02
'0:17.789',-0.26
'0:17.793',-0.48
'0:17.797',-0.14
'0:17.801',0.69
'0:17.805',1.4
'0:17.809',1.59
'0:17.813',1.51
'0:17.816',1.42
'0:17.820',1.41
'0:17.824',1.65
'0:17.828',1.67
'0:17.832',1.36
'0:17.836',0.73
'0:17.840',0.4
'0:17.844',-0.09
'0:17.848',-0.5
'0:17.852',-0.6
'0:17.855',-1.02
'0:17.859',-1.37
'0:17.863',-1.91
'0:17.867',-2.45
'0:17.871',-2.3
'0:17.875',-2.09
'0:17.879',-2.04
'0:17.883',-1.9
'0:17.887',-1.77
'0:17.891',-1.45
'0:17.895',-0.56
'0:17.898',1.5
'0:17.902',5.01
'0:17.906',9.27
'0:17.910',12.77
'0:17.914',12.87
'0:17.918',9.71
'0:17.922',4.33
'0:17.926',-1.19
'0:17.930',-5.11
'0:17.934',-7.62
'0:17.938',-8.69
'0:17.941',-9.35
'0:17.945',-8.95
'0:17.949',-7.09
'0:17.953',-5.36
'0:17.957',-4.84
'0:17.961',-4.26
'0:17.965',-3.3
'0:17.969',-2.31
'0:17.973',-2
'0:17.977',-1.8
'0:17.980',-1.43
'0:17.984',-1.33
'0:17.988',-1.1
'0:17.992',-0.82
'0:17.996',-0.68
'0:18.000',-0.82
'0:18.004',0.05
'0:18.008',0.79
'0:18.012',2.37
'0:18.016',3.36
'0:18.020',3.04
'0:18.023',1.91
'0:18.027',1.61
'0:18.031',1.56
'0:18.035',1.9
'0:18.039',2.04
'0:18.043',1.61
'0:18.047',0.89
'0:18.051',0.23
'0:18.055',-0.53
'0:18.059',-0.92
'0:18.063',-0.9
'0:18.066',-0.73
'0:18.070',-0.82
'0:18.074',-0.99
'0:18.078',-1.1
'0:18.082',-1.31
'0:18.086',-1.29
'0:18.090',-1.04
'0:18.094',-0.43
'0:18.098',0.12
'0:18.102',0.42
'0:18.105',1
'0:18.109',1.56
'0:18.113',1.64
'0:18.117',1.49
'0:18.121',1.1
'0:18.125',0.61
'0:18.129',0.54
'0:18.133',0.41
'0:18.137',-0.41
'0:18.141',-1.38
'0:18.145',-1.9
'0:18.148',-2.22
'0:18.152',-2.73
'0:18.156',-3.19
'0:18.160',-3.29
'0:18.164',-3.13
'0:18.168',-2.53
'0:18.172',-2.53
'0:18.176',-2.97
'0:18.180',-3.38
'0:18.184',-3.25
'0:18.188',-2.8
'0:18.191',-2.61
'0:18.195',-2.15
'0:18.199',-1.04
'0:18.203',1.34
'0:18.207',5.01
'0:18.211',8.17
'0:18.215',9.68
'0:18.219',9.17
'0:18.223',6.35
'0:18.227',1.8
'0:18.230',-2.71
'0:18.234',-5.82
'0:18.238',-7.3
'0:18.242',-7.73
'0:18.246',-7.13
'0:18.250',-6.07
'0:18.254',-4.87
'0:18.258',-3.32
'0:18.262',-1.6
'0:18.266',-0.76
'0:18.270',-0.78
'0:18.273',-1.57
'0:18.277',-2.61
'0:18.281',-2.86
'0:18.285',-2.16
'0:18.289',-1.14
'0:18.293',-0.38
'0:18.297',-0.18
'0:18.301',0.3
'0:18.305',0.82
'0:18.309',1.22
'0:18.313',1.02
'0:18.316',0.5
'0:18.320',0.67
'0:18.324',1.5
'0:18.328',2.54
'0:18.332',3.18
'0:18.336',3.83
'0:18.340',3.95
'0:18.344',3.45
'0:18.348',2.4
'0:18.352',0.99
'0:18.355',1.11
'0:18.359',1.78
'0:18.363',1.83
'0:18.367',1.65
'0:18.371',1.83
'0:18.375',1.27
'0:18.379',0.4
'0:18.383',0.38
'0:18.387',1.33
'0:18.391',2.25
'0:18.395',2.64
'0:18.398',2.55
'0:18.402',2.24
'0:18.406',2.3
'0:18.410',2.19
'0:18.414',1.53
'0:18.418',1.35
'0:18.422',1.49
'0:18.426',1.53
'0:18.430',0.45
'0:18.434',-0.76
'0:18.438',-1.6
'0:18.441',-2.15
'0:18.445',-2.26
'0:18.449',-2.09
'0:18.453',-1.95
'0:18.457',-2.21
'0:18.461',-1.93
'0:18.465',-1.76
'0:18.469',-1.8
'0:18.473',-2.22
'0:18.477',-2.84
'0:18.480',-3.03
'0:18.484',-3.55
'0:18.488',-3.33
'0:18.492',-2.42
'0:18.496',-1.5
'0:18.500',0
'0:18.504',2.8
'0:18.508',6.58
'0:18.512',10.18
'0:18.516',11.41
'0:18.520',9.45
'0:18.523',5.53
'0:18.527',0.61
'0:18.531',-3.57
'0:18.535',-6.17
'0:18.539',-7.68
'0:18.543',-8.25
'0:18.547',-7.51
'0:18.551',-6.12
'0:18.555',-4.86
'0:18.559',-4.03
'0:18.563',-3.33
'0:18.566',-2.78
'0:18.570',-2.26
'0:18.574',-1.74
'0:18.578',-1.16
'0:18.582',-1.09
'0:18.586',-0.97
'0:18.590',-0.79
'0:18.594',-0.5
'0:18.598',0.38
'0:18.602',1.31
'0:18.605',1.98
'0:18.609',2.52
'0:18.613',2.86
'0:18.617',3.15
'0:18.621',3.67
'0:18.625',4.32
'0:18.629',4.69
'0:18.633',5.26
'0:18.637',6.13
'0:18.641',6.72
'0:18.645',6.56
'0:18.648',5.96
'0:18.652',5.29
'0:18.656',4.57
'0:18.660',3.74
'0:18.664',2.75
'0:18.668',1.8
'0:18.672',0.99
'0:18.676',0.71
'0:18.680',0.89
'0:18.684',0.62
'0:18.688',0.17
'0:18.691',-0.2
'0:18.695',-0.56
'0:18.699',-0.47
'0:18.703',0.02
'0:18.707',0.01
'0:18.711',-0.21
'0:18.715',-0.03
'0:18.719',0.16
'0:18.723',-0.5
'0:18.727',-0.71
'0:18.730',-1.17
'0:18.734',-2.09
'0:18.738',-3.25
'0:18.742',-3.61
'0:18.746',-3.93
'0:18.750',-3.87
'0:18.754',-3.67
'0:18.758',-3.8
'0:18.762',-4.39
'0:18.766',-4.45
'0:18.770',-4.66
'0:18.773',-4.2
'0:18.777',-3.61
'0:18.781',-2.63
'0:18.785',-3.37
'0:18.789',-4
'0:18.793',-3.78
'0:18.797',-2.38
'0:18.801',0.21
'0:18.805',3.97
'0:18.809',8.05
'0:18.813',10.7
'0:18.816',10.25
'0:18.820',7.44
'0:18.824',1.89
'0:18.828',-4.22
'0:18.832',-8.44
'0:18.836',-10.71
'0:18.840',-11.59
'0:18.844',-10.64
'0:18.848',-8.92
'0:18.852',-7.26
'0:18.855',-5.68
'0:18.859',-4.36
'0:18.863',-3.3
'0:18.867',-2.4
'0:18.871',-1.67
'0:18.875',-1.12
'0:18.879',-1.02
'0:18.883',-0.72
'0:18.887',-0.25
'0:18.891',0.41
'0:18.895',1.11
'0:18.898',1.5
'0:18.902',1.99
'0:18.906',2.49
'0:18.910',2.89
'0:18.914',3.15
'0:18.918',3.38
'0:18.922',3.72
'0:18.926',4.04
'0:18.930',4.87
'0:18.934',5.71
'0:18.938',5.7
'0:18.941',5.18
'0:18.945',4.69
'0:18.949',3.94
'0:18.953',3.71
'0:18.957',3.48
'0:18.961',2.87
'0:18.965',2.19
'0:18.969',2.06
'0:18.973',2.26
'0:18.977',1.53
'0:18.980',0.36
'0:18.984',0.15
'0:18.988',0.28
'0:18.992',0.4
'0:18.996',0.92
'0:19.000',1.17
'0:19.004',1
'0:19.008',0.98
'0:19.012',1.32
'0:19.016',1.56
'0:19.020',1.36
'0:19.023',0.97
'0:19.027',0.47
'0:19.031',0.47
'0:19.035',-0.21
'0:19.039',-1.73
'0:19.043',-3.06
'0:19.047',-3.78
'0:19.051',-3.76
'0:19.055',-3.54
'0:19.059',-3.93
'0:19.063',-4.34
'0:19.066',-4.37
'0:19.070',-4.56
'0:19.074',-4.7
'0:19.078',-4.43
'0:19.082',-4.57
'0:19.086',-4.56
'0:19.090',-3.75
'0:19.094',-2.86
'0:19.098',-2.09
'0:19.102',-1.73
'0:19.105',4.99
'0:19.109',8.5
'0:19.113',11.16
'0:19.117',11.41
'0:19.121',9.31
'0:19.125',4.99
'0:19.129',0.25
'0:19.133',-3.66
'0:19.137',-6.48
'0:19.141',-8.07
'0:19.145',-8.56
'0:19.148',-8.06
'0:19.152',-6.57
'0:19.156',-5.24
'0:19.160',-4.17
'0:19.164',-3.33
'0:19.168',-2.56
'0:19.172',-1.89
'0:19.176',-1.46
'0:19.180',-1.38
'0:19.184',-1.51
'0:19.188',-1.46
'0:19.191',-0.56
'0:19.195',0.32
'0:19.199',0.87
'0:19.203',1.65
'0:19.207',1.87
'0:19.211',1.13
'0:19.215',0.9
'0:19.219',0.65
'0:19.223',0.83
'0:19.227',2.23
'0:19.230',3.24
'0:19.234',2.95
'0:19.238',2.55
'0:19.242',1.94
'0:19.246',1.56
'0:19.250',1.68
'0:19.254',1.82
'0:19.258',1.63
'0:19.262',1.88
'0:19.266',2.44
'0:19.270',2.09
'0:19.273',1.28
'0:19.277',1.06
'0:19.281',1.27
'0:19.285',1.16
'0:19.289',0.64
'0:19.293',-0.37
'0:19.297',-0.14
'0:19.301',0.9
'0:19.305',1.14
'0:19.309',1.24
'0:19.313',2.18
'0:19.316',2.9
'0:19.320',3.08
'0:19.324',2.75
'0:19.328',1.95
'0:19.332',1.15
'0:19.336',0.32
'0:19.340',-0.15
'0:19.344',-0.45
'0:19.348',-0.82
'0:19.352',-1.29
'0:19.355',-1.57
'0:19.359',-1.68
'0:19.363',-2.12
'0:19.367',-2.52
'0:19.371',-2.93
'0:19.375',-3.36
'0:19.379',-3.52
'0:19.383',-3.68
'0:19.387',-3.27
'0:19.391',-2.58
'0:19.395',-1.88
'0:19.398',-0.52
'0:19.402',2.33
'0:19.406',5.96
'0:19.410',10.08
'0:19.414',12.96
'0:19.418',12.9
'0:19.422',9.55
'0:19.426',4.2
'0:19.430',-0.74
'0:19.434',-4.68
'0:19.438',-7.09
'0:19.441',-7.88
'0:19.445',-7.48
'0:19.449',-6.75
'0:19.453',-5.44
'0:19.457',-3.82
'0:19.461',-2.88
'0:19.465',-2.26
'0:19.469',-1.5
'0:19.473',-0.89
'0:19.477',-0.41
'0:19.480',-0.29
'0:19.484',-0.15
'0:19.488',0.24
'0:19.492',0.4
'0:19.496',0.42
'0:19.500',0.41
'0:19.504',0.45
'0:19.508',0.82
'0:19.512',1.44
'0:19.516',2.07
'0:19.520',2.54
'0:19.523',2.91
'0:19.527',3.23
