'0:00.000',-0.53
'0:00.004',-1.25
'0:00.008',-1.93
'0:00.012',-1.45
'0:00.016',-0.61
'0:00.020',1.08
'0:00.023',1.32
'0:00.027',0.79
'0:00.031',0.58
'0:00.035',0.75
'0:00.039',0.69
'0:00.043',0.79
'0:00.047',1.14
'0:00.051',1.62
'0:00.055',2.01
'0:00.059',2.25
'0:00.063',2.83
'0:00.066',3.34
'0:00.070',3.12
'0:00.074',2.82
'0:00.078',2.28
'0:00.082',1.57
'0:00.086',1.02
'0:00.090',-0.22
'0:00.094',-1.6
'0:00.098',-2.4
'0:00.102',-2.75
'0:00.105',-3.22
'0:00.109',-3.66
'0:00.113',-3.54
'0:00.117',-3.51
'0:00.121',-3.79
'0:00.125',-3.57
'0:00.129',-3.1
'0:00.133',-3.1
'0:00.137',-3.39
'0:00.141',-3.5
'0:00.145',-3.53
'0:00.148',-3.47
'0:00.152',-3.27
'0:00.156',-3.11
'0:00.160',-3.07
'0:00.164',-3.12
'0:00.168',-3.06
'0:00.172',-2.99
'0:00.176',-3.28
'0:00.180',-3.85
'0:00.184',-4.44
'0:00.188',-5.01
'0:00.191',-5.43
'0:00.195',-5.69
'0:00.199',-5.7
'0:00.203',-5.59
'0:00.207',-5.53
'0:00.211',-5.42
'0:00.215',-5.2
'0:00.219',-5.03
'0:00.223',-4.81
'0:00.227',-4.76
'0:00.230',-4.85
'0:00.234',-4.67
'0:00.238',-4.43
'0:00.242',-4.04
'0:00.246',-3.43
'0:00.250',-1.72
'0:00.254',1.07
'0:00.258',4.59
'0:00.262',8.4
'0:00.266',12.2
'0:00.270',14.2
'0:00.273',12.81
'0:00.277',8.57
'0:00.281',2.97
'0:00.285',-2.57
'0:00.289',-7
'0:00.293',-9.33
'0:00.297',-9.95
'0:00.301',-9.17
'0:00.305',-7.61
'0:00.309',-5.82
'0:00.313',-3.91
'0:00.316',-2.15
'0:00.320',-0.83
'0:00.324',0.35
'0:00.328',1.23
'0:00.332',1.75
'0:00.336',1.97
'0:00.340',2.22
'0:00.344',2.71
'0:00.348',3.21
'0:00.352',3.59
'0:00.355',3.88
'0:00.359',4.19
'0:00.363',4.56
'0:00.367',4.8
'0:00.371',4.91
'0:00.375',4.99
'0:00.379',5.04
'0:00.383',5.21
'0:00.387',5.51
'0:00.391',5.96
'0:00.395',6.42
'0:00.398',6.62
'0:00.402',6.76
'0:00.406',7.04
'0:00.410',7.39
'0:00.414',7.59
'0:00.418',7.82
'0:00.422',8.1
'0:00.426',8.15
'0:00.430',7.99
'0:00.434',7.73
'0:00.438',7.37
'0:00.441',6.82
'0:00.445',6.01
'0:00.449',5.2
'0:00.453',4.41
'0:00.457',3.34
'0:00.461',2.46
'0:00.465',2.08
'0:00.469',2.08
'0:00.473',1.97
'0:00.477',1.84
'0:00.480',1.63
'0:00.484',1.43
'0:00.488',1.16
'0:00.492',1.14
'0:00.496',1.19
'0:00.500',1.27
'0:00.504',1.26
'0:00.508',1.27
'0:00.512',1.27
'0:00.516',1.09
'0:00.520',0.69
'0:00.523',0.43
'0:00.527',0.1
'0:00.531',-0.34
'0:00.535',-0.89
'0:00.539',-1.33
'0:00.543',-1.86
'0:00.547',-2.36
'0:00.551',-2.86
'0:00.555',-3.2
'0:00.559',-3.42
'0:00.563',-3.53
'0:00.566',-3.5
'0:00.570',-3.61
'0:00.574',-4.01
'0:00.578',-4.21
'0:00.582',-4.16
'0:00.586',-4.25
'0:00.590',-4.24
'0:00.594',-4.3
'0:00.598',-4.16
'0:00.602',-3.48
'0:00.605',-2.49
'0:00.609',-1.33
'0:00.613',1.06
'0:00.617',4.78
'0:00.621',9
'0:00.625',12.78
'0:00.629',14.42
'0:00.633',13.01
'0:00.637',8.91
'0:00.641',2.31
'0:00.645',-4.53
'0:00.648',-9.4
'0:00.652',-11.97
'0:00.656',-12.69
'0:00.660',-12.3
'0:00.664',-11.43
'0:00.668',-10.09
'0:00.672',-8.76
'0:00.676',-7.43
'0:00.680',-6.25
'0:00.684',-5.33
'0:00.688',-4.59
'0:00.691',-4.12
'0:00.695',-3.64
'0:00.699',-3.25
'0:00.703',-3.1
'0:00.707',-2.95
'0:00.711',-2.52
'0:00.715',-1.95
'0:00.719',-1.63
'0:00.723',-1.11
'0:00.727',-0.83
'0:00.730',-0.68
'0:00.734',-0.28
'0:00.738',0.22
'0:00.742',0.73
'0:00.746',1.08
'0:00.750',1.28
'0:00.754',1.8
'0:00.758',2.53
'0:00.762',3.13
'0:00.766',3.41
'0:00.770',3.65
'0:00.773',3.79
'0:00.777',3.92
'0:00.781',4.04
'0:00.785',4.18
'0:00.789',4.2
'0:00.793',4.02
'0:00.797',3.64
'0:00.801',3.07
'0:00.805',2.41
'0:00.809',1.82
'0:00.813',1.26
'0:00.816',0.86
'0:00.820',0.59
'0:00.824',0.67
'0:00.828',0.6
'0:00.832',0.31
'0:00.836',0.11
'0:00.840',0.11
'0:00.844',0.52
'0:00.848',1.1
'0:00.852',1.55
'0:00.855',1.55
'0:00.859',1.46
'0:00.863',1.42
'0:00.867',1.31
'0:00.871',1.2
'0:00.875',1.15
'0:00.879',1.18
'0:00.883',1.3
'0:00.887',1.45
'0:00.891',1.38
'0:00.895',1.05
'0:00.898',0.79
'0:00.902',0.45
'0:00.906',-0.33
'0:00.910',-1.5
'0:00.914',-2.5
'0:00.918',-2.93
'0:00.922',-2.88
'0:00.926',-2.02
'0:00.930',-1.01
'0:00.934',-1.09
'0:00.938',-1.94
'0:00.941',-2.58
'0:00.945',-2.73
'0:00.949',-2.75
'0:00.953',-2.72
'0:00.957',-2.29
'0:00.961',-1.37
'0:00.965',-0.02
'0:00.969',1.72
'0:00.973',4.16
'0:00.977',7.65
'0:00.980',11.49
'0:00.984',14.27
'0:00.988',14.47
'0:00.992',11.43
'0:00.996',5.75
'0:01.000',-0.94
'0:01.004',-6.73
'0:01.008',-10.27
'0:01.012',-11.96
'0:01.016',-12.38
'0:01.020',-11.69
'0:01.023',-10.48
'0:01.027',-9.25
'0:01.031',-8
'0:01.035',-6.85
'0:01.039',-5.76
'0:01.043',-4.79
'0:01.047',-4.29
'0:01.051',-3.98
'0:01.055',-3.84
'0:01.059',-3.43
'0:01.063',-2.75
'0:01.066',-1.95
'0:01.070',-1.23
'0:01.074',-1.04
'0:01.078',-1.28
'0:01.082',-1.52
'0:01.086',-1.26
'0:01.090',-0.96
'0:01.094',-0.7
'0:01.098',-0.06
'0:01.102',0.94
'0:01.105',1.32
'0:01.109',1.11
'0:01.113',1.64
'0:01.117',2.85
'0:01.121',3.79
'0:01.125',4.71
'0:01.129',5.65
'0:01.133',6.1
'0:01.137',6.23
'0:01.141',6.27
'0:01.145',6.22
'0:01.148',6.17
'0:01.152',5.92
'0:01.156',5.42
'0:01.160',4.93
'0:01.164',4.55
'0:01.168',4.04
'0:01.172',3.3
'0:01.176',2.55
'0:01.180',1.94
'0:01.184',1.47
'0:01.188',1.16
'0:01.191',1.13
'0:01.195',1.17
'0:01.199',1.1
'0:01.203',1.06
'0:01.207',1.13
'0:01.211',1.33
'0:01.215',1.59
'0:01.219',1.84
'0:01.223',1.97
'0:01.227',1.75
'0:01.230',1.18
'0:01.234',0.53
'0:01.238',0.06
'0:01.242',-0.45
'0:01.246',-0.87
'0:01.250',-1.4
'0:01.254',-1.43
'0:01.258',-1.07
'0:01.262',-0.86
'0:01.266',-1.04
'0:01.270',-1.48
'0:01.273',-1.81
'0:01.277',-1.98
'0:01.281',-2.25
'0:01.285',-2.43
'0:01.289',-2.44
'0:01.293',-2.45
'0:01.297',-2.57
'0:01.301',-2.79
'0:01.305',-2.92
'0:01.309',-3.03
'0:01.313',-3.05
'0:01.316',-2.83
'0:01.320',-2.22
'0:01.324',-1.03
'0:01.328',0.95
'0:01.332',4.06
'0:01.336',7.91
'0:01.340',11.39
'0:01.344',13.34
'0:01.348',11.99
'0:01.352',7.42
'0:01.355',1.45
'0:01.359',-4.34
'0:01.363',-8.96
'0:01.367',-11.33
'0:01.371',-11.74
'0:01.375',-11.15
'0:01.379',-10.07
'0:01.383',-8.57
'0:01.387',-6.91
'0:01.391',-5.5
'0:01.395',-4.42
'0:01.398',-3.66
'0:01.402',-3.03
'0:01.406',-2.58
'0:01.410',-2.28
'0:01.414',-2.08
'0:01.418',-1.82
'0:01.422',-1.52
'0:01.426',-1.33
'0:01.430',-1.18
'0:01.434',-0.95
'0:01.438',-0.81
'0:01.441',-0.56
'0:01.445',-0.12
'0:01.449',0.21
'0:01.453',0.47
'0:01.457',0.7
'0:01.461',0.94
'0:01.465',1.28
'0:01.469',1.91
'0:01.473',2.57
'0:01.477',3.18
'0:01.480',3.74
'0:01.484',4.33
'0:01.488',4.66
'0:01.492',4.86
'0:01.496',5.12
'0:01.500',5.4
'0:01.504',5.33
'0:01.508',4.99
'0:01.512',4.34
'0:01.516',3.53
'0:01.520',2.92
'0:01.523',2.37
'0:01.527',1.86
'0:01.531',1
'0:01.535',0.08
'0:01.539',-0.25
'0:01.543',-0.4
'0:01.547',-0.42
'0:01.551',-0.49
'0:01.555',-0.65
'0:01.559',-0.66
'0:01.563',-0.4
'0:01.566',-0.02
'0:01.570',0.25
'0:01.574',0.18
'0:01.578',0.02
'0:01.582',-0.02
'0:01.586',-0.13
'0:01.590',-0.32
'0:01.594',-0.64
'0:01.598',-0.88
'0:01.602',-1.01
'0:01.605',-1.33
'0:01.609',-1.75
'0:01.613',-2.17
'0:01.617',-2.7
'0:01.621',-3.16
'0:01.625',-3.66
'0:01.629',-4.19
'0:01.633',-4.47
'0:01.637',-3.72
'0:01.641',-2.86
'0:01.645',-2.92
'0:01.648',-3.83
'0:01.652',-4.78
'0:01.656',-5.31
'0:01.660',-5.31
'0:01.664',-5.42
'0:01.668',-5.43
'0:01.672',-5.41
'0:01.676',-5.21
'0:01.680',-4.44
'0:01.684',-2.84
'0:01.688',-0.34
'0:01.691',3.57
'0:01.695',8.12
'0:01.699',11.72
'0:01.703',12.49
'0:01.707',10.26
'0:01.711',5.69
'0:01.715',-0.21
'0:01.719',-6.14
'0:01.723',-10.78
'0:01.727',-13.3
'0:01.730',-14.23
'0:01.734',-13.96
'0:01.738',-12.95
'0:01.742',-11.37
'0:01.746',-9.68
'0:01.750',-8.27
'0:01.754',-6.66
'0:01.758',-5.3
'0:01.762',-4.74
'0:01.766',-4.47
'0:01.770',-4.65
'0:01.773',-4.84
'0:01.777',-4.76
'0:01.781',-4.17
'0:01.785',-3.43
'0:01.789',-3.17
'0:01.793',-3.37
'0:01.797',-3.46
'0:01.801',-3.56
'0:01.805',-3.63
'0:01.809',-3.09
'0:01.813',-2.1
'0:01.816',-1.62
'0:01.820',-1.22
'0:01.824',-0.68
'0:01.828',-0.4
'0:01.832',-0.28
'0:01.836',-0.13
'0:01.840',0.28
'0:01.844',0.97
'0:01.848',1.71
'0:01.852',2.05
'0:01.855',2.1
'0:01.859',2.06
'0:01.863',2.27
'0:01.867',2.08
'0:01.871',1.57
'0:01.875',1.05
'0:01.879',0.54
'0:01.883',0.13
'0:01.887',-0.24
'0:01.891',-0.38
'0:01.895',-0.48
'0:01.898',-0.53
'0:01.902',-0.45
'0:01.906',-0.18
'0:01.910',-0.03
'0:01.914',0.03
'0:01.918',0.05
'0:01.922',0.16
'0:01.926',0.62
'0:01.930',1.1
'0:01.934',1.51
'0:01.938',1.84
'0:01.941',1.79
'0:01.945',1.67
'0:01.949',1.9
'0:01.953',2.16
'0:01.957',2.15
'0:01.961',2.08
'0:01.965',2.16
'0:01.969',1.98
'0:01.973',1.64
'0:01.977',1.32
'0:01.980',1.11
'0:01.984',0.92
'0:01.988',0.69
'0:01.992',0.79
'0:01.996',1.07
'0:02.000',1.08
'0:02.004',1.16
'0:02.008',1.35
'0:02.012',1.55
'0:02.016',1.68
'0:02.020',1.81
'0:02.023',1.92
'0:02.027',1.74
'0:02.031',1.82
'0:02.035',2.39
'0:02.039',3.28
'0:02.043',4.65
'0:02.047',7.18
'0:02.051',10.61
'0:02.055',14.48
'0:02.059',17.52
'0:02.063',18.31
'0:02.066',16.19
'0:02.070',11.26
'0:02.074',4.56
'0:02.078',-1.61
'0:02.082',-5.88
'0:02.086',-8.05
'0:02.090',-8.51
'0:02.094',-8
'0:02.098',-6.88
'0:02.102',-5.47
'0:02.105',-4.06
'0:02.109',-2.84
'0:02.113',-1.85
'0:02.117',-1.08
'0:02.121',-0.47
'0:02.125',0
'0:02.129',0.25
'0:02.133',0.38
'0:02.137',0.71
'0:02.141',1.05
'0:02.145',1.26
'0:02.148',1.34
'0:02.152',1.41
'0:02.156',1.55
'0:02.160',1.95
'0:02.164',2.41
'0:02.168',2.65
'0:02.172',2.82
'0:02.176',3.14
'0:02.180',3.64
'0:02.184',3.96
'0:02.188',4.1
'0:02.191',4.05
'0:02.195',4.06
'0:02.199',4.35
'0:02.203',4.93
'0:02.207',5.44
'0:02.211',5.64
'0:02.215',5.47
'0:02.219',5.3
'0:02.223',5.04
'0:02.227',4.75
'0:02.230',4.28
'0:02.234',3.91
'0:02.238',3.64
'0:02.242',3.34
'0:02.246',2.91
'0:02.250',2.4
'0:02.254',1.99
'0:02.258',1.79
'0:02.262',1.77
'0:02.266',1.92
'0:02.270',1.79
'0:02.273',1.68
'0:02.277',1.74
'0:02.281',2
'0:02.285',2.44
'0:02.289',2.7
'0:02.293',2.83
'0:02.297',2.92
'0:02.301',2.76
'0:02.305',2.26
'0:02.309',1.67
'0:02.313',1.23
'0:02.316',0.64
'0:02.320',-0.02
'0:02.324',-0.19
'0:02.328',-0.21
'0:02.332',-0.57
'0:02.336',-1.13
'0:02.340',-1.74
'0:02.344',-2.12
'0:02.348',-2.06
'0:02.352',-2.06
'0:02.355',-2.38
'0:02.359',-2.82
'0:02.363',-2.94
'0:02.367',-3.09
'0:02.371',-3.01
'0:02.375',-2.69
'0:02.379',-2.69
'0:02.383',-2.91
'0:02.387',-3.13
'0:02.391',-2.96
'0:02.395',-2.03
'0:02.398',-0.86
'0:02.402',0.96
'0:02.406',4.07
'0:02.410',8.04
'0:02.414',12.03
'0:02.418',14.58
'0:02.422',13.92
'0:02.426',9.91
'0:02.430',3.79
'0:02.434',-2.48
'0:02.438',-7.6
'0:02.441',-10.86
'0:02.445',-12.16
'0:02.449',-11.8
'0:02.453',-10.58
'0:02.457',-9.12
'0:02.461',-7.6
'0:02.465',-5.96
'0:02.469',-4.74
'0:02.473',-4.06
'0:02.477',-3.75
'0:02.480',-2.95
'0:02.484',-2.02
'0:02.488',-1.36
'0:02.492',-0.82
'0:02.496',-0.89
'0:02.500',-1.32
'0:02.504',-1.45
'0:02.508',-1.57
'0:02.512',-1.77
'0:02.516',-1.29
'0:02.520',-0.46
'0:02.523',0.36
'0:02.527',1.66
'0:02.531',2.44
'0:02.535',2.29
'0:02.539',1.67
'0:02.543',1.19
'0:02.547',1.71
'0:02.551',2.49
'0:02.555',2.76
'0:02.559',2.82
'0:02.563',3.07
'0:02.566',3.85
'0:02.570',4.45
'0:02.574',4.73
'0:02.578',5.18
'0:02.582',5.1
'0:02.586',4.39
'0:02.590',3.28
'0:02.594',2.1
'0:02.598',1.49
'0:02.602',1.18
'0:02.605',0.96
'0:02.609',0.61
'0:02.613',0.2
'0:02.617',-0.3
'0:02.621',-1.21
'0:02.625',-2.56
'0:02.629',-3.2
'0:02.633',-3.08
'0:02.637',-3.01
'0:02.641',-3.22
'0:02.645',-3.9
'0:02.648',-5.12
'0:02.652',-6.29
'0:02.656',-7.27
'0:02.660',-7.93
'0:02.664',-8.16
'0:02.668',-8.06
'0:02.672',-8.18
'0:02.676',-8.69
'0:02.680',-9.26
'0:02.684',-9.62
'0:02.688',-9.99
'0:02.691',-10.29
'0:02.695',-10.52
'0:02.699',-10.67
'0:02.703',-10.58
'0:02.707',-10.56
'0:02.711',-10.94
'0:02.715',-11.4
'0:02.719',-11.61
'0:02.723',-11.46
'0:02.727',-11.24
'0:02.730',-11.08
'0:02.734',-10.68
'0:02.738',-10.02
'0:02.742',-9.43
'0:02.746',-9.12
'0:02.750',-8.78
'0:02.754',-8.04
'0:02.758',-6.54
'0:02.762',-4.13
'0:02.766',-0.69
'0:02.770',3.51
'0:02.773',7.73
'0:02.777',10.75
'0:02.781',10.52
'0:02.785',6.72
'0:02.789',1.25
'0:02.793',-4.17
'0:02.797',-8.49
'0:02.801',-10.88
'0:02.805',-11.37
'0:02.809',-10.57
'0:02.813',-8.98
'0:02.816',-7.42
'0:02.820',-5.73
'0:02.824',-3.94
'0:02.828',-2.37
'0:02.832',-1.13
'0:02.836',0.02
'0:02.840',0.93
'0:02.844',1.77
'0:02.848',2.69
'0:02.852',3.42
'0:02.855',3.79
'0:02.859',4.01
'0:02.863',4.82
'0:02.867',5.71
'0:02.871',6.39
'0:02.875',6.69
'0:02.879',6.97
'0:02.883',7.22
'0:02.887',7.61
'0:02.891',8.08
'0:02.895',8.58
'0:02.898',9.08
'0:02.902',9.58
'0:02.906',10.17
'0:02.910',10.93
'0:02.914',11.53
'0:02.918',11.82
'0:02.922',11.85
'0:02.926',11.89
'0:02.930',11.96
'0:02.934',11.9
'0:02.938',11.56
'0:02.941',11.07
'0:02.945',10.61
'0:02.949',9.85
'0:02.953',8.9
'0:02.957',8
'0:02.961',7.16
'0:02.965',6.44
'0:02.969',5.88
'0:02.973',5.26
'0:02.977',4.65
'0:02.980',4.3
'0:02.984',4.13
'0:02.988',3.96
'0:02.992',3.89
'0:02.996',3.74
'0:03.000',3.63
'0:03.004',3.72
'0:03.008',3.87
'0:03.012',3.84
'0:03.016',3.59
'0:03.020',3.36
'0:03.023',3.07
'0:03.027',2.66
'0:03.031',2.26
'0:03.035',1.8
'0:03.039',1.57
'0:03.043',1.41
'0:03.047',0.9
'0:03.051',0.19
'0:03.055',-0.52
'0:03.059',-1.16
'0:03.063',-1.64
'0:03.066',-1.78
'0:03.070',-1.73
'0:03.074',-1.69
'0:03.078',-1.86
'0:03.082',-1.9
'0:03.086',-1.87
'0:03.090',-2.03
'0:03.094',-2.07
'0:03.098',-2.16
'0:03.102',-2.35
'0:03.105',-2.66
'0:03.109',-2.73
'0:03.113',-2.19
'0:03.117',-0.7
'0:03.121',1.74
'0:03.125',4.99
'0:03.129',8.77
'0:03.133',12.52
'0:03.137',14.7
'0:03.141',13.69
'0:03.145',9.53
'0:03.148',3.43
'0:03.152',-2.88
'0:03.156',-8.02
'0:03.160',-10.84
'0:03.164',-11.59
'0:03.168',-11.26
'0:03.172',-10.46
'0:03.176',-9.09
'0:03.180',-7.62
'0:03.184',-6.3
'0:03.188',-4.96
'0:03.191',-3.75
'0:03.195',-3.09
'0:03.199',-2.7
'0:03.203',-2.36
'0:03.207',-2.01
'0:03.211',-1.74
'0:03.215',-1.38
'0:03.219',-1.19
'0:03.223',-1.12
'0:03.227',-0.88
'0:03.230',-0.77
'0:03.234',-0.44
'0:03.238',0.27
'0:03.242',0.51
'0:03.246',0.58
'0:03.250',0.68
'0:03.254',0.99
'0:03.258',1.38
'0:03.262',1.65
'0:03.266',2.21
'0:03.270',2.67
'0:03.273',2.91
'0:03.277',3.26
'0:03.281',3.49
'0:03.285',3.81
'0:03.289',4.17
'0:03.293',4.34
'0:03.297',4.07
'0:03.301',3.46
'0:03.305',3
'0:03.309',2.65
'0:03.313',2.32
'0:03.316',1.55
'0:03.320',0.83
'0:03.324',0.29
'0:03.328',-0.1
'0:03.332',-0.54
'0:03.336',-0.85
'0:03.340',-1.13
'0:03.344',-1.15
'0:03.348',-0.91
'0:03.352',-0.66
'0:03.355',-0.54
'0:03.359',-0.16
'0:03.363',0.17
'0:03.367',0.34
'0:03.371',0.58
'0:03.375',0.76
'0:03.379',0.68
'0:03.383',0.25
'0:03.387',-0.4
'0:03.391',-0.98
'0:03.395',-1.53
'0:03.398',-1.93
'0:03.402',-1.89
'0:03.406',-1.21
'0:03.410',-0.9
'0:03.414',-1.86
'0:03.418',-3.09
'0:03.422',-3.73
'0:03.426',-3.65
'0:03.430',-3.11
'0:03.434',-3.18
'0:03.438',-3.3
'0:03.441',-3.61
'0:03.445',-4.17
'0:03.449',-4.52
'0:03.453',-4.54
'0:03.457',-4.23
'0:03.461',-3.89
'0:03.465',-3.25
'0:03.469',-1.86
'0:03.473',-0.08
'0:03.477',1.34
'0:03.480',3.58
'0:03.484',6.66
'0:03.488',10.46
'0:03.492',14.43
'0:03.496',16.17
'0:03.500',13.03
'0:03.504',5.28
'0:03.508',-2.89
'0:03.512',-9.4
'0:03.516',-13.3
'0:03.520',-14.7
'0:03.523',-14.75
'0:03.527',-14.02
'0:03.531',-12.89
'0:03.535',-11.47
'0:03.539',-9.97
'0:03.543',-8.56
'0:03.547',-7.51
'0:03.551',-6.89
'0:03.555',-6.33
'0:03.559',-5.73
'0:03.563',-5.25
'0:03.566',-4.82
'0:03.570',-4.26
'0:03.574',-3.69
'0:03.578',-3.41
'0:03.582',-3.57
'0:03.586',-3.68
'0:03.590',-3.1
'0:03.594',-2.35
'0:03.598',-1.7
'0:03.602',-1.48
'0:03.605',-1.6
'0:03.609',-1.43
'0:03.613',-0.79
'0:03.617',0.11
'0:03.621',1.21
'0:03.625',2.3
'0:03.629',2.77
'0:03.633',3.01
'0:03.637',3.53
'0:03.641',4.12
'0:03.645',4.34
'0:03.648',4.18
'0:03.652',3.99
'0:03.656',4.33
'0:03.660',4.32
'0:03.664',4.18
'0:03.668',4.01
'0:03.672',3.83
'0:03.676',4.04
'0:03.680',4.28
'0:03.684',4.36
'0:03.688',4.06
'0:03.691',3.67
'0:03.695',3.61
'0:03.699',3.75
'0:03.703',3.85
'0:03.707',3.87
'0:03.711',4.13
'0:03.715',4.38
'0:03.719',4.62
'0:03.723',4.96
'0:03.727',5.12
'0:03.730',5.28
'0:03.734',5.29
'0:03.738',5
'0:03.742',4.51
'0:03.746',4.07
'0:03.750',3.74
'0:03.754',3.5
'0:03.758',3.4
'0:03.762',2.97
'0:03.766',2.23
'0:03.770',1.41
'0:03.773',0.27
'0:03.777',-0.26
'0:03.781',-0.09
'0:03.785',0.19
'0:03.789',0.08
'0:03.793',-0.13
'0:03.797',-0.16
'0:03.801',-0.37
'0:03.805',-0.76
'0:03.809',-0.93
'0:03.813',-0.69
'0:03.816',-0.86
'0:03.820',-1.23
'0:03.824',-1.1
'0:03.828',-0.52
'0:03.832',0.67
'0:03.836',2.64
'0:03.840',5.62
'0:03.844',9.14
'0:03.848',12.57
'0:03.852',14.66
'0:03.855',13.46
'0:03.859',9.18
'0:03.863',3.27
'0:03.867',-3.01
'0:03.871',-8.4
'0:03.875',-11
'0:03.879',-10.75
'0:03.883',-9.29
'0:03.887',-7.73
'0:03.891',-6.2
'0:03.895',-4.82
'0:03.898',-3.73
'0:03.902',-2.9
'0:03.906',-2.12
'0:03.910',-1.51
'0:03.914',-1.03
'0:03.918',-0.83
'0:03.922',-0.6
'0:03.926',-0.08
'0:03.930',0.19
'0:03.934',0.5
'0:03.938',0.73
'0:03.941',0.89
'0:03.945',0.99
'0:03.949',1.07
'0:03.953',0.91
'0:03.957',0.78
'0:03.961',0.74
'0:03.965',1.08
'0:03.969',1.68
'0:03.973',2.43
'0:03.977',3.14
'0:03.980',3.72
'0:03.984',4.16
'0:03.988',4.66
'0:03.992',5.04
'0:03.996',5.26
'0:04.000',5.43
'0:04.004',5.6
'0:04.008',5.7
'0:04.012',5.39
'0:04.016',4.86
'0:04.020',4.29
'0:04.023',3.5
'0:04.027',2.55
'0:04.031',1.66
'0:04.035',0.89
'0:04.039',0.34
'0:04.043',-0.19
'0:04.047',-0.74
'0:04.051',-1.16
'0:04.055',-1.29
'0:04.059',-1.2
'0:04.063',-1.19
'0:04.066',-1.17
'0:04.070',-0.95
'0:04.074',-0.68
'0:04.078',-0.39
'0:04.082',-0.4
'0:04.086',-0.62
'0:04.090',-0.75
'0:04.094',-0.93
'0:04.098',-1.28
'0:04.102',-1.62
'0:04.105',-1.84
'0:04.109',-2.11
'0:04.113',-2.39
'0:04.117',-2.67
'0:04.121',-2.93
'0:04.125',-3.36
'0:04.129',-3.9
'0:04.133',-4.16
'0:04.137',-4.42
'0:04.141',-4.65
'0:04.145',-4.9
'0:04.148',-5.09
'0:04.152',-4.9
'0:04.156',-4.71
'0:04.160',-4.63
'0:04.164',-4.72
'0:04.168',-4.83
'0:04.172',-4.99
'0:04.176',-5.21
'0:04.180',-5.24
'0:04.184',-4.86
'0:04.188',-3.94
'0:04.191',-2.38
'0:04.195',-0.09
'0:04.199',3
'0:04.203',6.62
'0:04.207',10.24
'0:04.211',12.4
'0:04.215',11.14
'0:04.219',6.39
'0:04.223',0.11
'0:04.227',-5.48
'0:04.230',-9.34
'0:04.234',-11.37
'0:04.238',-11.95
'0:04.242',-10.8
'0:04.246',-9.4
'0:04.250',-7.78
'0:04.254',-7.1
'0:04.258',-6.19
'0:04.262',-5.34
'0:04.266',-4.7
'0:04.270',-4.19
'0:04.273',-3.58
'0:04.277',-2.67
'0:04.281',-1.84
'0:04.285',-1.37
'0:04.289',-1.33
'0:04.293',-1.36
'0:04.297',-1.41
'0:04.301',-1.53
'0:04.305',-1.31
'0:04.309',-0.84
'0:04.313',-0.58
'0:04.316',-0.46
'0:04.320',-0.07
'0:04.324',0.56
'0:04.328',1.28
'0:04.332',2.11
'0:04.336',2.84
'0:04.340',2.79
'0:04.344',2.57
'0:04.348',2.7
'0:04.352',3.16
'0:04.355',3.71
'0:04.359',4.85
'0:04.363',5.49
'0:04.367',4.49
'0:04.371',2.88
'0:04.375',1.51
'0:04.379',0.56
'0:04.383',0.23
'0:04.387',0.24
'0:04.391',-0.05
'0:04.395',-0.8
'0:04.398',-2.13
'0:04.402',-3.99
'0:04.406',-5.02
'0:04.410',-5.17
'0:04.414',-4.84
'0:04.418',-4.59
'0:04.422',-4.69
'0:04.426',-5.01
'0:04.430',-4.97
'0:04.434',-4.66
'0:04.438',-4.35
'0:04.441',-3.91
'0:04.445',-3.64
'0:04.449',-3.65
'0:04.453',-3.93
'0:04.457',-4.47
'0:04.461',-4.76
'0:04.465',-4.91
'0:04.469',-5.01
'0:04.473',-5.02
'0:04.477',-4.88
'0:04.480',-4.92
'0:04.484',-5.09
'0:04.488',-5.47
'0:04.492',-5.67
'0:04.496',-5.84
'0:04.500',-6.18
'0:04.504',-6.05
'0:04.508',-5.62
'0:04.512',-5.36
'0:04.516',-5.38
'0:04.520',-5.27
'0:04.523',-4.89
'0:04.527',-4.54
'0:04.531',-4.31
'0:04.535',-3.8
'0:04.539',-2.97
'0:04.543',-1.85
'0:04.547',-0.06
'0:04.551',2.25
'0:04.555',5.55
'0:04.559',9.79
'0:04.563',13.87
'0:04.566',15.81
'0:04.570',15.07
'0:04.574',11.51
'0:04.578',6.07
'0:04.582',0.4
'0:04.586',-3.71
'0:04.590',-5.75
'0:04.594',-5.99
'0:04.598',-5.33
'0:04.602',-4.35
'0:04.605',-2.9
'0:04.609',-1.32
'0:04.613',0.33
'0:04.617',1.84
'0:04.621',3.06
'0:04.625',3.79
'0:04.629',3.99
'0:04.633',4.35
'0:04.637',4.81
'0:04.641',5.14
'0:04.645',5.45
'0:04.648',5.53
'0:04.652',5.56
'0:04.656',5.61
'0:04.660',5.75
'0:04.664',5.93
'0:04.668',5.99
'0:04.672',5.77
'0:04.676',5.61
'0:04.680',5.63
'0:04.684',5.8
'0:04.688',5.99
'0:04.691',6.21
'0:04.695',6.4
'0:04.699',6.67
'0:04.703',6.91
'0:04.707',7.11
'0:04.711',7.37
'0:04.715',7.66
'0:04.719',7.75
'0:04.723',7.52
'0:04.727',7.41
'0:04.730',7.25
'0:04.734',6.8
'0:04.738',6.09
'0:04.742',5.25
'0:04.746',4.39
'0:04.750',3.52
'0:04.754',2.96
'0:04.758',2.67
'0:04.762',2.49
'0:04.766',2.32
'0:04.770',2.18
'0:04.773',2.08
'0:04.777',2.15
'0:04.781',2.25
'0:04.785',2.27
'0:04.789',2.41
'0:04.793',2.46
'0:04.797',2.46
'0:04.801',2.77
'0:04.805',2.86
'0:04.809',2.53
'0:04.813',2.11
'0:04.816',1.91
'0:04.820',1.93
'0:04.824',1.88
'0:04.828',1.57
'0:04.832',0.98
'0:04.836',0.08
'0:04.840',-0.8
'0:04.844',-1.37
'0:04.848',-1.7
'0:04.852',-1.99
'0:04.855',-2.31
'0:04.859',-2.48
'0:04.863',-2.53
'0:04.867',-2.65
'0:04.871',-2.61
'0:04.875',-2.5
'0:04.879',-2.51
'0:04.883',-2.52
'0:04.887',-2.65
'0:04.891',-2.75
'0:04.895',-2.62
'0:04.898',-2.02
'0:04.902',-0.63
'0:04.906',1.6
'0:04.910',4.71
'0:04.914',8.47
'0:04.918',12.31
'0:04.922',14.79
'0:04.926',14.25
'0:04.930',10.75
'0:04.934',5.39
'0:04.938',-0.76
'0:04.941',-5.97
'0:04.945',-9.01
'0:04.949',-10.04
'0:04.953',-9.65
'0:04.957',-8.8
'0:04.961',-7.66
'0:04.965',-6.35
'0:04.969',-5.11
'0:04.973',-3.96
'0:04.977',-2.95
'0:04.980',-2.26
'0:04.984',-1.67
'0:04.988',-1.07
'0:04.992',-0.55
'0:04.996',-0.39
'0:05.000',-0.46
'0:05.004',-0.4
'0:05.008',-0.2
'0:05.012',0
'0:05.016',0.2
'0:05.020',0.47
'0:05.023',0.74
'0:05.027',0.95
'0:05.031',1
'0:05.035',1.05
'0:05.039',0.93
'0:05.043',1.19
'0:05.047',2.18
'0:05.051',3.12
'0:05.055',3.67
'0:05.059',3.9
'0:05.063',4.02
'0:05.066',3.92
'0:05.070',4.09
'0:05.074',4.55
'0:05.078',4.73
'0:05.082',4.64
'0:05.086',4.33
'0:05.090',3.63
'0:05.094',2.66
'0:05.098',1.93
'0:05.102',1.59
'0:05.105',1.32
'0:05.109',1.02
'0:05.113',0.53
'0:05.117',-0.09
'0:05.121',-0.59
'0:05.125',-0.8
'0:05.129',-0.9
'0:05.133',-0.95
'0:05.137',-1.01
'0:05.141',-0.9
'0:05.145',-0.48
'0:05.148',0.06
'0:05.152',0.32
'0:05.156',-0.01
'0:05.160',0.3
'0:05.164',1.08
'0:05.168',0.38
'0:05.172',-1.56
'0:05.176',-3.03
'0:05.180',-3.67
'0:05.184',-3.87
'0:05.188',-3.64
'0:05.191',-3.13
'0:05.195',-2.45
'0:05.199',-2.4
'0:05.203',-3.5
'0:05.207',-5.4
'0:05.211',-6.79
'0:05.215',-7.51
'0:05.219',-7.58
'0:05.223',-7.08
'0:05.227',-6.55
'0:05.230',-6.1
'0:05.234',-6.27
'0:05.238',-6.8
'0:05.242',-7.51
'0:05.246',-7.58
'0:05.250',-6.84
'0:05.254',-6.29
'0:05.258',-6.14
'0:05.262',-5.04
'0:05.266',-1.68
'0:05.270',1.02
'0:05.273',2.13
'0:05.277',4.35
'0:05.281',6.01
'0:05.285',4.37
'0:05.289',-1.05
'0:05.293',-7.37
'0:05.297',-12.88
'0:05.301',-17.13
'0:05.305',-19.06
'0:05.309',-18.95
'0:05.313',-17.87
'0:05.316',-16.16
'0:05.320',-14.26
'0:05.324',-12.94
'0:05.328',-12.45
'0:05.332',-12.05
'0:05.336',-11.29
'0:05.340',-10.21
'0:05.344',-9.27
'0:05.348',-8.39
'0:05.352',-7.53
'0:05.355',-6.77
'0:05.359',-6.25
'0:05.363',-5.74
'0:05.367',-5.35
'0:05.371',-4.84
'0:05.375',-4.39
'0:05.379',-3.96
'0:05.383',-3.35
'0:05.387',-2.77
'0:05.391',-2.01
'0:05.395',-1.12
'0:05.398',-0.43
'0:05.402',0.21
'0:05.406',0.97
'0:05.410',1.99
'0:05.414',3.04
'0:05.418',3.97
'0:05.422',4.52
'0:05.426',5.08
'0:05.430',5.75
'0:05.434',6.27
'0:05.438',6.67
'0:05.441',6.9
'0:05.445',6.97
'0:05.449',7.14
'0:05.453',7.22
'0:05.457',7.07
'0:05.461',6.68
'0:05.465',5.87
'0:05.469',5.2
'0:05.473',4.82
'0:05.477',4.71
'0:05.480',4.73
'0:05.484',4.92
'0:05.488',5.24
'0:05.492',5.25
'0:05.496',5.4
'0:05.500',5.79
'0:05.504',5.99
'0:05.508',6.06
'0:05.512',5.97
'0:05.516',6.04
'0:05.520',6
'0:05.523',5.87
'0:05.527',5.71
'0:05.531',5.33
'0:05.535',4.89
'0:05.539',4.54
'0:05.543',4.13
'0:05.547',3.62
'0:05.551',3.12
'0:05.555',2.7
'0:05.559',2.31
'0:05.563',1.78
'0:05.566',1.16
'0:05.570',0.7
'0:05.574',0.42
'0:05.578',0.22
'0:05.582',0.21
'0:05.586',0.21
'0:05.590',0.04
'0:05.594',-0.11
'0:05.598',-0.26
'0:05.602',-0.48
'0:05.605',-0.73
'0:05.609',-0.68
'0:05.613',-0.13
'0:05.617',1.03
'0:05.621',2.9
'0:05.625',5.68
'0:05.629',9.01
'0:05.633',12.09
'0:05.637',14.02
'0:05.641',13.53
'0:05.645',10.41
'0:05.648',5.53
'0:05.652',0.06
'0:05.656',-4.84
'0:05.660',-8.15
'0:05.664',-9.65
'0:05.668',-9.47
'0:05.672',-8.28
'0:05.676',-6.87
'0:05.680',-5.43
'0:05.684',-3.95
'0:05.688',-2.69
'0:05.691',-1.9
'0:05.695',-1.42
'0:05.699',-0.87
'0:05.703',-0.4
'0:05.707',-0.1
'0:05.711',0.02
'0:05.715',0.33
'0:05.719',0.51
'0:05.723',0.75
'0:05.727',0.99
'0:05.730',1.07
'0:05.734',0.98
'0:05.738',1.12
'0:05.742',1.28
'0:05.746',1.55
'0:05.750',2.01
'0:05.754',2.31
'0:05.758',2.42
'0:05.762',2.6
'0:05.766',2.8
'0:05.770',3.23
'0:05.773',3.87
'0:05.777',4.26
'0:05.781',4.41
'0:05.785',4.5
'0:05.789',4.77
'0:05.793',4.97
'0:05.797',4.95
'0:05.801',4.84
'0:05.805',4.58
'0:05.809',3.95
'0:05.813',3.43
'0:05.816',3.03
'0:05.820',2.39
'0:05.824',1.69
'0:05.828',1.18
'0:05.832',0.7
'0:05.836',0.45
'0:05.840',0.31
'0:05.844',0.18
'0:05.848',0.33
'0:05.852',0.55
'0:05.855',0.61
'0:05.859',0.8
'0:05.863',1.12
'0:05.867',1.02
'0:05.871',0.6
'0:05.875',0.49
'0:05.879',0.34
'0:05.883',0.08
'0:05.887',0.14
'0:05.891',-0.15
'0:05.895',-0.45
'0:05.898',-0.63
'0:05.902',-1.07
'0:05.906',-1.59
'0:05.910',-1.94
'0:05.914',-2.53
'0:05.918',-3.36
'0:05.922',-3.97
'0:05.926',-4.25
'0:05.930',-4.17
'0:05.934',-4.1
'0:05.938',-4.17
'0:05.941',-4.45
'0:05.945',-4.39
'0:05.949',-4.17
'0:05.953',-4.15
'0:05.957',-4.3
'0:05.961',-4.36
'0:05.965',-4.25
'0:05.969',-3.68
'0:05.973',-2.67
'0:05.977',-0.97
'0:05.980',1.73
'0:05.984',5.29
'0:05.988',9.04
'0:05.992',11.99
'0:05.996',12.59
'0:06.000',10.3
'0:06.004',5.45
'0:06.008',-0.93
'0:06.012',-6.67
'0:06.016',-10.43
'0:06.020',-12.05
'0:06.023',-12.04
'0:06.027',-11.29
'0:06.031',-10.28
'0:06.035',-9.14
'0:06.039',-8.03
'0:06.043',-6.65
'0:06.047',-5.33
'0:06.051',-4.39
'0:06.055',-3.84
'0:06.059',-3.61
'0:06.063',-3.42
'0:06.066',-2.97
'0:06.070',-2.31
'0:06.074',-1.9
'0:06.078',-2.13
'0:06.082',-2.24
'0:06.086',-1.7
'0:06.090',-0.87
'0:06.094',-0.15
'0:06.098',-0.04
'0:06.102',-0.07
'0:06.105',0.42
'0:06.109',0.67
'0:06.113',0.32
'0:06.117',-0.06
'0:06.121',0.03
'0:06.125',0.63
'0:06.129',1.43
'0:06.133',2.29
'0:06.137',2.82
'0:06.141',2.97
'0:06.145',3.28
'0:06.148',3.67
'0:06.152',3.92
'0:06.156',4.05
'0:06.160',3.94
'0:06.164',3.37
'0:06.168',2.61
'0:06.172',1.8
'0:06.176',1.26
'0:06.180',0.73
'0:06.184',0.36
'0:06.188',0.25
'0:06.191',0.35
'0:06.195',0.26
'0:06.199',0.01
'0:06.203',-0.26
'0:06.207',-0.03
'0:06.211',0.27
'0:06.215',0.57
'0:06.219',0.97
'0:06.223',1.34
'0:06.227',1.35
'0:06.230',1.31
'0:06.234',1.26
'0:06.238',1.24
'0:06.242',1.14
'0:06.246',0.79
'0:06.250',0.52
'0:06.254',-0.09
'0:06.258',-0.4
'0:06.262',-0.48
'0:06.266',-0.6
'0:06.270',-1.03
'0:06.273',-1.64
'0:06.277',-2.06
'0:06.281',-2.23
'0:06.285',-2.4
'0:06.289',-2.64
'0:06.293',-2.85
'0:06.297',-2.62
'0:06.301',-2.28
'0:06.305',-2.26
'0:06.309',-2.34
'0:06.313',-2.31
'0:06.316',-2.4
'0:06.320',-2.39
'0:06.324',-2.16
'0:06.328',-1.11
'0:06.332',0.6
'0:06.336',2.99
'0:06.340',6.47
'0:06.344',10.8
'0:06.348',14.31
'0:06.352',15.01
'0:06.355',12.5
'0:06.359',7.94
'0:06.363',2.33
'0:06.367',-3.07
'0:06.371',-7.2
'0:06.375',-9.36
'0:06.379',-9.93
'0:06.383',-9.56
'0:06.387',-8.54
'0:06.391',-6.83
'0:06.395',-4.99
'0:06.398',-3.47
'0:06.402',-2.38
'0:06.406',-1.8
'0:06.410',-1.45
'0:06.414',-1.15
'0:06.418',-0.72
'0:06.422',-0.06
'0:06.426',0.38
'0:06.430',0.59
'0:06.434',0.56
'0:06.438',0.47
'0:06.441',0.51
'0:06.445',0.94
'0:06.449',1.34
'0:06.453',1.39
'0:06.457',1.61
'0:06.461',1.85
'0:06.465',2.07
'0:06.469',2.17
'0:06.473',2.27
'0:06.477',2.57
'0:06.480',3.14
'0:06.484',3.88
'0:06.488',4.54
'0:06.492',4.87
'0:06.496',4.92
'0:06.500',4.78
'0:06.504',4.7
'0:06.508',5.06
'0:06.512',5.38
'0:06.516',5.51
'0:06.520',5.21
'0:06.523',4.2
'0:06.527',2.94
'0:06.531',1.88
'0:06.535',1.25
'0:06.539',0.98
'0:06.543',0.79
'0:06.547',0.21
'0:06.551',-0.52
'0:06.555',-0.91
'0:06.559',-0.81
'0:06.563',-0.68
'0:06.566',-0.68
'0:06.570',-0.25
'0:06.574',0.05
'0:06.578',-0.02
'0:06.582',-0.38
'0:06.586',-0.65
'0:06.590',-0.44
'0:06.594',-0.25
'0:06.598',-0.19
'0:06.602',-0.3
'0:06.605',-0.81
'0:06.609',-1.43
'0:06.613',-2.1
'0:06.617',-2.59
'0:06.621',-2.98
'0:06.625',-3.26
'0:06.629',-3.55
'0:06.633',-3.68
'0:06.637',-3.69
'0:06.641',-4.24
'0:06.645',-4.81
'0:06.648',-4.78
'0:06.652',-4.37
'0:06.656',-3.93
'0:06.660',-3.87
'0:06.664',-3.92
'0:06.668',-3.59
'0:06.672',-3.39
'0:06.676',-3.67
'0:06.680',-3.69
'0:06.684',-2.97
'0:06.688',-1.5
'0:06.691',0.98
'0:06.695',4.65
'0:06.699',8.77
'0:06.703',12.75
'0:06.707',15.19
'0:06.711',13.97
'0:06.715',9.3
'0:06.719',3.04
'0:06.723',-3.08
'0:06.727',-7.74
'0:06.730',-10.2
'0:06.734',-11.07
'0:06.738',-10.91
'0:06.742',-9.9
'0:06.746',-8.66
'0:06.750',-7.26
'0:06.754',-5.7
'0:06.758',-4.46
'0:06.762',-3.72
'0:06.766',-2.97
'0:06.770',-2.21
'0:06.773',-1.6
'0:06.777',-1.48
'0:06.781',-1.57
'0:06.785',-1.25
'0:06.789',-0.7
'0:06.793',-0.2
'0:06.797',-0.26
'0:06.801',-0.29
'0:06.805',-0.07
'0:06.809',0.07
'0:06.813',0.45
'0:06.816',0.9
'0:06.820',1.16
'0:06.824',1.48
'0:06.828',1.65
'0:06.832',1.96
'0:06.836',2.53
'0:06.840',3.2
'0:06.844',3.72
'0:06.848',4.25
'0:06.852',4.74
'0:06.855',5.04
'0:06.859',5.08
'0:06.863',4.98
'0:06.867',4.72
'0:06.871',4.35
'0:06.875',3.87
'0:06.879',3.52
'0:06.883',3.13
'0:06.887',2.49
'0:06.891',1.59
'0:06.895',0.59
'0:06.898',-0.17
'0:06.902',-0.43
'0:06.906',-0.57
'0:06.910',-0.58
'0:06.914',-0.63
'0:06.918',-0.79
'0:06.922',-0.87
'0:06.926',-0.72
'0:06.930',-0.34
'0:06.934',-0.05
'0:06.938',0.02
'0:06.941',0.03
'0:06.945',-0.33
'0:06.949',-0.7
'0:06.953',-0.8
'0:06.957',-0.61
'0:06.961',-0.6
'0:06.965',-0.95
'0:06.969',-1.72
'0:06.973',-2.91
'0:06.977',-3.59
'0:06.980',-3.84
'0:06.984',-4.04
'0:06.988',-4.01
'0:06.992',-3.97
'0:06.996',-3.97
'0:07.000',-4.06
'0:07.004',-4.43
'0:07.008',-4.95
'0:07.012',-4.91
'0:07.016',-4.33
'0:07.020',-3.67
'0:07.023',-3.42
'0:07.027',-3.8
'0:07.031',-4.49
'0:07.035',-4.8
'0:07.039',-4.32
'0:07.043',-2.61
'0:07.047',-0.34
'0:07.051',2.97
'0:07.055',7.23
'0:07.059',11.33
'0:07.063',13.92
'0:07.066',13.37
'0:07.070',9.7
'0:07.074',4.18
'0:07.078',-1.95
'0:07.082',-7.05
'0:07.086',-9.91
'0:07.090',-10.95
'0:07.094',-10.73
'0:07.098',-9.85
'0:07.102',-8.64
'0:07.105',-7.35
'0:07.109',-6.08
'0:07.113',-4.86
'0:07.117',-3.69
'0:07.121',-2.52
'0:07.125',-2.06
'0:07.129',-1.98
'0:07.133',-1.86
'0:07.137',-1.69
'0:07.141',-1.52
'0:07.145',-1.16
'0:07.148',-0.67
'0:07.152',-0.48
'0:07.156',-0.14
'0:07.160',0.19
'0:07.164',0.18
'0:07.168',0.31
'0:07.172',0.84
'0:07.176',1.4
'0:07.180',1.59
'0:07.184',1.61
'0:07.188',1.87
'0:07.191',2.02
'0:07.195',2.43
'0:07.199',3.21
'0:07.203',3.81
'0:07.207',4.04
'0:07.211',4.45
'0:07.215',4.63
'0:07.219',4.42
'0:07.223',4.1
'0:07.227',3.95
'0:07.230',3.9
'0:07.234',3.81
'0:07.238',3.76
'0:07.242',2.02
'0:07.246',1.57
'0:07.250',1.68
'0:07.254',1.81
'0:07.258',1.66
'0:07.262',1.45
'0:07.266',1.03
'0:07.270',0.53
'0:07.273',0.39
'0:07.277',0.49
'0:07.281',0.91
'0:07.285',1.52
'0:07.289',1.64
'0:07.293',1.45
'0:07.297',1.23
'0:07.301',1.32
'0:07.305',1.13
'0:07.309',0.68
'0:07.313',0.24
'0:07.316',0.13
'0:07.320',-0.02
'0:07.324',-0.47
'0:07.328',-1.17
'0:07.332',-1.82
'0:07.336',-2.39
'0:07.340',-2.84
'0:07.344',-3.41
'0:07.348',-3.91
'0:07.352',-3.99
'0:07.355',-3.85
'0:07.359',-3.77
'0:07.363',-3.65
'0:07.367',-3.7
'0:07.371',-3.89
'0:07.375',-3.72
'0:07.379',-3.41
'0:07.383',-3.58
'0:07.387',-3.61
'0:07.391',-2.98
'0:07.395',-1.89
'0:07.398',-0.35
'0:07.402',2.11
'0:07.406',5.52
'0:07.410',9.59
'0:07.414',13.26
'0:07.418',14.67
'0:07.422',12.7
'0:07.426',7.62
'0:07.430',1.08
'0:07.434',-4.64
'0:07.438',-8.7
'0:07.441',-10.8
'0:07.445',-11.2
'0:07.449',-10.57
'0:07.453',-9.36
'0:07.457',-7.6
'0:07.461',-5.85
'0:07.465',-4.33
'0:07.469',-3.24
'0:07.473',-2.48
'0:07.477',-1.77
'0:07.480',-1.28
'0:07.484',-0.87
'0:07.488',-0.58
'0:07.492',-0.35
'0:07.496',-0.03
'0:07.500',0.34
'0:07.504',0.56
'0:07.508',0.82
'0:07.512',1.21
'0:07.516',1.53
'0:07.520',1.71
'0:07.523',1.83
'0:07.527',2.09
'0:07.531',2.5
'0:07.535',2.91
'0:07.539',3.28
'0:07.543',3.65
'0:07.547',3.99
'0:07.551',4.42
'0:07.555',4.96
'0:07.559',5.22
'0:07.563',5.4
'0:07.566',5.67
'0:07.570',5.82
'0:07.574',5.97
'0:07.578',5.98
'0:07.582',5.71
'0:07.586',5.33
'0:07.590',4.96
'0:07.594',4.44
'0:07.598',3.59
'0:07.602',2.8
'0:07.605',2.45
'0:07.609',2.27
'0:07.613',2.08
'0:07.617',1.88
'0:07.621',1.5
'0:07.625',1.46
'0:07.629',1.65
'0:07.633',1.87
'0:07.637',2.02
'0:07.641',2.24
'0:07.645',2.58
'0:07.648',2.76
'0:07.652',2.55
'0:07.656',2.23
'0:07.660',1.75
'0:07.664',1.51
'0:07.668',1.35
'0:07.672',0.96
'0:07.676',0.6
'0:07.680',0.19
'0:07.684',-0.46
'0:07.688',-1.21
'0:07.691',-1.97
'0:07.695',-2.64
'0:07.699',-2.94
'0:07.703',-3.04
'0:07.707',-2.97
'0:07.711',-2.76
'0:07.715',-2.61
'0:07.719',-2.56
'0:07.723',-2.43
'0:07.727',-2.43
'0:07.730',-2.56
'0:07.734',-2.7
'0:07.738',-2.94
'0:07.742',-3
'0:07.746',-2.41
'0:07.750',-1.35
'0:07.754',0.58
'0:07.758',3.77
'0:07.762',7.68
'0:07.766',11.49
'0:07.770',14.18
'0:07.773',13.88
'0:07.777',10.4
'0:07.781',4.84
'0:07.785',-0.9
'0:07.789',-5.88
'0:07.793',-9.06
'0:07.797',-10.46
'0:07.801',-10.46
'0:07.805',-9.4
'0:07.809',-7.95
'0:07.813',-6.76
'0:07.816',-5.75
'0:07.820',-4.78
'0:07.824',-3.66
'0:07.828',-2.61
'0:07.832',-1.8
'0:07.836',-1.2
'0:07.840',-0.92
'0:07.844',-0.94
'0:07.848',-1.04
'0:07.852',-1.04
'0:07.855',-0.86
'0:07.859',-0.45
'0:07.863',0.13
'0:07.867',0.6
'0:07.871',0.92
'0:07.875',1.16
'0:07.879',1.2
'0:07.883',1.25
'0:07.887',1.22
'0:07.891',1.12
'0:07.895',1.47
'0:07.898',2.06
'0:07.902',2.57
'0:07.906',3.18
'0:07.910',3.72
'0:07.914',3.88
'0:07.918',3.8
'0:07.922',3.87
'0:07.926',4.16
'0:07.930',4.43
'0:07.934',4.47
'0:07.938',4.24
'0:07.941',3.87
'0:07.945',3.41
'0:07.949',2.54
'0:07.953',1.45
'0:07.957',0.59
'0:07.961',0.04
'0:07.965',-0.04
'0:07.969',-0.14
'0:07.973',-0.24
'0:07.977',-0.16
'0:07.980',-0.03
'0:07.984',0.22
'0:07.988',0.1
'0:07.992',0.1
'0:07.996',0.13
'0:08.000',0.4
'0:08.004',0.61
'0:08.008',0.49
'0:08.012',0.25
'0:08.016',0.01
'0:08.020',-0.26
'0:08.023',-0.62
'0:08.027',-0.91
'0:08.031',-0.94
'0:08.035',-0.85
'0:08.039',-1.2
'0:08.043',-1.78
'0:08.047',-2.41
'0:08.051',-3.1
'0:08.055',-3.56
'0:08.059',-3.7
'0:08.063',-3.63
'0:08.066',-3.51
'0:08.070',-3.5
'0:08.074',-3.66
'0:08.078',-3.85
'0:08.082',-3.54
'0:08.086',-3.2
'0:08.090',-3.27
'0:08.094',-3.55
'0:08.098',-3.56
'0:08.102',-2.96
'0:08.105',-1.98
'0:08.109',-0.3
'0:08.113',2.46
'0:08.117',6.29
'0:08.121',10.38
'0:08.125',13.46
'0:08.129',13.8
'0:08.133',10.64
'0:08.137',4.95
'0:08.141',-1.08
'0:08.145',-6.19
'0:08.148',-9.47
'0:08.152',-10.82
'0:08.156',-10.9
'0:08.160',-10.35
'0:08.164',-9.38
'0:08.168',-7.94
'0:08.172',-6.52
'0:08.176',-5.27
'0:08.180',-4.19
'0:08.184',-3.45
'0:08.188',-3.03
'0:08.191',-2.69
'0:08.195',-2.23
'0:08.199',-1.72
'0:08.203',-1.64
'0:08.207',-1.56
'0:08.211',-1.42
'0:08.215',-1.18
'0:08.219',-0.84
'0:08.223',-0.54
'0:08.227',-0.37
'0:08.230',-0.27
'0:08.234',-0.19
'0:08.238',-0.08
'0:08.242',0.15
'0:08.246',0.57
'0:08.250',1.01
'0:08.254',1.31
'0:08.258',1.55
'0:08.262',1.95
'0:08.266',2.31
'0:08.270',2.76
'0:08.273',3.16
'0:08.277',3.5
'0:08.281',3.75
'0:08.285',4.02
'0:08.289',4.03
'0:08.293',3.39
'0:08.297',2.42
'0:08.301',1.52
'0:08.305',0.87
'0:08.309',0.41
'0:08.313',0.08
'0:08.316',-0.11
'0:08.320',-0.31
'0:08.324',-0.61
'0:08.328',-0.94
'0:08.332',-1
'0:08.336',-0.72
'0:08.340',-0.44
'0:08.344',-0.43
'0:08.348',-0.37
'0:08.352',-0.22
'0:08.355',-0.09
'0:08.359',0
'0:08.363',-0.07
'0:08.367',-0.28
'0:08.371',-0.62
'0:08.375',-0.92
'0:08.379',-0.92
'0:08.383',-1.03
'0:08.387',-1.33
'0:08.391',-1.78
'0:08.395',-2.21
'0:08.398',-2.66
'0:08.402',-3.25
'0:08.406',-3.51
'0:08.410',-3.57
'0:08.414',-3.73
'0:08.418',-3.74
'0:08.422',-3.7
'0:08.426',-3.58
'0:08.430',-3.6
'0:08.434',-3.45
'0:08.438',-3.56
'0:08.441',-3.55
'0:08.445',-3.65
'0:08.449',-3.82
'0:08.453',-3.57
'0:08.457',-2.97
'0:08.461',-1.91
'0:08.465',-0.08
'0:08.469',2.87
'0:08.473',6.78
'0:08.477',10.57
'0:08.480',13.11
'0:08.484',13.24
'0:08.488',10.27
'0:08.492',4.68
'0:08.496',-1.66
'0:08.500',-6.78
'0:08.504',-9.98
'0:08.508',-11.4
'0:08.512',-11.26
'0:08.516',-10.58
'0:08.520',-9.34
'0:08.523',-7.98
'0:08.527',-6.64
'0:08.531',-5.15
'0:08.535',-4.4
'0:08.539',-3.58
'0:08.543',-2.86
'0:08.547',-2.21
'0:08.551',-1.64
'0:08.555',-1.51
'0:08.559',-1.48
'0:08.563',-1.48
'0:08.566',-1.3
'0:08.570',-1.03
'0:08.574',-0.51
'0:08.578',-0.06
'0:08.582',0.02
'0:08.586',0.09
'0:08.590',0.32
'0:08.594',0.7
'0:08.598',1.06
'0:08.602',1.5
'0:08.605',1.63
'0:08.609',1.59
'0:08.613',1.45
'0:08.617',1.54
'0:08.621',1.96
'0:08.625',2.64
'0:08.629',3.39
'0:08.633',3.83
'0:08.637',3.92
'0:08.641',3.88
'0:08.645',3.65
'0:08.648',3.21
'0:08.652',2.89
'0:08.656',2.34
'0:08.660',1.7
'0:08.664',1.16
'0:08.668',0.93
'0:08.672',1.03
'0:08.676',1.18
'0:08.680',0.99
'0:08.684',0.57
'0:08.688',0.28
'0:08.691',0.22
'0:08.695',0.44
'0:08.699',0.89
'0:08.703',1.65
'0:08.707',2.16
'0:08.711',2.36
'0:08.715',2.65
'0:08.719',2.81
'0:08.723',2.43
'0:08.727',1.36
'0:08.730',0.22
'0:08.734',-0.14
'0:08.738',-0.36
'0:08.742',-0.46
'0:08.746',-0.64
'0:08.750',-1.07
'0:08.754',-1.24
'0:08.758',-1.14
'0:08.762',-1.28
'0:08.766',-1.73
'0:08.770',-2.55
'0:08.773',-3.6
'0:08.777',-4.2
'0:08.781',-4.31
'0:08.785',-4.38
'0:08.789',-5.06
'0:08.793',-6.55
'0:08.797',-7.51
'0:08.801',-7.6
'0:08.805',-7.13
'0:08.809',-6.03
'0:08.813',-4.76
'0:08.816',-3.59
'0:08.820',-2.4
'0:08.824',-0.29
'0:08.828',2.88
'0:08.832',6.32
'0:08.836',8.42
'0:08.840',7.85
'0:08.844',4.3
'0:08.848',-1.49
'0:08.852',-7.5
'0:08.855',-12.06
'0:08.859',-14.7
'0:08.863',-15.55
'0:08.867',-14.99
'0:08.871',-13.54
'0:08.875',-11.72
'0:08.879',-9.96
'0:08.883',-8.26
'0:08.887',-6.88
'0:08.891',-5.75
'0:08.895',-4.66
'0:08.898',-3.78
'0:08.902',-3.25
'0:08.906',-3
'0:08.910',-2.69
'0:08.914',-2.26
'0:08.918',-1.83
'0:08.922',-1.47
'0:08.926',-1.04
'0:08.930',-0.51
'0:08.934',0.22
'0:08.938',0.89
'0:08.941',1.5
'0:08.945',1.53
'0:08.949',1.34
'0:08.953',1.59
'0:08.957',2.18
'0:08.961',2.86
'0:08.965',3.47
'0:08.969',4.06
'0:08.973',4.57
'0:08.977',4.91
'0:08.980',5.33
'0:08.984',6.04
'0:08.988',6.74
'0:08.992',7.04
'0:08.996',7.3
'0:09.000',7.32
'0:09.004',6.92
'0:09.008',6.12
'0:09.012',5.43
'0:09.016',5.12
'0:09.020',4.69
'0:09.023',4.14
'0:09.027',3.48
'0:09.031',2.99
'0:09.035',2.74
'0:09.039',2.83
'0:09.043',3.19
'0:09.047',3.43
'0:09.051',3.77
'0:09.055',4.23
'0:09.059',4.48
'0:09.063',4.93
'0:09.066',5.63
'0:09.070',6.14
'0:09.074',6.2
'0:09.078',5.98
'0:09.082',5.86
'0:09.086',5.76
'0:09.090',5.49
'0:09.094',5.32
'0:09.098',5.39
'0:09.102',5.14
'0:09.105',4.32
'0:09.109',3.63
'0:09.113',3.32
'0:09.117',3.01
'0:09.121',2.64
'0:09.125',2.37
'0:09.129',2.29
'0:09.133',2.23
'0:09.137',2.06
'0:09.141',2.09
'0:09.145',2.33
'0:09.148',2.54
'0:09.152',2.61
'0:09.156',2.51
'0:09.160',2.35
'0:09.164',2.48
'0:09.168',3.29
'0:09.172',4.77
'0:09.176',7.23
'0:09.180',10.52
'0:09.184',14.13
'0:09.188',17.08
'0:09.191',17.61
'0:09.195',15.09
'0:09.199',10.09
'0:09.203',4.01
'0:09.207',-1.69
'0:09.211',-5.71
'0:09.215',-7.59
'0:09.219',-7.89
'0:09.223',-7.17
'0:09.227',-6.1
'0:09.230',-5.02
'0:09.234',-3.81
'0:09.238',-2.85
'0:09.242',-2.07
'0:09.246',-1.36
'0:09.250',-0.91
'0:09.254',-0.5
'0:09.258',-0.11
'0:09.262',0.22
'0:09.266',0.18
'0:09.270',0.05
'0:09.273',0.01
'0:09.277',0.09
'0:09.281',0.45
'0:09.285',0.92
'0:09.289',1.34
'0:09.293',1.48
'0:09.297',1.52
'0:09.301',1.58
'0:09.305',1.66
'0:09.309',1.68
'0:09.313',1.91
'0:09.316',2.47
'0:09.320',3.17
'0:09.324',3.81
'0:09.328',4.29
'0:09.332',4.23
'0:09.336',4.02
'0:09.340',4.23
'0:09.344',4.74
'0:09.348',5.23
'0:09.352',5.23
'0:09.355',4.72
'0:09.359',4.21
'0:09.363',3.62
'0:09.367',2.66
'0:09.371',1.92
'0:09.375',1.5
'0:09.379',1.13
'0:09.383',0.49
'0:09.387',-0.06
'0:09.391',-0.18
'0:09.395',-0.33
'0:09.398',-0.43
'0:09.402',-0.43
'0:09.406',-0.36
'0:09.410',-0.1
'0:09.414',0.43
'0:09.418',0.73
'0:09.422',0.71
'0:09.426',0.74
'0:09.430',0.5
'0:09.434',-0.03
'0:09.438',-0.33
'0:09.441',-0.48
'0:09.445',-0.74
'0:09.449',-1.25
'0:09.453',-1.93
'0:09.457',-2.64
'0:09.461',-2.82
'0:09.465',-2.77
'0:09.469',-2.94
'0:09.473',-3.44
'0:09.477',-3.79
'0:09.480',-3.92
'0:09.484',-4.39
'0:09.488',-4.79
'0:09.492',-4.44
'0:09.496',-4.28
'0:09.500',-4.22
'0:09.504',-3.69
'0:09.508',-3.27
'0:09.512',-3.52
'0:09.516',-3.48
'0:09.520',-2.94
'0:09.523',-2.08
'0:09.527',-0.38
'0:09.531',2.5
'0:09.535',5.99
'0:09.539',9.92
'0:09.543',13.4
'0:09.547',13.64
'0:09.551',9.4
'0:09.555',2.53
'0:09.559',-4.07
'0:09.563',-8.66
'0:09.566',-11.25
'0:09.570',-12.36
'0:09.574',-12.12
'0:09.578',-10.98
'0:09.582',-8.84
'0:09.586',-6.07
'0:09.590',-3.66
'0:09.594',-2.62
'0:09.598',-3.09
'0:09.602',-3.6
'0:09.605',-3.66
'0:09.609',-3.6
'0:09.613',-3.89
'0:09.617',-4.11
'0:09.621',-3.91
'0:09.625',-3.61
'0:09.629',-3.38
'0:09.633',-3.1
'0:09.637',-3.05
'0:09.641',-3
'0:09.645',-2.78
'0:09.648',-2.46
'0:09.652',-2.22
'0:09.656',-2.19
'0:09.660',-2.37
'0:09.664',-2.6
'0:09.668',-2.54
'0:09.672',-2.22
'0:09.676',-1.77
'0:09.680',-1.25
'0:09.684',-0.28
'0:09.688',1.06
'0:09.691',1.75
'0:09.695',1.83
'0:09.699',1.71
'0:09.703',1.27
'0:09.707',0.33
'0:09.711',-0.76
'0:09.715',-1.63
'0:09.719',-2.37
'0:09.723',-3.24
'0:09.727',-4.09
'0:09.730',-4.74
'0:09.734',-5.11
'0:09.738',-5.35
'0:09.742',-5.55
'0:09.746',-5.72
'0:09.750',-5.47
'0:09.754',-5.07
'0:09.758',-4.82
'0:09.762',-4.63
'0:09.766',-4.44
'0:09.770',-4.27
'0:09.773',-4.1
'0:09.777',-3.84
'0:09.781',-3.45
'0:09.785',-2.96
'0:09.789',-2.92
'0:09.793',-3.16
'0:09.797',-3.34
'0:09.801',-3.53
'0:09.805',-3.63
'0:09.809',-3.65
'0:09.813',-3.7
'0:09.816',-3.7
'0:09.820',-3.87
'0:09.824',-4.11
'0:09.828',-4.26
'0:09.832',-4.45
'0:09.836',-4.68
'0:09.840',-4.56
'0:09.844',-4.1
'0:09.848',-3.73
'0:09.852',-3.34
'0:09.855',-2.7
'0:09.859',-2.02
'0:09.863',-1.52
'0:09.867',-1.13
'0:09.871',-0.67
'0:09.875',0.4
'0:09.879',2.07
'0:09.883',4.15
'0:09.887',7.09
'0:09.891',10.86
'0:09.895',14.76
'0:09.898',17.54
'0:09.902',17.2
'0:09.906',13.65
'0:09.910',8.39
'0:09.914',3.12
'0:09.918',-1.42
'0:09.922',-4.62
'0:09.926',-6.41
'0:09.930',-6.66
'0:09.934',-5.64
'0:09.938',-4.12
'0:09.941',-2.62
'0:09.945',-1.44
'0:09.949',-0.29
'0:09.953',0.75
'0:09.957',1.64
'0:09.961',2.19
'0:09.965',2.62
'0:09.969',2.92
'0:09.973',3.11
'0:09.977',3.28
'0:09.980',3.3
'0:09.984',3.23
'0:09.988',3.17
'0:09.992',3.34
'0:09.996',3.4
'0:10.000',3.31
'0:10.004',3.47
'0:10.008',3.77
'0:10.012',4.13
'0:10.016',4.47
'0:10.020',4.58
'0:10.023',4.54
'0:10.027',4.41
'0:10.031',4.6
'0:10.035',5.17
'0:10.039',5.67
'0:10.043',5.99
'0:10.047',6.12
'0:10.051',6.26
'0:10.055',6.48
'0:10.059',6.65
'0:10.063',6.84
'0:10.066',6.68
'0:10.070',6.13
'0:10.074',5.52
'0:10.078',4.99
'0:10.082',4.24
'0:10.086',3.16
'0:10.090',2.26
'0:10.094',1.79
'0:10.098',1.59
'0:10.102',1.4
'0:10.105',1.1
'0:10.109',1.03
'0:10.113',1.07
'0:10.117',1.1
'0:10.121',1.14
'0:10.125',1.26
'0:10.129',1.34
'0:10.133',1.25
'0:10.137',1.13
'0:10.141',1.1
'0:10.145',0.73
'0:10.148',0.31
'0:10.152',0.32
'0:10.156',0.1
'0:10.160',-0.42
'0:10.164',-0.95
'0:10.168',-1.56
'0:10.172',-2.13
'0:10.176',-2.8
'0:10.180',-3.51
'0:10.184',-3.85
'0:10.188',-3.75
'0:10.191',-3.7
'0:10.195',-3.65
'0:10.199',-3.59
'0:10.203',-3.61
'0:10.207',-3.59
'0:10.211',-3.55
'0:10.215',-3.6
'0:10.219',-3.96
'0:10.223',-4.17
'0:10.227',-4.21
'0:10.230',-3.51
'0:10.234',-1.9
'0:10.238',0.56
'0:10.242',3.92
'0:10.246',7.74
'0:10.250',11.63
'0:10.254',13.87
'0:10.258',13.33
'0:10.262',9.85
'0:10.266',3.74
'0:10.270',-3.29
'0:10.273',-8.94
'0:10.277',-12.02
'0:10.281',-13.04
'0:10.285',-12.9
'0:10.289',-11.85
'0:10.293',-10.62
'0:10.297',-9.43
'0:10.301',-8.22
'0:10.305',-6.84
'0:10.309',-5.68
'0:10.313',-4.82
'0:10.316',-4.02
'0:10.320',-3.31
'0:10.324',-3.03
'0:10.328',-3.07
'0:10.332',-3.03
'0:10.336',-2.6
'0:10.340',-2.06
'0:10.344',-1.76
'0:10.348',-1.62
'0:10.352',-1.23
'0:10.355',-0.56
'0:10.359',0.37
'0:10.363',1.16
'0:10.367',1.7
'0:10.371',1.66
'0:10.375',1.52
'0:10.379',1.51
'0:10.383',2.19
'0:10.387',3.19
'0:10.391',3.93
'0:10.395',4.48
'0:10.398',4.37
'0:10.402',4.1
'0:10.406',4.14
'0:10.410',4.41
'0:10.414',4.38
'0:10.418',4.01
'0:10.422',3.46
'0:10.426',2.75
'0:10.430',1.9
'0:10.434',1.59
'0:10.438',1.59
'0:10.441',1.35
'0:10.445',0.59
'0:10.449',-0.43
'0:10.453',-1.18
'0:10.457',-1.29
'0:10.461',-0.98
'0:10.465',-0.48
'0:10.469',-0.32
'0:10.473',0.25
'0:10.477',0.96
'0:10.480',1.17
'0:10.484',0.54
'0:10.488',-0.12
'0:10.492',-0.24
'0:10.496',0.12
'0:10.500',0.2
'0:10.504',0.34
'0:10.508',0.13
'0:10.512',-0.06
'0:10.516',0.26
'0:10.520',0.27
'0:10.523',-1.34
'0:10.527',-3.31
'0:10.531',-4.55
'0:10.535',-5.04
'0:10.539',-5.11
'0:10.543',-5.35
'0:10.547',-5.2
'0:10.551',-4.86
'0:10.555',-4.78
'0:10.559',-5.83
'0:10.563',-7.15
'0:10.566',-7.6
'0:10.570',-7.79
'0:10.574',-8.22
'0:10.578',-8.85
'0:10.582',-8.9
'0:10.586',-7.67
'0:10.590',-5.48
'0:10.594',-2.6
'0:10.598',0.9
'0:10.602',4.95
'0:10.605',8.59
'0:10.609',9.04
'0:10.613',5.99
'0:10.617',0.42
'0:10.621',-5.77
'0:10.625',-10.91
'0:10.629',-13.99
'0:10.633',-15.29
'0:10.637',-15.26
'0:10.641',-14.49
'0:10.645',-12.99
'0:10.648',-11.2
'0:10.652',-10.01
'0:10.656',-8.73
'0:10.660',-6.83
'0:10.664',-5.42
'0:10.668',-4.67
'0:10.672',-4.27
'0:10.676',-4.07
'0:10.680',-3.54
'0:10.684',-2.99
'0:10.688',-2.45
'0:10.691',-1.67
'0:10.695',-0.77
'0:10.699',-0.13
'0:10.703',0.05
'0:10.707',0.52
'0:10.711',1.58
'0:10.715',2.19
'0:10.719',2.19
'0:10.723',2.76
'0:10.727',3.7
'0:10.730',4.63
'0:10.734',5.61
'0:10.738',6.6
'0:10.742',7.32
'0:10.746',7.6
'0:10.750',7.98
'0:10.754',8.5
'0:10.758',8.7
'0:10.762',9.1
'0:10.766',9.74
'0:10.770',10.11
'0:10.773',9.96
'0:10.777',8.87
'0:10.781',7.95
'0:10.785',7.28
'0:10.789',6.63
'0:10.793',6.44
'0:10.797',6.41
'0:10.801',6.67
'0:10.805',6.64
'0:10.809',6.09
'0:10.813',5.82
'0:10.816',6.25
'0:10.820',6.68
'0:10.824',6.54
'0:10.828',6.11
'0:10.832',5.9
'0:10.836',6.13
'0:10.840',6.59
'0:10.844',6.78
'0:10.848',6.63
'0:10.852',6.48
'0:10.855',6.42
'0:10.859',6.24
'0:10.863',6.05
'0:10.867',5.62
'0:10.871',5.3
'0:10.875',4.7
'0:10.879',4
'0:10.883',3.26
'0:10.887',2.75
'0:10.891',2.41
'0:10.895',2.07
'0:10.898',1.66
'0:10.902',1.14
'0:10.906',0.6
'0:10.910',0.46
'0:10.914',0.76
'0:10.918',1.11
'0:10.922',1.32
'0:10.926',1.15
'0:10.930',0.86
'0:10.934',0.89
'0:10.938',1.44
'0:10.941',2.57
'0:10.945',4.47
'0:10.949',7.25
'0:10.953',10.67
'0:10.957',14.21
'0:10.961',16.44
'0:10.965',15.15
'0:10.969',10.49
'0:10.973',4.24
'0:10.977',-1.44
'0:10.980',-5.63
'0:10.984',-8.02
'0:10.988',-8.83
'0:10.992',-8.66
'0:10.996',-7.84
'0:11.000',-6.76
'0:11.004',-5.47
'0:11.008',-4.23
'0:11.012',-3.26
'0:11.016',-2.6
'0:11.020',-2.02
'0:11.023',-1.66
'0:11.027',-1.44
'0:11.031',-1.19
'0:11.035',-1.09
'0:11.039',-0.98
'0:11.043',-0.64
'0:11.047',-0.34
'0:11.051',-0.18
'0:11.055',-0.05
'0:11.059',0.12
'0:11.063',0.32
'0:11.066',0.48
'0:11.070',0.66
'0:11.074',0.78
'0:11.078',1.11
'0:11.082',1.68
'0:11.086',2.24
'0:11.090',2.62
'0:11.094',3.01
'0:11.098',3.38
'0:11.102',3.82
'0:11.105',4.26
'0:11.109',4.53
'0:11.113',4.72
'0:11.117',4.8
'0:11.121',4.78
'0:11.125',4.57
'0:11.129',4.21
'0:11.133',3.65
'0:11.137',3.04
'0:11.141',2.47
'0:11.145',1.84
'0:11.148',1.36
'0:11.152',0.89
'0:11.156',0.45
'0:11.160',0.07
'0:11.164',-0.23
'0:11.168',-0.55
'0:11.172',-0.75
'0:11.176',-0.68
'0:11.180',-0.3
'0:11.184',0.22
'0:11.188',0.28
'0:11.191',0.1
'0:11.195',-0.08
'0:11.199',-0.38
'0:11.203',-0.77
'0:11.207',-1.14
'0:11.211',-1.45
'0:11.215',-1.74
'0:11.219',-1.99
'0:11.223',-2.3
'0:11.227',-2.78
'0:11.230',-3.43
'0:11.234',-4.06
'0:11.238',-4.59
'0:11.242',-5.03
'0:11.246',-5.42
'0:11.250',-5.79
'0:11.254',-5.82
'0:11.258',-5.73
'0:11.262',-5.66
'0:11.266',-5.28
'0:11.270',-4.69
'0:11.273',-4.36
'0:11.277',-4.73
'0:11.281',-5.74
'0:11.285',-6.33
'0:11.289',-6.05
'0:11.293',-5.15
'0:11.297',-3.18
'0:11.301',0.05
'0:11.305',3.64
'0:11.309',6.67
'0:11.313',9.02
'0:11.316',9.47
'0:11.320',7.33
'0:11.324',3.07
'0:11.328',-2.59
'0:11.332',-8.38
'0:11.336',-12.47
'0:11.340',-14.83
'0:11.344',-15.34
'0:11.348',-14.82
'0:11.352',-13.72
'0:11.355',-11.87
'0:11.359',-10.26
'0:11.363',-9.37
'0:11.367',-8.65
'0:11.371',-7.74
'0:11.375',-7.7
'0:11.379',-8.29
'0:11.383',-8.46
'0:11.387',-8.11
'0:11.391',-7.73
'0:11.395',-7.26
'0:11.398',-7.53
'0:11.402',-8.06
'0:11.406',-7.81
'0:11.410',-7.66
'0:11.414',-7.62
'0:11.418',-7.22
'0:11.422',-6.66
'0:11.426',-6.53
'0:11.430',-6.18
'0:11.434',-5.65
'0:11.438',-5.6
'0:11.441',-5.56
'0:11.445',-5.53
'0:11.449',-5.44
'0:11.453',-4.84
'0:11.457',-3.8
'0:11.461',-2.83
'0:11.465',-2.11
'0:11.469',-1.5
'0:11.473',-1.1
'0:11.477',-0.83
'0:11.480',-0.84
'0:11.484',-1.02
'0:11.488',-1.04
'0:11.492',-1.14
'0:11.496',-1.47
'0:11.500',-1.97
'0:11.504',-2.19
'0:11.508',-2.31
'0:11.512',-2.58
'0:11.516',-2.65
'0:11.520',-2.44
'0:11.523',-1.85
'0:11.527',-1.21
'0:11.531',-0.6
'0:11.535',-0.08
'0:11.539',0.27
'0:11.543',0.57
'0:11.547',0.97
'0:11.551',1.43
'0:11.555',1.85
'0:11.559',2.25
'0:11.563',2.91
'0:11.566',3.45
'0:11.570',3.63
'0:11.574',3.47
'0:11.578',3.3
'0:11.582',3.13
'0:11.586',2.84
'0:11.590',2.63
'0:11.594',2.66
'0:11.598',2.88
'0:11.602',3.1
'0:11.605',3.25
'0:11.609',3.34
'0:11.613',3.51
'0:11.617',3.77
'0:11.621',3.95
'0:11.625',3.84
'0:11.629',3.85
'0:11.633',3.97
'0:11.637',3.86
'0:11.641',3.74
'0:11.645',4.08
'0:11.648',5.09
'0:11.652',6.65
'0:11.656',9.39
'0:11.660',13.05
'0:11.664',17.05
'0:11.668',20.33
'0:11.672',21.46
'0:11.676',19.52
'0:11.680',14.81
'0:11.684',8.24
'0:11.688',1.95
'0:11.691',-2.49
'0:11.695',-4.76
'0:11.699',-5.45
'0:11.703',-5.1
'0:11.707',-4.29
'0:11.711',-3.22
'0:11.715',-2.15
'0:11.719',-0.95
'0:11.723',0.24
'0:11.727',1.07
'0:11.730',1.64
'0:11.734',2.02
'0:11.738',2.38
'0:11.742',2.75
'0:11.746',2.69
'0:11.750',2.39
'0:11.754',2.25
'0:11.758',2.38
'0:11.762',2.75
'0:11.766',3.21
'0:11.770',3.63
'0:11.773',4.06
'0:11.777',4.36
'0:11.781',4.51
'0:11.785',4.7
'0:11.789',5.04
'0:11.793',5.52
'0:11.797',5.94
'0:11.801',6.26
'0:11.805',6.31
'0:11.809',6.43
'0:11.813',6.65
'0:11.816',6.7
'0:11.820',6.88
'0:11.824',6.85
'0:11.828',6.73
'0:11.832',6.54
'0:11.836',6.04
'0:11.840',5.61
'0:11.844',5.46
'0:11.848',5.41
'0:11.852',5.02
'0:11.855',4.19
'0:11.859',3.41
'0:11.863',2.87
'0:11.867',2.47
'0:11.871',2.32
'0:11.875',2.27
'0:11.879',2.32
'0:11.883',2.39
'0:11.887',2.37
'0:11.891',2.18
'0:11.895',1.87
'0:11.898',1.57
'0:11.902',1.58
'0:11.906',1.73
'0:11.910',1.59
'0:11.914',1.28
'0:11.918',0.84
'0:11.922',0.52
'0:11.926',0.31
'0:11.930',-0.18
'0:11.934',-0.66
'0:11.938',-1.1
'0:11.941',-1.68
'0:11.945',-2.5
'0:11.949',-3.1
'0:11.953',-3.18
'0:11.957',-3.05
'0:11.961',-2.97
'0:11.965',-3.1
'0:11.969',-3.44
'0:11.973',-3.68
'0:11.977',-3.56
'0:11.980',-3.07
'0:11.984',-2.82
'0:11.988',-2.99
'0:11.992',-3.23
'0:11.996',-3.22
'0:12.000',-2.79
'0:12.004',-1.48
'0:12.008',0.65
'0:12.012',3.8
'0:12.016',7.66
'0:12.020',11.32
'0:12.023',13.87
'0:12.027',13.42
'0:12.031',9.28
'0:12.035',3.13
'0:12.039',-3.16
'0:12.043',-8.25
'0:12.047',-10.93
'0:12.051',-11.92
'0:12.055',-12
'0:12.059',-11.11
'0:12.063',-9.59
'0:12.066',-7.48
'0:12.070',-4.95
'0:12.074',-3.25
'0:12.078',-2.62
'0:12.082',-3.19
'0:12.086',-4.17
'0:12.090',-4.43
'0:12.094',-4.31
'0:12.098',-3.96
'0:12.102',-4.06
'0:12.105',-3.5
'0:12.109',-2.59
'0:12.113',-2.38
'0:12.117',-2.28
'0:12.121',-2.18
'0:12.125',-1.67
'0:12.129',-1.03
'0:12.133',-1.14
'0:12.137',-0.77
'0:12.141',0.6
'0:12.145',2.3
'0:12.148',4.36
'0:12.152',5.31
'0:12.156',5.06
'0:12.160',4.34
'0:12.164',2.82
'0:12.168',1.35
'0:12.172',0.73
'0:12.176',0.62
'0:12.180',0.47
'0:12.184',0.25
'0:12.188',0.1
'0:12.191',0.06
'0:12.195',-0.29
'0:12.199',-0.76
'0:12.203',-1.49
'0:12.207',-2.27
'0:12.211',-3.01
'0:12.215',-3.75
'0:12.219',-5.04
'0:12.223',-6.54
'0:12.227',-7.91
'0:12.230',-8.88
'0:12.234',-9.37
'0:12.238',-9.66
'0:12.242',-9.86
'0:12.246',-9.81
'0:12.250',-9.5
'0:12.254',-9.26
'0:12.258',-9.28
'0:12.262',-9.16
'0:12.266',-9.07
'0:12.270',-9.27
'0:12.273',-9.42
'0:12.277',-9.54
'0:12.281',-9.69
'0:12.285',-9.58
'0:12.289',-9.45
'0:12.293',-9.33
'0:12.297',-9.16
'0:12.301',-9.22
'0:12.305',-9.54
'0:12.309',-9.67
'0:12.313',-9.48
'0:12.316',-9.17
'0:12.320',-8.78
'0:12.324',-8.34
'0:12.328',-8.06
'0:12.332',-7.9
'0:12.336',-7.63
'0:12.340',-7.17
'0:12.344',-6.84
'0:12.348',-6.8
'0:12.352',-6.35
'0:12.355',-5.02
'0:12.359',-3.06
'0:12.363',-0.68
'0:12.367',2.64
'0:12.371',6.74
'0:12.375',10.75
'0:12.379',13.53
'0:12.383',13.1
'0:12.387',9.07
'0:12.391',2.96
'0:12.395',-2.98
'0:12.398',-7.34
'0:12.402',-9.61
'0:12.406',-10.24
'0:12.410',-9.4
'0:12.414',-7.83
'0:12.418',-5.86
'0:12.422',-3.9
'0:12.426',-2.06
'0:12.430',-0.41
'0:12.434',0.93
'0:12.438',2.27
'0:12.441',3.56
'0:12.445',4.51
'0:12.449',5.13
'0:12.453',5.71
'0:12.457',6.06
'0:12.461',6.24
'0:12.465',6.71
'0:12.469',7.54
'0:12.473',8.23
'0:12.477',8.6
'0:12.480',8.62
'0:12.484',8.65
'0:12.488',8.93
'0:12.492',9.31
'0:12.496',9.65
'0:12.500',9.93
'0:12.504',10.3
'0:12.508',10.88
'0:12.512',11.25
'0:12.516',11.48
'0:12.520',11.5
'0:12.523',11.55
'0:12.527',11.67
'0:12.531',11.75
'0:12.535',11.78
'0:12.539',11.56
'0:12.543',10.96
'0:12.547',10.28
'0:12.551',9.58
'0:12.555',8.69
'0:12.559',7.68
'0:12.563',6.8
'0:12.566',6.08
'0:12.570',5.45
'0:12.574',4.88
'0:12.578',4.4
'0:12.582',3.96
'0:12.586',3.69
'0:12.590',3.56
'0:12.594',3.44
'0:12.598',3.36
'0:12.602',3.53
'0:12.605',3.9
'0:12.609',4.36
'0:12.613',4.63
'0:12.617',4.21
'0:12.621',3.5
'0:12.625',2.98
'0:12.629',2.61
'0:12.633',2.37
'0:12.637',2.22
'0:12.641',1.75
'0:12.645',0.83
'0:12.648',-0.36
'0:12.652',-1.08
'0:12.656',-1.34
'0:12.660',-1.55
'0:12.664',-1.7
'0:12.668',-1.89
'0:12.672',-2.13
'0:12.676',-2.45
'0:12.680',-2.58
'0:12.684',-2.65
'0:12.688',-2.87
'0:12.691',-3.16
'0:12.695',-3.36
'0:12.699',-3.63
'0:12.703',-3.75
'0:12.707',-3.34
'0:12.711',-2.14
'0:12.715',-0.02
'0:12.719',2.98
'0:12.723',6.65
'0:12.727',10.6
'0:12.730',13.42
'0:12.734',13.48
'0:12.738',10.26
'0:12.742',4.55
'0:12.746',-2.12
'0:12.750',-7.72
'0:12.754',-11.38
'0:12.758',-12.99
'0:12.762',-13.01
'0:12.766',-12.16
'0:12.770',-10.74
'0:12.773',-9.42
'0:12.777',-8.37
'0:12.781',-7.23
'0:12.785',-6.13
'0:12.789',-5.13
'0:12.793',-4.17
'0:12.797',-3.56
'0:12.801',-3.34
'0:12.805',-3.26
'0:12.809',-3.23
'0:12.813',-3.19
'0:12.816',-2.9
'0:12.820',-2.54
'0:12.824',-2.38
'0:12.828',-2.12
'0:12.832',-1.78
'0:12.836',-1.6
'0:12.840',-1.35
'0:12.844',-1.05
'0:12.848',-1.21
'0:12.852',-1.31
'0:12.855',-1.24
'0:12.859',-1
'0:12.863',-0.55
'0:12.867',0.22
'0:12.871',1.02
'0:12.875',1.26
'0:12.879',1.07
'0:12.883',1.27
'0:12.887',1.87
'0:12.891',2.26
'0:12.895',2.32
'0:12.898',2.11
'0:12.902',1.59
'0:12.906',1.02
'0:12.910',0.42
'0:12.914',-0.11
'0:12.918',-0.78
'0:12.922',-1.46
'0:12.926',-1.7
'0:12.930',-2.17
'0:12.934',-2.43
'0:12.938',-1.81
'0:12.941',-0.72
'0:12.945',0.22
'0:12.949',0.16
'0:12.953',-0.55
'0:12.957',-1.19
'0:12.961',-1.31
'0:12.965',-1.12
'0:12.969',-0.68
'0:12.973',-0.51
'0:12.977',-0.68
'0:12.980',-0.77
'0:12.984',-0.76
'0:12.988',-0.66
'0:12.992',-0.75
'0:12.996',-1.03
'0:13.000',-1.5
'0:13.004',-1.85
'0:13.008',-1.75
'0:13.012',-1.12
'0:13.016',-0.95
'0:13.020',-1.67
'0:13.023',-2.81
'0:13.027',-3.12
'0:13.031',-2.37
'0:13.035',-1.92
'0:13.039',-2.65
'0:13.043',-3.89
'0:13.047',-4.5
'0:13.051',-4.39
'0:13.055',-3.87
'0:13.059',-3.2
'0:13.063',-2.66
'0:13.066',-1.74
'0:13.070',0.02
'0:13.074',3.12
'0:13.078',6.41
'0:13.082',8.27
'0:13.086',7.59
'0:13.090',4.06
'0:13.094',-1.36
'0:13.098',-7.48
'0:13.102',-12.38
'0:13.105',-15.34
'0:13.109',-17.27
'0:13.113',-17.92
'0:13.117',-17.26
'0:13.121',-16.04
'0:13.125',-14.74
'0:13.129',-13.19
'0:13.133',-11.22
'0:13.137',-8.98
'0:13.141',-7.41
'0:13.145',-6.82
'0:13.148',-6.66
'0:13.152',-6.16
'0:13.156',-5.7
'0:13.160',-5.86
'0:13.164',-6.28
'0:13.168',-6.02
'0:13.172',-5.29
'0:13.176',-4.34
'0:13.180',-3.1
'0:13.184',-1.9
'0:13.188',-1.41
'0:13.191',-1.65
'0:13.195',-1.68
'0:13.199',-1.42
'0:13.203',-0.85
'0:13.207',0.07
'0:13.211',1.09
'0:13.215',1.73
'0:13.219',2.32
'0:13.223',2.88
'0:13.227',3.26
'0:13.230',3.88
'0:13.234',4.77
'0:13.238',5.73
'0:13.242',6.16
'0:13.246',6.15
'0:13.250',5.92
'0:13.254',5.63
'0:13.258',5.47
'0:13.262',5.37
'0:13.266',5.31
'0:13.270',5.17
'0:13.273',4.91
'0:13.277',4.7
'0:13.281',4.53
'0:13.285',4.32
'0:13.289',4.26
'0:13.293',4.41
'0:13.297',4.81
'0:13.301',5.41
'0:13.305',6.21
'0:13.309',6.7
'0:13.313',6.94
'0:13.316',6.87
'0:13.320',6.56
'0:13.324',6.34
'0:13.328',6.1
'0:13.332',5.97
'0:13.336',6.14
'0:13.340',6.39
'0:13.344',6.21
'0:13.348',5.49
'0:13.352',4.51
'0:13.355',4.02
'0:13.359',3.88
'0:13.363',3.61
'0:13.367',3.27
'0:13.371',3.11
'0:13.375',2.98
'0:13.379',3.13
'0:13.383',3.56
'0:13.387',3.92
'0:13.391',3.9
'0:13.395',3.96
'0:13.398',4.19
'0:13.402',3.88
'0:13.406',3.52
'0:13.410',3.54
'0:13.414',4.23
'0:13.418',5.7
'0:13.422',8.07
'0:13.426',11.4
'0:13.430',14.93
'0:13.434',17.94
'0:13.438',18.65
'0:13.441',15.84
'0:13.445',10.58
'0:13.449',4.89
'0:13.453',-0.22
'0:13.457',-4.05
'0:13.461',-6.4
'0:13.465',-7.59
'0:13.469',-7.41
'0:13.473',-6.43
'0:13.477',-5.14
'0:13.480',-3.75
'0:13.484',-2.48
'0:13.488',-1.48
'0:13.492',-0.61
'0:13.496',-0.12
'0:13.500',-0.14
'0:13.504',-0.29
'0:13.508',-0.11
'0:13.512',0.22
'0:13.516',0.59
'0:13.520',0.76
'0:13.523',1.08
'0:13.527',1.39
'0:13.531',1.49
'0:13.535',1.39
'0:13.539',1.32
'0:13.543',1.44
'0:13.547',1.57
'0:13.551',1.93
'0:13.555',2.37
'0:13.559',2.7
'0:13.563',3.05
'0:13.566',3.46
'0:13.570',4
'0:13.574',4.51
'0:13.578',4.9
'0:13.582',5.15
'0:13.586',5.4
'0:13.590',5.61
'0:13.594',5.68
'0:13.598',5.5
'0:13.602',5.09
'0:13.605',4.59
'0:13.609',3.9
'0:13.613',3.18
'0:13.617',2.44
'0:13.621',1.81
'0:13.625',1.37
'0:13.629',1.14
'0:13.633',1
'0:13.637',0.76
'0:13.641',0.41
'0:13.645',0.23
'0:13.648',0.54
'0:13.652',1.05
'0:13.656',1.48
'0:13.660',1.64
'0:13.664',1.7
'0:13.668',1.7
'0:13.672',1.55
'0:13.676',1.19
'0:13.680',0.83
'0:13.684',0.46
'0:13.688',0.05
'0:13.691',-0.39
'0:13.695',-0.63
'0:13.699',-0.85
'0:13.703',-1.04
'0:13.707',-1.54
'0:13.711',-2.21
'0:13.715',-2.62
'0:13.719',-2.9
'0:13.723',-3.41
'0:13.727',-3.7
'0:13.730',-3.29
'0:13.734',-3.47
'0:13.738',-4.93
'0:13.742',-6.67
'0:13.746',-7.68
'0:13.750',-7.86
'0:13.754',-7.81
'0:13.758',-7.64
'0:13.762',-7.03
'0:13.766',-5.81
'0:13.770',-3.91
'0:13.773',-1.38
'0:13.777',1.46
'0:13.781',4.99
'0:13.785',9
'0:13.789',11.66
'0:13.793',11
'0:13.797',6.99
'0:13.801',0.86
'0:13.805',-5.86
'0:13.809',-11
'0:13.813',-13.58
'0:13.816',-14.01
'0:13.820',-13.75
'0:13.824',-13.26
'0:13.828',-12.54
'0:13.832',-11.59
'0:13.836',-10.59
'0:13.840',-9.74
'0:13.844',-9.02
'0:13.848',-7.96
'0:13.852',-7.06
'0:13.855',-7.14
'0:13.859',-7.11
'0:13.863',-6.26
'0:13.867',-5.98
'0:13.871',-6.38
'0:13.875',-6.67
'0:13.879',-6.82
'0:13.883',-6.92
'0:13.887',-6.77
'0:13.891',-6.44
'0:13.895',-5.76
'0:13.898',-4.75
'0:13.902',-4.44
'0:13.906',-4.58
'0:13.910',-4.21
'0:13.914',-3.6
'0:13.918',-2.06
'0:13.922',-0.21
'0:13.926',0.73
'0:13.930',1.2
'0:13.934',1.47
'0:13.938',1.85
'0:13.941',1.43
'0:13.945',-0.02
'0:13.949',-1.15
'0:13.953',-1.9
'0:13.957',-2.12
'0:13.961',-2.39
'0:13.965',-2.71
'0:13.969',-2.74
'0:13.973',-1.87
'0:13.977',-0.7
'0:13.980',0.12
'0:13.984',-1.17
'0:13.988',-4.09
'0:13.992',-6.23
'0:13.996',-6.98
'0:14.000',-7.04
'0:14.004',-6.66
'0:14.008',-5.94
'0:14.012',-6
'0:14.016',-7.17
'0:14.020',-8.03
'0:14.023',-8.4
'0:14.027',-8.21
'0:14.031',-8.32
'0:14.035',-9.46
'0:14.039',-10.96
'0:14.043',-11.98
'0:14.047',-12.76
'0:14.051',-12.83
'0:14.055',-12.6
'0:14.059',-12.68
'0:14.063',-13.85
'0:14.066',-15.35
'0:14.070',-16.75
'0:14.074',-16.68
'0:14.078',-15.53
'0:14.082',-14.65
'0:14.086',-14.78
'0:14.090',-15.25
'0:14.094',-16.28
'0:14.098',-16.95
'0:14.102',-16.53
'0:14.105',-14.94
'0:14.109',-13.65
'0:14.113',-14.03
'0:14.117',-14.52
'0:14.121',-14
'0:14.125',-12.12
'0:14.129',-8.66
'0:14.133',-4.52
'0:14.137',-0.08
'0:14.141',4.12
'0:14.145',6.2
'0:14.148',5.66
'0:14.152',2.34
'0:14.156',-3.18
'0:14.160',-8.21
'0:14.164',-11.14
'0:14.168',-12.35
'0:14.172',-12.53
'0:14.176',-12.12
'0:14.180',-11.41
'0:14.184',-10.06
'0:14.188',-8.09
'0:14.191',-5.5
'0:14.195',-2.21
'0:14.199',-0.22
'0:14.203',-0.95
'0:14.207',-1.8
'0:14.211',-1.97
'0:14.215',-1.76
'0:14.219',-1.03
'0:14.223',0.01
'0:14.227',1.03
'0:14.230',2.11
'0:14.234',2.99
'0:14.238',3.56
'0:14.242',3.82
'0:14.246',4.3
'0:14.250',5.42
'0:14.254',5.83
'0:14.258',5.76
'0:14.262',6.69
'0:14.266',8.02
'0:14.270',8.33
'0:14.273',8.36
'0:14.277',9.18
'0:14.281',10.05
'0:14.285',10.81
'0:14.289',11.58
'0:14.293',12.41
'0:14.297',13.09
'0:14.301',13.47
'0:14.305',13.92
'0:14.309',14.4
'0:14.313',14.49
'0:14.316',14.2
'0:14.320',14.08
'0:14.324',14.11
'0:14.328',14.03
'0:14.332',13.82
'0:14.336',13.72
'0:14.340',13.62
'0:14.344',13.62
'0:14.348',13.89
'0:14.352',14.41
'0:14.355',15.04
'0:14.359',15.71
'0:14.363',16.4
'0:14.367',16.79
'0:14.371',16.88
'0:14.375',17
'0:14.379',17.09
'0:14.383',17.14
'0:14.387',16.98
'0:14.391',16.84
'0:14.395',16.87
'0:14.398',16.98
'0:14.402',16.83
'0:14.406',16.32
'0:14.410',15.66
'0:14.414',14.9
'0:14.418',14
'0:14.422',13.17
'0:14.426',12.84
'0:14.430',12.73
'0:14.434',12.68
'0:14.438',12.59
'0:14.441',12.53
'0:14.445',12.43
'0:14.449',12.34
'0:14.453',12.18
'0:14.457',11.7
'0:14.461',10.83
'0:14.465',9.91
'0:14.469',9.55
'0:14.473',10.06
'0:14.477',11.51
'0:14.480',14.18
'0:14.484',17.74
'0:14.488',21.75
'0:14.492',25.25
'0:14.496',26.81
'0:14.500',24.95
'0:14.504',19.72
'0:14.508',12.92
'0:14.512',6.25
'0:14.516',0.87
'0:14.520',-2.58
'0:14.523',-3.8
'0:14.527',-3.45
'0:14.531',-2.47
'0:14.535',-1.28
'0:14.539',-0.38
'0:14.543',0.42
'0:14.547',1.19
'0:14.551',1.99
'0:14.555',2.4
'0:14.559',2.37
'0:14.563',2.23
'0:14.566',2.41
'0:14.570',2.91
'0:14.574',2.99
'0:14.578',2.84
'0:14.582',2.79
'0:14.586',2.78
'0:14.590',2.88
'0:14.594',2.83
'0:14.598',2.51
'0:14.602',2.22
'0:14.605',2.63
'0:14.609',3.42
'0:14.613',3.69
'0:14.617',4.08
'0:14.621',4.16
'0:14.625',3.77
'0:14.629',3.5
'0:14.633',4.25
'0:14.637',4.13
'0:14.641',3.54
'0:14.645',3.89
'0:14.648',4.41
'0:14.652',4.29
'0:14.656',3.7
'0:14.660',2.47
'0:14.664',1.46
'0:14.668',0.94
'0:14.672',0.35
'0:14.676',-0.72
'0:14.680',-1.95
'0:14.684',-3.09
'0:14.688',-3.73
'0:14.691',-3.91
'0:14.695',-3.6
'0:14.699',-3.36
'0:14.703',-3.61
'0:14.707',-4.14
'0:14.711',-4.01
'0:14.715',-3.58
'0:14.719',-3.64
'0:14.723',-3.96
'0:14.727',-4.76
'0:14.730',-5.38
'0:14.734',-5.33
'0:14.738',-5.96
'0:14.742',-7.31
'0:14.746',-8.59
'0:14.750',-9.57
'0:14.754',-10.54
'0:14.758',-10.99
'0:14.762',-11.47
'0:14.766',-11.37
'0:14.770',-11.14
'0:14.773',-11.32
'0:14.777',-12.12
'0:14.781',-13.15
'0:14.785',-14.02
'0:14.789',-14.85
'0:14.793',-15.17
'0:14.797',-14.9
'0:14.801',-14.31
'0:14.805',-13.87
'0:14.809',-13.67
'0:14.813',-14.11
'0:14.816',-14.54
'0:14.820',-14.32
'0:14.824',-13.37
'0:14.828',-11.91
'0:14.832',-9.86
'0:14.836',-6.67
'0:14.840',-2.4
'0:14.844',1.93
'0:14.848',5.63
'0:14.852',6.77
'0:14.855',4.2
'0:14.859',-1.19
'0:14.863',-7.32
'0:14.867',-12.59
'0:14.871',-15.81
'0:14.875',-16.81
'0:14.879',-16.5
'0:14.883',-15.28
'0:14.887',-13.56
'0:14.891',-11.73
'0:14.895',-9.78
'0:14.898',-8.02
'0:14.902',-6.87
'0:14.906',-5.95
'0:14.910',-4.94
'0:14.914',-3.99
'0:14.918',-3.07
'0:14.922',-2.05
'0:14.926',-1.09
'0:14.930',-0.22
'0:14.934',0.38
'0:14.938',0.92
'0:14.941',1.68
'0:14.945',2.4
'0:14.949',2.78
'0:14.953',3
'0:14.957',3.34
'0:14.961',3.74
'0:14.965',4.18
'0:14.969',4.7
'0:14.973',5.34
'0:14.977',6.08
'0:14.980',6.94
'0:14.984',7.66
'0:14.988',8.04
'0:14.992',8.32
'0:14.996',8.74
'0:15.000',9.4
'0:15.004',9.88
'0:15.008',10.06
'0:15.012',9.96
'0:15.016',9.62
'0:15.020',9.1
'0:15.023',8.35
'0:15.027',7.75
'0:15.031',7.28
'0:15.035',6.77
'0:15.039',6.2
'0:15.043',5.69
'0:15.047',5.32
'0:15.051',4.94
'0:15.055',4.56
'0:15.059',4.47
'0:15.063',4.61
'0:15.066',4.79
'0:15.070',4.88
'0:15.074',4.89
'0:15.078',4.67
'0:15.082',4.41
'0:15.086',4.13
'0:15.090',3.77
'0:15.094',3.25
'0:15.098',2.75
'0:15.102',2.52
'0:15.105',2.34
'0:15.109',2.11
'0:15.113',1.47
'0:15.117',0.69
'0:15.121',0.02
'0:15.125',-0.57
'0:15.129',-1.11
'0:15.133',-1.5
'0:15.137',-1.67
'0:15.141',-1.83
'0:15.145',-1.95
'0:15.148',-2.1
'0:15.152',-2.38
'0:15.156',-2.63
'0:15.160',-2.73
'0:15.164',-2.81
'0:15.168',-3.02
'0:15.172',-3.14
'0:15.176',-2.9
'0:15.180',-2.11
'0:15.184',-0.61
'0:15.188',1.7
'0:15.191',4.82
'0:15.195',8.63
'0:15.199',12.26
'0:15.203',14.21
'0:15.207',13.07
'0:15.211',8.98
'0:15.215',2.82
'0:15.219',-3.66
'0:15.223',-8.86
'0:15.227',-11.69
'0:15.230',-12.72
'0:15.234',-12.55
'0:15.238',-11.34
'0:15.242',-9.66
'0:15.246',-8.27
'0:15.250',-7.16
'0:15.254',-6.11
'0:15.258',-5.22
'0:15.262',-4.46
'0:15.266',-3.94
'0:15.270',-3.52
'0:15.273',-3.2
'0:15.277',-2.71
'0:15.281',-2.18
'0:15.285',-2.02
'0:15.289',-2.09
'0:15.293',-1.97
'0:15.297',-1.95
'0:15.301',-1.99
'0:15.305',-1.85
'0:15.309',-1.5
'0:15.313',-1.14
'0:15.316',-0.95
'0:15.320',-0.75
'0:15.324',-0.55
'0:15.328',-0.23
'0:15.332',0.24
'0:15.336',0.83
'0:15.340',1.37
'0:15.344',1.61
'0:15.348',1.84
'0:15.352',2.02
'0:15.355',2.33
'0:15.359',2.61
'0:15.363',2.6
'0:15.367',2.35
'0:15.371',2.12
'0:15.375',1.69
'0:15.379',0.95
'0:15.383',0.34
'0:15.387',0.05
'0:15.391',-0.27
'0:15.395',-0.83
'0:15.398',-1.46
'0:15.402',-1.44
'0:15.406',-0.74
'0:15.410',-0.46
'0:15.414',-1.03
'0:15.418',-1.31
'0:15.422',-0.95
'0:15.426',-0.63
'0:15.430',-0.71
'0:15.434',-1.41
'0:15.438',-2.43
'0:15.441',-3.45
'0:15.445',-3.53
'0:15.449',-3.01
'0:15.453',-2.81
'0:15.457',-2.47
'0:15.461',-1.83
'0:15.465',-1.31
'0:15.469',-1.74
'0:15.473',-3.36
'0:15.477',-5.06
'0:15.480',-6.01
'0:15.484',-6.32
'0:15.488',-6.4
'0:15.492',-6.59
'0:15.496',-7.8
'0:15.500',-8.67
'0:15.504',-8.42
'0:15.508',-7.51
'0:15.512',-6.63
'0:15.516',-6.84
'0:15.520',-8.04
'0:15.523',-8.79
'0:15.527',-8.25
'0:15.531',-6.88
'0:15.535',-5
'0:15.539',-2.89
'0:15.543',0.16
'0:15.547',4.19
'0:15.551',8.24
'0:15.555',11.42
'0:15.559',12.22
'0:15.563',9.61
'0:15.566',3.36
'0:15.570',-4.34
'0:15.574',-10.26
'0:15.578',-13.48
'0:15.582',-14.58
'0:15.586',-14.4
'0:15.590',-13.47
'0:15.594',-11.51
'0:15.598',-9.43
'0:15.602',-8.07
'0:15.605',-7.19
'0:15.609',-6.7
'0:15.613',-5.97
'0:15.617',-5.15
'0:15.621',-4.24
'0:15.625',-3.41
'0:15.629',-2.89
'0:15.633',-2.65
'0:15.637',-2.25
'0:15.641',-1.87
'0:15.645',-1.52
'0:15.648',-1.07
'0:15.652',-0.61
'0:15.656',0.07
'0:15.660',0.79
'0:15.664',0.68
'0:15.668',-0.12
'0:15.672',-0.78
'0:15.676',-0.59
'0:15.680',0.39
'0:15.684',1.66
'0:15.688',2.26
'0:15.691',2.63
'0:15.695',3.21
'0:15.699',3.7
'0:15.703',4.07
'0:15.707',4.22
'0:15.711',4.3
'0:15.715',4.05
'0:15.719',4.26
'0:15.723',4.61
'0:15.727',4.72
'0:15.730',4.31
'0:15.734',3.5
'0:15.738',2.57
'0:15.742',2.09
'0:15.746',2.05
'0:15.750',2.02
'0:15.754',1.72
'0:15.758',1.82
'0:15.762',2.17
'0:15.766',2.57
'0:15.770',2.88
'0:15.773',3.2
'0:15.777',3.49
'0:15.781',3.5
'0:15.785',3.39
'0:15.789',3.62
'0:15.793',3.91
'0:15.797',3.97
'0:15.801',4.06
'0:15.805',4.12
'0:15.809',4.11
'0:15.813',3.9
'0:15.816',3.43
'0:15.820',2.99
'0:15.824',2.55
'0:15.828',2.26
'0:15.832',2.26
'0:15.836',2.4
'0:15.840',2.55
'0:15.844',2.74
'0:15.848',2.8
'0:15.852',2.68
'0:15.855',2.46
'0:15.859',2.26
'0:15.863',2.06
'0:15.867',2.04
'0:15.871',2.17
'0:15.875',2.11
'0:15.879',1.83
'0:15.883',1.92
'0:15.887',2.97
'0:15.891',4.73
'0:15.895',7.71
'0:15.898',11.53
'0:15.902',15.24
'0:15.906',17.85
'0:15.910',17.64
'0:15.914',14.15
'0:15.918',8.5
'0:15.922',2.22
'0:15.926',-3.45
'0:15.930',-7.1
'0:15.934',-8.5
'0:15.938',-8.18
'0:15.941',-7.01
'0:15.945',-5.63
'0:15.949',-4.22
'0:15.953',-2.87
'0:15.957',-1.92
'0:15.961',-1.21
'0:15.965',-0.57
'0:15.969',-0.43
'0:15.973',-0.56
'0:15.977',-0.48
'0:15.980',-0.26
'0:15.984',0
'0:15.988',0.58
'0:15.992',1.12
'0:15.996',1.45
'0:16.000',1.41
'0:16.004',1.25
'0:16.008',1.16
'0:16.012',0.96
'0:16.016',0.62
'0:16.020',0.81
'0:16.023',1.49
'0:16.027',2.09
'0:16.031',2.62
'0:16.035',2.7
'0:16.039',2.79
'0:16.043',3.47
'0:16.047',4.35
'0:16.051',4.98
'0:16.055',4.91
'0:16.059',5.13
'0:16.063',5.54
'0:16.066',5.48
'0:16.070',5.03
'0:16.074',4.36
'0:16.078',3.41
'0:16.082',2.61
'0:16.086',2.11
'0:16.090',1.76
'0:16.094',1.4
'0:16.098',0.69
'0:16.102',0.14
'0:16.105',-0.22
'0:16.109',-0.42
'0:16.113',-0.73
'0:16.117',-0.5
'0:16.121',-0.14
'0:16.125',-0.12
'0:16.129',0.07
'0:16.133',-0.07
'0:16.137',-0.18
'0:16.141',0.3
'0:16.145',0.58
'0:16.148',0.5
'0:16.152',0.32
'0:16.156',0.05
'0:16.160',-0.19
'0:16.164',-0.48
'0:16.168',-0.92
'0:16.172',-1.48
'0:16.176',-1.93
'0:16.180',-2.3
'0:16.184',-2.65
'0:16.188',-2.85
'0:16.191',-3.16
'0:16.195',-3.67
'0:16.199',-3.99
'0:16.203',-3.87
'0:16.207',-4.01
'0:16.211',-4.49
'0:16.215',-4.92
'0:16.219',-5.25
'0:16.223',-5.36
'0:16.227',-5.31
'0:16.230',-5.08
'0:16.234',-4.65
'0:16.238',-4.14
'0:16.242',-2.86
'0:16.246',-0.58
'0:16.250',2.82
'0:16.254',6.89
'0:16.258',10.55
'0:16.262',11.89
'0:16.266',9.37
'0:16.270',3.99
'0:16.273',-1.76
'0:16.277',-6.8
'0:16.281',-10.12
'0:16.285',-11.39
'0:16.289',-11.62
'0:16.293',-11.53
'0:16.297',-10.8
'0:16.301',-9.33
'0:16.305',-7.68
'0:16.309',-6.58
'0:16.313',-5.65
'0:16.316',-4.54
'0:16.320',-3.45
'0:16.324',-2.73
'0:16.328',-2.25
'0:16.332',-2.07
'0:16.336',-2.05
'0:16.340',-2.24
'0:16.344',-2.22
'0:16.348',-2.34
'0:16.352',-2.34
'0:16.355',-2.41
'0:16.359',-2.5
'0:16.363',-2.37
'0:16.367',-2.59
'0:16.371',-2.87
'0:16.375',-2.36
'0:16.379',-1.32
'0:16.383',-0.61
'0:16.387',-0.36
'0:16.391',-1.05
'0:16.395',-1.74
'0:16.398',-1.72
'0:16.402',-1.29
'0:16.406',-0.68
'0:16.410',0.2
'0:16.414',0.49
'0:16.418',0.27
'0:16.422',-0.14
'0:16.426',-0.51
'0:16.430',-0.67
'0:16.434',-1.11
'0:16.438',-1.6
'0:16.441',-1.84
'0:16.445',-2.44
'0:16.449',-3.31
'0:16.453',-4.06
'0:16.457',-4.66
'0:16.461',-4.89
'0:16.465',-4.63
'0:16.469',-3.82
'0:16.473',-3.45
'0:16.477',-3.5
'0:16.480',-3.37
'0:16.484',-3.16
'0:16.488',-3.02
'0:16.492',-3.08
'0:16.496',-3.08
'0:16.500',-2.87
'0:16.504',-2.62
'0:16.508',-2.47
'0:16.512',-2.41
'0:16.516',-2.62
'0:16.520',-3.02
'0:16.523',-3.55
'0:16.527',-3.85
'0:16.531',-4.13
'0:16.535',-4.44
'0:16.539',-4.43
'0:16.543',-4.25
'0:16.547',-3.96
'0:16.551',-3.75
'0:16.555',-3.73
'0:16.559',-3.62
'0:16.563',-3.52
'0:16.566',-3.25
'0:16.570',-2.73
'0:16.574',-2.12
'0:16.578',-1.87
'0:16.582',-1.99
'0:16.586',-1.64
'0:16.590',-0.71
'0:16.594',0.99
'0:16.598',3.75
'0:16.602',7.42
'0:16.605',11.53
'0:16.609',15.51
'0:16.613',17.76
'0:16.617',17.02
'0:16.621',13.51
'0:16.625',7.8
'0:16.629',1.75
'0:16.633',-2.92
'0:16.637',-5.7
'0:16.641',-6.68
'0:16.645',-6.26
'0:16.648',-5.18
'0:16.652',-3.83
'0:16.656',-2.46
'0:16.660',-1.33
'0:16.664',-0.4
'0:16.668',0.45
'0:16.672',1.12
'0:16.676',1.64
'0:16.680',2.03
'0:16.684',2.28
'0:16.688',2.66
'0:16.691',2.67
'0:16.695',2.48
'0:16.699',2.44
'0:16.703',2.7
'0:16.707',3.22
'0:16.711',3.51
'0:16.715',3.33
'0:16.719',3.03
'0:16.723',2.96
'0:16.727',3.31
'0:16.730',3.56
'0:16.734',3.59
'0:16.738',3.77
'0:16.742',4.21
'0:16.746',4.68
'0:16.750',4.96
'0:16.754',5.13
'0:16.758',5.36
'0:16.762',5.71
'0:16.766',5.94
'0:16.770',5.83
'0:16.773',5.45
'0:16.777',5.14
'0:16.781',4.76
'0:16.785',4.17
'0:16.789',3.67
'0:16.793',3.23
'0:16.797',2.76
'0:16.801',2.16
'0:16.805',1.49
'0:16.809',1.04
'0:16.813',0.8
'0:16.816',0.76
'0:16.820',0.84
'0:16.824',1.08
'0:16.828',1.3
'0:16.832',1.44
'0:16.836',1.35
'0:16.840',1.32
'0:16.844',1.25
'0:16.848',1.18
'0:16.852',1.2
'0:16.855',0.99
'0:16.859',0.68
'0:16.863',0.51
'0:16.867',0.36
'0:16.871',0.24
'0:16.875',-0.23
'0:16.879',-0.87
'0:16.883',-1.54
'0:16.887',-2.23
'0:16.891',-2.74
'0:16.895',-3
'0:16.898',-3.17
'0:16.902',-3.24
'0:16.906',-3.14
'0:16.910',-3.13
'0:16.914',-3.29
'0:16.918',-3.41
'0:16.922',-3.23
'0:16.926',-2.94
'0:16.930',-2.87
'0:16.934',-2.87
'0:16.938',-2.74
'0:16.941',-1.9
'0:16.945',-0.52
'0:16.949',1.64
'0:16.953',5.02
'0:16.957',9.01
'0:16.961',12.67
'0:16.965',14.53
'0:16.969',13.86
'0:16.973',10.31
'0:16.977',4.5
'0:16.980',-1.6
'0:16.984',-6.31
'0:16.988',-9.02
'0:16.992',-10.19
'0:16.996',-10.6
'0:17.000',-10.02
'0:17.004',-8.6
'0:17.008',-6.61
'0:17.012',-4.98
'0:17.016',-4.14
'0:17.020',-3.4
'0:17.023',-2.21
'0:17.027',-0.81
'0:17.031',0.03
'0:17.035',0.82
'0:17.039',0.78
'0:17.043',-0.19
'0:17.047',-1.04
'0:17.051',-1.36
'0:17.055',-1.15
'0:17.059',-0.82
'0:17.063',-0.5
'0:17.066',-0.31
'0:17.070',-0.37
'0:17.074',-0.23
'0:17.078',0.67
'0:17.082',1.51
'0:17.086',2.01
'0:17.090',2.32
'0:17.094',2.49
'0:17.098',2.57
'0:17.102',2.76
'0:17.105',3.22
'0:17.109',3.92
'0:17.113',4.76
'0:17.117',5.22
'0:17.121',5.22
'0:17.125',5.29
'0:17.129',4.98
'0:17.133',4.31
'0:17.137',3.58
'0:17.141',2.62
'0:17.145',1.93
'0:17.148',1.89
'0:17.152',1.27
'0:17.156',0.14
'0:17.160',-0.77
'0:17.164',-1.22
'0:17.168',-1.51
'0:17.172',-1.36
'0:17.176',-0.71
'0:17.180',-0.55
'0:17.184',-0.66
'0:17.188',-0.88
'0:17.191',-0.82
'0:17.195',-0.44
'0:17.199',-0.31
'0:17.203',-0.8
'0:17.207',-0.85
'0:17.211',-0.49
'0:17.215',-0.43
'0:17.219',-0.85
'0:17.223',-1.54
'0:17.227',-2.5
'0:17.230',-2.82
'0:17.234',-2.73
'0:17.238',-3.12
'0:17.242',-3.64
'0:17.246',-4.19
'0:17.250',-4.64
'0:17.254',-5.26
'0:17.258',-5.4
'0:17.262',-4.95
'0:17.266',-5.23
'0:17.270',-5.46
'0:17.273',-5.42
'0:17.277',-4.85
'0:17.281',-4.6
'0:17.285',-4.76
'0:17.289',-4.77
'0:17.293',-4.21
'0:17.297',-3.01
'0:17.301',-0.84
'0:17.305',2.68
'0:17.309',6.79
'0:17.313',10.38
'0:17.316',12.88
'0:17.320',12.46
'0:17.324',8.6
'0:17.328',2.78
'0:17.332',-3.34
'0:17.336',-8.47
'0:17.340',-11.29
'0:17.344',-11.78
'0:17.348',-11.44
'0:17.352',-10.53
'0:17.355',-9.26
'0:17.359',-7.94
'0:17.363',-6.47
'0:17.367',-4.95
'0:17.371',-3.79
'0:17.375',-3.3
'0:17.379',-3.36
'0:17.383',-2.97
'0:17.387',-1.66
'0:17.391',-0.49
'0:17.395',-0.06
'0:17.398',0.16
'0:17.402',0.85
'0:17.406',1.32
'0:17.410',1.5
'0:17.414',1.74
'0:17.418',2.33
'0:17.422',3.04
'0:17.426',3.36
'0:17.430',3.66
'0:17.434',4.19
'0:17.438',4.81
'0:17.441',5.42
'0:17.445',5.82
'0:17.449',6.24
'0:17.453',6.95
'0:17.457',7.79
'0:17.461',8.28
'0:17.465',8.48
'0:17.469',8.38
'0:17.473',8.28
'0:17.477',8.33
'0:17.480',8.46
'0:17.484',8.14
'0:17.488',7.24
'0:17.492',6.03
'0:17.496',5.01
'0:17.500',4.12
'0:17.504',3.4
'0:17.508',3.04
'0:17.512',2.89
'0:17.516',2.64
'0:17.520',2.43
'0:17.523',2.26
'0:17.527',1.95
'0:17.531',1.67
'0:17.535',1.72
'0:17.539',1.77
'0:17.543',1.78
'0:17.547',1.89
'0:17.551',1.72
'0:17.555',1.35
'0:17.559',1.21
'0:17.563',1.09
'0:17.566',0.77
'0:17.570',0.42
'0:17.574',-0.01
'0:17.578',-0.53
'0:17.582',-1.19
'0:17.586',-1.76
'0:17.590',-2.28
'0:17.594',-2.83
'0:17.598',-3.19
'0:17.602',-3.32
'0:17.605',-3.49
'0:17.609',-3.65
'0:17.613',-3.74
'0:17.617',-3.73
'0:17.621',-3.71
'0:17.625',-3.67
'0:17.629',-3.56
'0:17.633',-3.68
'0:17.637',-4
'0:17.641',-4.06
'0:17.645',-3.67
'0:17.648',-2.63
'0:17.652',-0.81
'0:17.656',2.08
'0:17.660',5.9
'0:17.664',9.85
'0:17.668',12.98
'0:17.672',13.54
'0:17.676',10.43
'0:17.680',4.65
'0:17.684',-1.69
'0:17.688',-7.03
'0:17.691',-10.36
'0:17.695',-11.78
'0:17.699',-11.72
'0:17.703',-10.75
'0:17.707',-9.35
'0:17.711',-7.91
'0:17.715',-6.56
'0:17.719',-5.43
'0:17.723',-4.44
'0:17.727',-3.63
'0:17.730',-3
'0:17.734',-2.54
'0:17.738',-2.15
'0:17.742',-1.81
'0:17.746',-1.45
'0:17.750',-1.06
'0:17.754',-0.75
'0:17.758',-0.49
'0:17.762',-0.17
'0:17.766',0.17
'0:17.770',0.3
'0:17.773',0.33
'0:17.777',0.45
'0:17.781',0.62
'0:17.785',0.8
'0:17.789',1.18
'0:17.793',1.64
'0:17.797',2.12
'0:17.801',2.72
'0:17.805',3.29
'0:17.809',3.9
'0:17.813',4.58
'0:17.816',5.06
'0:17.820',5.35
'0:17.824',5.28
'0:17.828',4.99
'0:17.832',4.84
'0:17.836',4.49
'0:17.840',3.75
'0:17.844',2.85
'0:17.848',2.08
'0:17.852',1.8
'0:17.855',1.65
'0:17.859',1.48
'0:17.863',1.43
'0:17.867',1.13
'0:17.871',0.18
'0:17.875',-0.95
'0:17.879',-1.57
'0:17.883',-1.29
'0:17.887',-0.72
'0:17.891',-0.59
'0:17.895',-1.12
'0:17.898',-1.67
'0:17.902',-1.77
'0:17.906',-1.75
'0:17.910',-1.93
'0:17.914',-2.35
'0:17.918',-2.59
'0:17.922',-2.8
'0:17.926',-2.72
'0:17.930',-2.86
'0:17.934',-3.44
'0:17.938',-4.13
'0:17.941',-4.58
'0:17.945',-4.82
'0:17.949',-4.88
'0:17.953',-4.97
'0:17.957',-5.09
'0:17.961',-5.21
'0:17.965',-5.13
'0:17.969',-4.89
'0:17.973',-4.73
'0:17.977',-4.65
'0:17.980',-4.66
'0:17.984',-4.72
'0:17.988',-4.62
'0:17.992',-4.26
'0:17.996',-3.07
'0:18.000',-1.31
'0:18.004',-0.13
'0:18.008',1.19
'0:18.012',3.97
'0:18.016',7.58
'0:18.020',10.44
'0:18.023',10.7
'0:18.027',7.86
'0:18.031',2.8
'0:18.035',-2.92
'0:18.039',-7.99
'0:18.043',-11.34
'0:18.047',-12.72
'0:18.051',-12.72
'0:18.055',-12.04
'0:18.059',-10.59
'0:18.063',-9.16
'0:18.066',-8.05
'0:18.070',-7.01
'0:18.074',-6.02
'0:18.078',-5.42
'0:18.082',-5.03
'0:18.086',-4.61
'0:18.090',-4.32
'0:18.094',-4.12
'0:18.098',-3.76
'0:18.102',-3.38
'0:18.105',-3.25
'0:18.109',-3.07
'0:18.113',-2.75
'0:18.117',-2.39
'0:18.121',-1.96
'0:18.125',-1.56
'0:18.129',-1.17
'0:18.133',-0.94
'0:18.137',-0.8
'0:18.141',-0.82
'0:18.145',-0.62
'0:18.148',-0.02
'0:18.152',0.76
'0:18.156',1.46
'0:18.160',2.25
'0:18.164',2.82
'0:18.168',3.45
'0:18.172',4.07
'0:18.176',4.49
'0:18.180',4.71
'0:18.184',4.56
'0:18.188',4.01
'0:18.191',3.71
'0:18.195',3.66
'0:18.199',3.46
'0:18.203',3.11
'0:18.207',2.83
'0:18.211',2.6
'0:18.215',2.49
'0:18.219',2.72
'0:18.223',3.16
'0:18.227',3.27
'0:18.230',3.16
'0:18.234',3.03
'0:18.238',3.19
'0:18.242',3.3
'0:18.246',3.32
'0:18.250',3.37
'0:18.254',3.4
'0:18.258',3.07
'0:18.262',2.82
'0:18.266',2.85
'0:18.270',2.88
'0:18.273',2.67
'0:18.277',2.28
'0:18.281',1.79
'0:18.285',1.2
'0:18.289',0.74
'0:18.293',0.26
'0:18.297',-0.14
'0:18.301',-0.34
'0:18.305',-0.54
'0:18.309',-0.6
'0:18.313',-0.76
'0:18.316',-0.85
'0:18.320',-0.98
'0:18.324',-1.12
'0:18.328',-1.14
'0:18.332',-1.14
'0:18.336',-1.15
'0:18.340',-1.14
'0:18.344',-1.14
'0:18.348',-0.91
'0:18.352',-0.06
'0:18.355',1.63
'0:18.359',4.33
'0:18.363',7.92
'0:18.367',12.15
'0:18.371',15.6
'0:18.375',16.55
'0:18.379',14.23
'0:18.383',9.27
'0:18.387',2.81
'0:18.391',-3.12
'0:18.395',-7.14
'0:18.398',-9.11
'0:18.402',-9.64
'0:18.406',-9.32
'0:18.410',-8.42
'0:18.414',-7.21
'0:18.418',-5.83
'0:18.422',-4.32
'0:18.426',-3.08
'0:18.430',-2.17
'0:18.434',-1.74
'0:18.438',-1.4
'0:18.441',-0.93
'0:18.445',-0.7
'0:18.449',-0.61
'0:18.453',-0.5
'0:18.457',-0.25
'0:18.461',0.14
'0:18.465',0.45
'0:18.469',0.53
'0:18.473',0.49
'0:18.477',0.72
'0:18.480',0.96
'0:18.484',1.28
'0:18.488',1.66
'0:18.492',2.04
'0:18.496',2.48
'0:18.500',2.61
'0:18.504',2.73
'0:18.508',3.25
'0:18.512',3.9
'0:18.516',4.41
'0:18.520',4.84
'0:18.523',5.03
'0:18.527',5.04
'0:18.531',4.92
'0:18.535',4.7
'0:18.539',4.46
'0:18.543',4.34
'0:18.547',4.15
'0:18.551',3.7
'0:18.555',2.94
'0:18.559',2.32
'0:18.563',1.88
'0:18.566',1.71
'0:18.570',1.82
'0:18.574',1.97
'0:18.578',1.79
'0:18.582',1.61
'0:18.586',1.7
'0:18.590',1.68
'0:18.594',1.47
'0:18.598',0.95
'0:18.602',0.61
'0:18.605',0.84
'0:18.609',1.31
'0:18.613',1.23
'0:18.617',0.69
'0:18.621',0.4
'0:18.625',-0.05
'0:18.629',-0.47
'0:18.633',-0.71
'0:18.637',-0.74
'0:18.641',-1.19
'0:18.645',-1.76
'0:18.648',-2.25
'0:18.652',-2.58
'0:18.656',-2.73
'0:18.660',-2.79
'0:18.664',-2.7
'0:18.668',-2.88
'0:18.672',-3.11
'0:18.676',-3.12
'0:18.680',-2.78
'0:18.684',-2.96
'0:18.688',-3.29
'0:18.691',-3.4
'0:18.695',-2.99
'0:18.699',-2.33
'0:18.703',-1.16
'0:18.707',0.67
'0:18.711',3.39
'0:18.715',6.91
'0:18.719',10.73
'0:18.723',13.65
'0:18.727',13.8
'0:18.730',10.48
'0:18.734',4.55
'0:18.738',-1.78
'0:18.742',-6.82
'0:18.746',-9.66
'0:18.750',-11.2
'0:18.754',-11.18
'0:18.758',-9.98
'0:18.762',-8.7
'0:18.766',-7.5
'0:18.770',-6.02
'0:18.773',-4.31
'0:18.777',-3.38
'0:18.781',-2.94
'0:18.785',-3
'0:18.789',-3.19
'0:18.793',-2.85
'0:18.797',-1.83
'0:18.801',-1.14
'0:18.805',-0.94
'0:18.809',-0.63
'0:18.813',-0.46
'0:18.816',-0.63
'0:18.820',-0.39
'0:18.824',0.35
'0:18.828',1.14
'0:18.832',1.63
'0:18.836',1.63
'0:18.840',1.41
'0:18.844',1.45
'0:18.848',2.09
'0:18.852',3.11
'0:18.855',3.81
'0:18.859',4.29
'0:18.863',4.85
'0:18.867',5.39
'0:18.871',6.12
'0:18.875',6.4
'0:18.879',5.74
'0:18.883',4.51
'0:18.887',3.46
'0:18.891',2.85
'0:18.895',2.56
'0:18.898',2.43
'0:18.902',2.26
'0:18.906',1.92
'0:18.910',1.34
'0:18.914',0.79
'0:18.918',0.56
'0:18.922',0.54
'0:18.926',0.61
'0:18.930',0.38
'0:18.934',-0.01
'0:18.938',-0.14
'0:18.941',0.05
'0:18.945',0.28
'0:18.949',0.3
'0:18.953',0.23
'0:18.957',0.27
'0:18.961',0.35
'0:18.965',0.05
'0:18.969',-0.49
'0:18.973',-0.88
'0:18.977',-1.23
'0:18.980',-1.47
'0:18.984',-1.47
'0:18.988',-1.82
'0:18.992',-2.45
'0:18.996',-3
'0:19.000',-3.53
'0:19.004',-3.8
'0:19.008',-3.71
'0:19.012',-3.87
'0:19.016',-4.27
'0:19.020',-4.32
'0:19.023',-4.11
'0:19.027',-3.83
'0:19.031',-3.44
'0:19.035',-3.36
'0:19.039',-3.43
'0:19.043',-3.49
'0:19.047',-3.7
'0:19.051',-3.6
'0:19.055',-2.7
'0:19.059',-0.82
'0:19.063',1.92
'0:19.066',5.13
'0:19.070',8.61
'0:19.074',12.31
'0:19.078',14.23
'0:19.082',12.66
'0:19.086',7.97
'0:19.090',1.78
'0:19.094',-4.03
'0:19.098',-8.23
'0:19.102',-10.35
'0:19.105',-10.93
'0:19.109',-10.59
'0:19.113',-9.52
'0:19.117',-8.03
'0:19.121',-6.62
'0:19.125',-5.41
'0:19.129',-4.31
'0:19.133',-3.34
'0:19.137',-2.5
'0:19.141',-1.78
'0:19.145',-1.33
'0:19.148',-1.14
'0:19.152',-1.04
'0:19.156',-0.64
'0:19.160',-0.25
'0:19.164',-0.11
'0:19.168',0.01
'0:19.172',-0.03
'0:19.176',-0.14
'0:19.180',0
'0:19.184',0.43
'0:19.188',0.72
'0:19.191',1.01
'0:19.195',1.35
'0:19.199',1.79
'0:19.203',2.19
'0:19.207',2.6
'0:19.211',3.14
'0:19.215',3.75
'0:19.219',4.2
'0:19.223',4.32
'0:19.227',4.4
'0:19.230',4.54
'0:19.234',4.6
'0:19.238',4.46
'0:19.242',4.1
'0:19.246',3.71
'0:19.250',3.1
'0:19.254',2.36
'0:19.258',1.65
'0:19.262',1.13
'0:19.266',0.78
'0:19.270',0.53
'0:19.273',0.28
'0:19.277',-0.16
'0:19.281',-0.56
'0:19.285',-0.54
'0:19.289',-0.07
'0:19.293',0.23
'0:19.297',0.33
'0:19.301',0.37
'0:19.305',0.28
'0:19.309',0.13
'0:19.313',0.2
'0:19.316',0.36
'0:19.320',0.21
'0:19.324',-0.22
'0:19.328',-0.54
'0:19.332',-0.79
'0:19.336',-1.15
'0:19.340',-1.52
'0:19.344',-2.02
'0:19.348',-2.5
'0:19.352',-3.17
'0:19.355',-3.76
'0:19.359',-3.87
'0:19.363',-3.84
'0:19.367',-3.95
'0:19.371',-4.1
'0:19.375',-4.17
'0:19.379',-4.01
'0:19.383',-3.75
'0:19.387',-3.42
'0:19.391',-3.25
'0:19.395',-3.55
'0:19.398',-4.16
'0:19.402',-4.27
'0:19.406',-3.36
'0:19.410',-1.69
'0:19.414',0.87
'0:19.418',4.55
'0:19.422',8.76
'0:19.426',12.61
'0:19.430',14.47
'0:19.434',13.13
'0:19.438',8.79
'0:19.441',2.41
'0:19.445',-4.15
'0:19.449',-9.12
'0:19.453',-11.63
'0:19.457',-12.12
'0:19.461',-11.65
'0:19.465',-10.9
'0:19.469',-9.73
'0:19.473',-8.34
'0:19.477',-6.92
'0:19.480',-5.63
'0:19.484',-4.52
'0:19.488',-3.71
'0:19.492',-3.13
'0:19.496',-2.72
'0:19.500',-2.5
'0:19.504',-2.21
'0:19.508',-2.16
'0:19.512',-2.24
'0:19.516',-2.01
'0:19.520',-1.73
'0:19.523',-1.49
'0:19.527',-1.36
