'0:00.000',-8.46
'0:00.004',-9.33
'0:00.008',-8.92
'0:00.012',-7.93
'0:00.016',-6.7
'0:00.020',-5.22
'0:00.023',-3.57
'0:00.027',-1.97
'0:00.031',-0.81
'0:00.035',-0.31
'0:00.039',-0.15
'0:00.043',0
'0:00.047',0.31
'0:00.051',0.72
'0:00.055',1.2
'0:00.059',1.72
'0:00.063',2.41
'0:00.066',3.13
'0:00.070',3.65
'0:00.074',3.97
'0:00.078',4.1
'0:00.082',4.07
'0:00.086',4.03
'0:00.090',4.05
'0:00.094',4.21
'0:00.098',4.71
'0:00.102',5.25
'0:00.105',5.77
'0:00.109',6.18
'0:00.113',6.41
'0:00.117',6.62
'0:00.121',6.77
'0:00.125',6.66
'0:00.129',6.4
'0:00.133',6.31
'0:00.137',6.29
'0:00.141',6.08
'0:00.145',5.53
'0:00.148',4.74
'0:00.152',3.93
'0:00.156',2.96
'0:00.160',2.13
'0:00.164',1.54
'0:00.168',1.09
'0:00.172',0.67
'0:00.176',0.11
'0:00.180',-0.48
'0:00.184',-0.79
'0:00.188',-0.94
'0:00.191',-0.9
'0:00.195',-0.95
'0:00.199',-0.98
'0:00.203',-0.69
'0:00.207',-0.42
'0:00.211',-0.29
'0:00.215',-0.29
'0:00.219',-0.33
'0:00.223',-0.48
'0:00.227',-0.72
'0:00.230',-0.85
'0:00.234',-0.67
'0:00.238',-0.16
'0:00.242',0.35
'0:00.246',0.49
'0:00.250',0.17
'0:00.254',-0.41
'0:00.258',-0.81
'0:00.262',-1.05
'0:00.266',-1.35
'0:00.270',-1.74
'0:00.273',-2.06
'0:00.277',-2.45
'0:00.281',-2.88
'0:00.285',-3.12
'0:00.289',-3.21
'0:00.293',-3.26
'0:00.297',-3.33
'0:00.301',-3.45
'0:00.305',-3.48
'0:00.309',-3.44
'0:00.313',-3.32
'0:00.316',-3.1
'0:00.320',-2.92
'0:00.324',-2.98
'0:00.328',-3.3
'0:00.332',-3.44
'0:00.336',-3.09
'0:00.340',-2.14
'0:00.344',-0.3
'0:00.348',2.82
'0:00.352',6.75
'0:00.355',10.68
'0:00.359',13.3
'0:00.363',12.93
'0:00.367',9.52
'0:00.371',4
'0:00.375',-2.2
'0:00.379',-7.28
'0:00.383',-9.81
'0:00.387',-10.22
'0:00.391',-9.42
'0:00.395',-7.98
'0:00.398',-6.32
'0:00.402',-4.71
'0:00.406',-3.22
'0:00.410',-2.08
'0:00.414',-1.37
'0:00.418',-0.89
'0:00.422',-0.47
'0:00.426',0.02
'0:00.430',0.26
'0:00.434',0.44
'0:00.438',0.6
'0:00.441',1.1
'0:00.445',1.85
'0:00.449',2.54
'0:00.453',2.99
'0:00.457',3.23
'0:00.461',3.41
'0:00.465',3.49
'0:00.469',3.58
'0:00.473',3.93
'0:00.477',4.5
'0:00.480',5.24
'0:00.484',5.9
'0:00.488',6.26
'0:00.492',6.48
'0:00.496',6.81
'0:00.500',7.08
'0:00.504',7.09
'0:00.508',7.04
'0:00.512',6.77
'0:00.516',6.33
'0:00.520',5.76
'0:00.523',4.9
'0:00.527',3.91
'0:00.531',3.01
'0:00.535',2.29
'0:00.539',1.37
'0:00.543',0.76
'0:00.547',0.86
'0:00.551',1.03
'0:00.555',0.91
'0:00.559',0.63
'0:00.563',-0.02
'0:00.566',-0.54
'0:00.570',-0.98
'0:00.574',-1.33
'0:00.578',-1.67
'0:00.582',-1.89
'0:00.586',-2
'0:00.590',-2.02
'0:00.594',-1.81
'0:00.598',-1.75
'0:00.602',-1.71
'0:00.605',-1.31
'0:00.609',-0.87
'0:00.613',-0.63
'0:00.617',-0.6
'0:00.621',-0.7
'0:00.625',-0.79
'0:00.629',-0.92
'0:00.633',-1.11
'0:00.637',-1.38
'0:00.641',-1.51
'0:00.645',-1.74
'0:00.648',-2.17
'0:00.652',-2.73
'0:00.656',-3.01
'0:00.660',-3.05
'0:00.664',-3.27
'0:00.668',-3.29
'0:00.672',-3.29
'0:00.676',-3.28
'0:00.680',-3.29
'0:00.684',-4.98
'0:00.688',-4.5
'0:00.691',-4.34
'0:00.695',-4.57
'0:00.699',-4.53
'0:00.703',-4.14
'0:00.707',-4.13
'0:00.711',-4.42
'0:00.715',-4.65
'0:00.719',-4.4
'0:00.723',-3.24
'0:00.727',-0.81
'0:00.730',2.97
'0:00.734',7.54
'0:00.738',12.1
'0:00.742',15.07
'0:00.746',14.34
'0:00.750',9.8
'0:00.754',3.14
'0:00.758',-3.51
'0:00.762',-8.44
'0:00.766',-10.84
'0:00.770',-11.17
'0:00.773',-10.23
'0:00.777',-8.65
'0:00.781',-7.17
'0:00.785',-6.06
'0:00.789',-4.91
'0:00.793',-3.64
'0:00.797',-2.66
'0:00.801',-2.04
'0:00.805',-1.56
'0:00.809',-1.06
'0:00.813',-0.6
'0:00.816',-0.27
'0:00.820',-0.1
'0:00.824',0.11
'0:00.828',0.59
'0:00.832',0.97
'0:00.836',0.86
'0:00.840',0.81
'0:00.844',1.06
'0:00.848',1.84
'0:00.852',3.1
'0:00.855',4.4
'0:00.859',5.17
'0:00.863',5.39
'0:00.867',5.39
'0:00.871',5.75
'0:00.875',6.24
'0:00.879',6.46
'0:00.883',6.32
'0:00.887',5.6
'0:00.891',5.15
'0:00.895',5.61
'0:00.898',6.19
'0:00.902',6.01
'0:00.906',5.58
'0:00.910',5.18
'0:00.914',4.89
'0:00.918',4.34
'0:00.922',3.52
'0:00.926',2.57
'0:00.930',1.61
'0:00.934',0.67
'0:00.938',-0.14
'0:00.941',-0.68
'0:00.945',-1.13
'0:00.949',-1.54
'0:00.953',-1.89
'0:00.957',-2.04
'0:00.961',-2.09
'0:00.965',-2.07
'0:00.969',-2.05
'0:00.973',-1.95
'0:00.977',-1.9
'0:00.980',-1.82
'0:00.984',-1.76
'0:00.988',-1.5
'0:00.992',-1.27
'0:00.996',-1.21
'0:01.000',-1.17
'0:01.004',-1.12
'0:01.008',-1.03
'0:01.012',-0.97
'0:01.016',-1.12
'0:01.020',-1.36
'0:01.023',-1.67
'0:01.027',-2.05
'0:01.031',-2.71
'0:01.035',-3.23
'0:01.039',-3.56
'0:01.043',-4.03
'0:01.047',-4.24
'0:01.051',-4.12
'0:01.055',-4.16
'0:01.059',-4.47
'0:01.063',-4.84
'0:01.066',-5.04
'0:01.070',-5.12
'0:01.074',-5.07
'0:01.078',-4.93
'0:01.082',-4.69
'0:01.086',-4.27
'0:01.090',-3.93
'0:01.094',-4.01
'0:01.098',-4.51
'0:01.102',-4.87
'0:01.105',-4.59
'0:01.109',-3.64
'0:01.113',-1.69
'0:01.117',1.44
'0:01.121',5.18
'0:01.125',8.99
'0:01.129',11.48
'0:01.133',10.75
'0:01.137',7.5
'0:01.141',2.77
'0:01.145',-2.9
'0:01.148',-7.85
'0:01.152',-10.47
'0:01.156',-11.18
'0:01.160',-10.72
'0:01.164',-9.66
'0:01.168',-8.39
'0:01.172',-7.25
'0:01.176',-5.96
'0:01.180',-4.74
'0:01.184',-3.67
'0:01.188',-2.62
'0:01.191',-1.77
'0:01.195',-1.31
'0:01.199',-1.1
'0:01.203',-1
'0:01.207',-0.92
'0:01.211',-0.55
'0:01.215',-0.08
'0:01.219',0.57
'0:01.223',1.05
'0:01.227',1.41
'0:01.230',1.68
'0:01.234',1.94
'0:01.238',2.26
'0:01.242',2.62
'0:01.246',3.16
'0:01.250',3.52
'0:01.254',3.99
'0:01.258',4.53
'0:01.262',5.05
'0:01.266',5.57
'0:01.270',5.89
'0:01.273',6.04
'0:01.277',6.13
'0:01.281',6.17
'0:01.285',5.99
'0:01.289',5.44
'0:01.293',4.68
'0:01.297',3.95
'0:01.301',3.31
'0:01.305',2.56
'0:01.309',1.79
'0:01.313',1.23
'0:01.316',0.68
'0:01.320',0.07
'0:01.324',-0.51
'0:01.328',-1.12
'0:01.332',-1.99
'0:01.336',-2.59
'0:01.340',-2.65
'0:01.344',-2.41
'0:01.348',-2.17
'0:01.352',-2.17
'0:01.355',-1.95
'0:01.359',-1.87
'0:01.363',-1.93
'0:01.367',-1.99
'0:01.371',-1.81
'0:01.375',-1.21
'0:01.379',-0.72
'0:01.383',-0.61
'0:01.387',-0.78
'0:01.391',-0.9
'0:01.395',-1.05
'0:01.398',-1.45
'0:01.402',-1.49
'0:01.406',-1.53
'0:01.410',-1.57
'0:01.414',-1.86
'0:01.418',-2.72
'0:01.422',-3.51
'0:01.426',-4
'0:01.430',-4.43
'0:01.434',-4.43
'0:01.438',-4.27
'0:01.441',-4.15
'0:01.445',-4.23
'0:01.449',-4.4
'0:01.453',-4.51
'0:01.457',-4.53
'0:01.461',-4.74
'0:01.465',-4.97
'0:01.469',-4.78
'0:01.473',-4.35
'0:01.477',-4.06
'0:01.480',-3.83
'0:01.484',-3.61
'0:01.488',-3.23
'0:01.492',-2.22
'0:01.496',-0.15
'0:01.500',3.1
'0:01.504',6.99
'0:01.508',10.36
'0:01.512',11.69
'0:01.516',10.27
'0:01.520',6.42
'0:01.523',0.9
'0:01.527',-4.58
'0:01.531',-8.54
'0:01.535',-10.41
'0:01.539',-10.47
'0:01.543',-9.56
'0:01.547',-8.11
'0:01.551',-6.6
'0:01.555',-5.11
'0:01.559',-3.58
'0:01.563',-2.09
'0:01.566',-0.89
'0:01.570',-0.42
'0:01.574',-0.24
'0:01.578',-0.01
'0:01.582',0.58
'0:01.586',1.32
'0:01.590',1.89
'0:01.594',2.27
'0:01.598',2.44
'0:01.602',2.44
'0:01.605',2.6
'0:01.609',3.08
'0:01.613',3.55
'0:01.617',3.96
'0:01.621',4.33
'0:01.625',4.35
'0:01.629',4.29
'0:01.633',4.64
'0:01.637',5.36
'0:01.641',6.1
'0:01.645',6.7
'0:01.648',6.97
'0:01.652',7.17
'0:01.656',7.51
'0:01.660',7.75
'0:01.664',7.62
'0:01.668',7.24
'0:01.672',6.79
'0:01.676',6.23
'0:01.680',5.56
'0:01.684',4.64
'0:01.688',3.73
'0:01.691',3.02
'0:01.695',2.48
'0:01.699',1.71
'0:01.703',1.18
'0:01.707',0.94
'0:01.711',0.69
'0:01.715',0.49
'0:01.719',0.15
'0:01.723',-0.74
'0:01.727',-1.22
'0:01.730',-0.65
'0:01.734',0.11
'0:01.738',0.09
'0:01.742',-0.31
'0:01.746',-0.2
'0:01.750',0.23
'0:01.754',0.55
'0:01.758',0.78
'0:01.762',0.97
'0:01.766',1.05
'0:01.770',1.31
'0:01.773',1.65
'0:01.777',1.66
'0:01.781',1.43
'0:01.785',0.87
'0:01.789',0.2
'0:01.793',-0.33
'0:01.797',-0.64
'0:01.801',-1.07
'0:01.805',-1.61
'0:01.809',-1.89
'0:01.813',-1.97
'0:01.816',-2
'0:01.820',-2.19
'0:01.824',-2.5
'0:01.828',-2.81
'0:01.832',-3.4
'0:01.836',-3.77
'0:01.840',-3.75
'0:01.844',-3.85
'0:01.848',-3.43
'0:01.852',-2.43
'0:01.855',-1.77
'0:01.859',-1.95
'0:01.863',-2.95
'0:01.867',-3.62
'0:01.871',-2.96
'0:01.875',-1.06
'0:01.879',1.99
'0:01.883',5.93
'0:01.887',10.01
'0:01.891',13.1
'0:01.895',14.05
'0:01.898',11.9
'0:01.902',7.06
'0:01.906',1.1
'0:01.910',-4.76
'0:01.914',-8.67
'0:01.918',-10.04
'0:01.922',-9.48
'0:01.926',-7.92
'0:01.930',-6.06
'0:01.934',-4.55
'0:01.938',-3.46
'0:01.941',-2.49
'0:01.945',-1.47
'0:01.949',-0.73
'0:01.953',-0.23
'0:01.957',0.16
'0:01.961',0.29
'0:01.965',0.2
'0:01.969',0.15
'0:01.973',0.5
'0:01.977',1.55
'0:01.980',2.53
'0:01.984',2.91
'0:01.988',2.99
'0:01.992',3.03
'0:01.996',3.19
'0:02.000',3.37
'0:02.004',3.53
'0:02.008',3.93
'0:02.012',4.7
'0:02.016',5.48
'0:02.020',6.15
'0:02.023',6.66
'0:02.027',7.1
'0:02.031',7.45
'0:02.035',7.39
'0:02.039',7.12
'0:02.043',6.97
'0:02.047',6.93
'0:02.051',6.73
'0:02.055',6.24
'0:02.059',5.48
'0:02.063',4.53
'0:02.066',3.41
'0:02.070',2.3
'0:02.074',1.39
'0:02.078',0.42
'0:02.082',-0.29
'0:02.086',-0.65
'0:02.090',-0.84
'0:02.094',-1.1
'0:02.098',-1.66
'0:02.102',-2.24
'0:02.105',-2.62
'0:02.109',-2.66
'0:02.113',-2.47
'0:02.117',-2.34
'0:02.121',-2.24
'0:02.125',-1.84
'0:02.129',-1.42
'0:02.133',-1.53
'0:02.137',-1.65
'0:02.141',-1.37
'0:02.145',-1.1
'0:02.148',-1.12
'0:02.152',-1.26
'0:02.156',-1.26
'0:02.160',-1.36
'0:02.164',-1.76
'0:02.168',-2.15
'0:02.172',-2.59
'0:02.176',-2.82
'0:02.180',-2.67
'0:02.184',-2.67
'0:02.188',-3.1
'0:02.191',-3.96
'0:02.195',-4.62
'0:02.199',-4.44
'0:02.203',-4.33
'0:02.207',-4.48
'0:02.211',-4.34
'0:02.215',-4.14
'0:02.219',-4.19
'0:02.223',-4.32
'0:02.227',-4.43
'0:02.230',-4.36
'0:02.234',-4.33
'0:02.238',-4.31
'0:02.242',-4.48
'0:02.246',-5
'0:02.250',-5.44
'0:02.254',-5.2
'0:02.258',-4.12
'0:02.262',-2.24
'0:02.266',1.1
'0:02.270',5.72
'0:02.273',10.38
'0:02.277',13.69
'0:02.281',13.84
'0:02.285',10.37
'0:02.289',4.41
'0:02.293',-2.1
'0:02.297',-7.52
'0:02.301',-10.6
'0:02.305',-11.68
'0:02.309',-11.3
'0:02.313',-9.98
'0:02.316',-8.33
'0:02.320',-6.74
'0:02.324',-5.35
'0:02.328',-4.38
'0:02.332',-3.52
'0:02.336',-2.82
'0:02.340',-2.36
'0:02.344',-1.87
'0:02.348',-1.28
'0:02.352',-0.76
'0:02.355',-0.21
'0:02.359',0.24
'0:02.363',0.48
'0:02.367',0.7
'0:02.371',0.92
'0:02.375',1.23
'0:02.379',1.5
'0:02.383',1.8
'0:02.387',2.07
'0:02.391',2.35
'0:02.395',2.9
'0:02.398',3.75
'0:02.402',4.52
'0:02.406',5.12
'0:02.410',5.55
'0:02.414',5.95
'0:02.418',6.16
'0:02.422',6.12
'0:02.426',5.93
'0:02.430',5.76
'0:02.434',5.59
'0:02.438',4.95
'0:02.441',4.12
'0:02.445',3.35
'0:02.449',2.76
'0:02.453',2.24
'0:02.457',1.65
'0:02.461',1
'0:02.465',0.35
'0:02.469',-0.18
'0:02.473',-0.61
'0:02.477',-1.1
'0:02.480',-1.5
'0:02.484',-1.95
'0:02.488',-2.47
'0:02.492',-2.84
'0:02.496',-2.88
'0:02.500',-2.78
'0:02.504',-2.68
'0:02.508',-2.56
'0:02.512',-2.38
'0:02.516',-2.31
'0:02.520',-2.13
'0:02.523',-1.88
'0:02.527',-1.61
'0:02.531',-1.51
'0:02.535',-1.44
'0:02.539',-1.32
'0:02.543',-1.26
'0:02.547',-1.22
'0:02.551',-1.19
'0:02.555',-1.22
'0:02.559',-1.31
'0:02.563',-1.55
'0:02.566',-1.86
'0:02.570',-2.29
'0:02.574',-2.71
'0:02.578',-3.17
'0:02.582',-3.62
'0:02.586',-4.03
'0:02.590',-4.33
'0:02.594',-4.48
'0:02.598',-4.62
'0:02.602',-4.77
'0:02.605',-4.77
'0:02.609',-4.66
'0:02.613',-4.44
'0:02.617',-4.15
'0:02.621',-3.99
'0:02.625',-4.13
'0:02.629',-4.45
'0:02.633',-4.71
'0:02.637',-4.71
'0:02.641',-4.14
'0:02.645',-2.81
'0:02.648',-0.26
'0:02.652',3.31
'0:02.656',7.35
'0:02.660',10.68
'0:02.664',11.47
'0:02.668',9.38
'0:02.672',5.27
'0:02.676',0.03
'0:02.680',-5.18
'0:02.684',-8.83
'0:02.688',-10.4
'0:02.691',-10.53
'0:02.695',-9.84
'0:02.699',-8.69
'0:02.703',-7.2
'0:02.707',-5.91
'0:02.711',-4.73
'0:02.715',-3.47
'0:02.719',-2.32
'0:02.723',-1.55
'0:02.727',-1.04
'0:02.730',-0.67
'0:02.734',-0.33
'0:02.738',0.02
'0:02.742',0.29
'0:02.746',0.61
'0:02.750',0.81
'0:02.754',1.06
'0:02.758',1.34
'0:02.762',1.54
'0:02.766',1.59
'0:02.770',1.98
'0:02.773',2.46
'0:02.777',2.96
'0:02.781',3.43
'0:02.785',3.98
'0:02.789',4.45
'0:02.793',4.7
'0:02.797',4.91
'0:02.801',5.51
'0:02.805',6.23
'0:02.809',6.55
'0:02.813',6.59
'0:02.816',6.42
'0:02.820',5.99
'0:02.824',5.43
'0:02.828',4.75
'0:02.832',4.09
'0:02.836',3.44
'0:02.840',2.82
'0:02.844',2.12
'0:02.848',1.32
'0:02.852',0.65
'0:02.855',0.27
'0:02.859',-0.08
'0:02.863',-0.52
'0:02.867',-0.93
'0:02.871',-1.37
'0:02.875',-1.72
'0:02.879',-1.77
'0:02.883',-1.73
'0:02.887',-1.43
'0:02.891',-0.91
'0:02.895',-0.46
'0:02.898',-0.26
'0:02.902',-0.15
'0:02.906',0
'0:02.910',0.26
'0:02.914',0.53
'0:02.918',0.67
'0:02.922',0.75
'0:02.926',0.62
'0:02.930',0.34
'0:02.934',0.01
'0:02.938',-0.24
'0:02.941',-0.15
'0:02.945',-0.09
'0:02.949',-0.47
'0:02.953',-1.06
'0:02.957',-1.4
'0:02.961',-1.66
'0:02.965',-1.68
'0:02.969',-1.68
'0:02.973',-1.68
'0:02.977',-2.44
'0:02.980',-2.24
'0:02.984',-2.23
'0:02.988',-2.33
'0:02.992',-2.4
'0:02.996',-2.45
'0:03.000',-2.35
'0:03.004',-2.1
'0:03.008',-2.25
'0:03.012',-2.72
'0:03.016',-2.97
'0:03.020',-2.55
'0:03.023',-1.39
'0:03.027',0.89
'0:03.031',4.09
'0:03.035',7.64
'0:03.039',11.04
'0:03.043',13.36
'0:03.047',12.96
'0:03.051',9.66
'0:03.055',4.4
'0:03.059',-1.4
'0:03.063',-6.11
'0:03.066',-8.66
'0:03.070',-9.28
'0:03.074',-8.71
'0:03.078',-7.63
'0:03.082',-6.26
'0:03.086',-4.93
'0:03.090',-3.58
'0:03.094',-2.12
'0:03.098',-0.67
'0:03.102',0.46
'0:03.105',1.25
'0:03.109',1.7
'0:03.113',1.87
'0:03.117',1.95
'0:03.121',2.14
'0:03.125',2.22
'0:03.129',2.1
'0:03.133',2.04
'0:03.137',2.33
'0:03.141',2.94
'0:03.145',3.67
'0:03.148',4.25
'0:03.152',4.53
'0:03.156',4.77
'0:03.160',4.96
'0:03.164',5.24
'0:03.168',5.43
'0:03.172',5.55
'0:03.176',5.88
'0:03.180',6.7
'0:03.184',7.53
'0:03.188',8
'0:03.191',8.21
'0:03.195',7.98
'0:03.199',7.31
'0:03.203',6.29
'0:03.207',5.53
'0:03.211',4.99
'0:03.215',4.45
'0:03.219',3.78
'0:03.223',3.05
'0:03.227',2.27
'0:03.230',1.37
'0:03.234',0.4
'0:03.238',-0.25
'0:03.242',-0.64
'0:03.246',-0.91
'0:03.250',-1.07
'0:03.254',-1.07
'0:03.258',-1.37
'0:03.262',-1.77
'0:03.266',-1.67
'0:03.270',-1.14
'0:03.273',-0.64
'0:03.277',-0.44
'0:03.281',-0.43
'0:03.285',-0.39
'0:03.289',-0.27
'0:03.293',-0.29
'0:03.297',-0.29
'0:03.301',-0.1
'0:03.305',-0.2
'0:03.309',-0.65
'0:03.313',-0.9
'0:03.316',-0.85
'0:03.320',-0.66
'0:03.324',-0.73
'0:03.328',-1.17
'0:03.332',-1.87
'0:03.336',-2.51
'0:03.340',-2.87
'0:03.344',-3.12
'0:03.348',-3.47
'0:03.352',-3.84
'0:03.355',-4.1
'0:03.359',-4.33
'0:03.363',-4.22
'0:03.367',-3.9
'0:03.371',-3.59
'0:03.375',-3.34
'0:03.379',-3.15
'0:03.383',-3.26
'0:03.387',-3.76
'0:03.391',-4.56
'0:03.395',-5.01
'0:03.398',-4.73
'0:03.402',-3.79
'0:03.406',-1.9
'0:03.410',1.3
'0:03.414',5.62
'0:03.418',10.15
'0:03.422',13.76
'0:03.426',14.64
'0:03.430',11.78
'0:03.434',5.98
'0:03.438',-0.69
'0:03.441',-6.33
'0:03.445',-9.58
'0:03.449',-10.56
'0:03.453',-10.01
'0:03.457',-8.76
'0:03.461',-7.23
'0:03.465',-5.66
'0:03.469',-4.14
'0:03.473',-2.81
'0:03.477',-1.87
'0:03.480',-1.21
'0:03.484',-0.76
'0:03.488',-0.45
'0:03.492',-0.11
'0:03.496',0.14
'0:03.500',0.27
'0:03.504',0.15
'0:03.508',0.33
'0:03.512',1
'0:03.516',1.76
'0:03.520',2.3
'0:03.523',2.56
'0:03.527',2.84
'0:03.531',3.02
'0:03.535',3.05
'0:03.539',3.23
'0:03.543',3.67
'0:03.547',4.63
'0:03.551',5.65
'0:03.555',6.28
'0:03.559',6.53
'0:03.563',6.76
'0:03.566',6.9
'0:03.570',6.85
'0:03.574',6.69
'0:03.578',6.31
'0:03.582',5.7
'0:03.586',4.84
'0:03.590',3.95
'0:03.594',3.17
'0:03.598',2.37
'0:03.602',1.49
'0:03.605',0.78
'0:03.609',0.12
'0:03.613',-0.49
'0:03.617',-1.02
'0:03.621',-1.47
'0:03.625',-1.86
'0:03.629',-2.25
'0:03.633',-2.66
'0:03.637',-3.1
'0:03.641',-3.34
'0:03.645',-3.27
'0:03.648',-2.89
'0:03.652',-2.4
'0:03.656',-2.14
'0:03.660',-2.19
'0:03.664',-2.31
'0:03.668',-2.22
'0:03.672',-2.04
'0:03.676',-2.04
'0:03.680',-1.97
'0:03.684',-1.59
'0:03.688',-1.2
'0:03.691',-1.12
'0:03.695',-1.21
'0:03.699',-1.38
'0:03.703',-1.59
'0:03.707',-1.89
'0:03.711',-2.28
'0:03.715',-2.68
'0:03.719',-3.18
'0:03.723',-3.68
'0:03.727',-4.15
'0:03.730',-4.57
'0:03.734',-4.91
'0:03.738',-5.16
'0:03.742',-5.27
'0:03.746',-5.24
'0:03.750',-5.11
'0:03.754',-4.99
'0:03.758',-4.92
'0:03.762',-4.75
'0:03.766',-4.54
'0:03.770',-4.41
'0:03.773',-4.48
'0:03.777',-4.77
'0:03.781',-4.97
'0:03.785',-4.73
'0:03.789',-3.93
'0:03.793',-2.34
'0:03.797',0.38
'0:03.801',4
'0:03.805',8.06
'0:03.809',11.52
'0:03.813',12.54
'0:03.816',10.26
'0:03.820',5.67
'0:03.824',0.03
'0:03.828',-5.47
'0:03.832',-9.38
'0:03.836',-11.1
'0:03.840',-11.05
'0:03.844',-10.07
'0:03.848',-8.71
'0:03.852',-7.24
'0:03.855',-5.89
'0:03.859',-4.64
'0:03.863',-3.54
'0:03.867',-2.61
'0:03.871',-1.75
'0:03.875',-1.09
'0:03.879',-0.71
'0:03.883',-0.53
'0:03.887',-0.27
'0:03.891',0.09
'0:03.895',0.6
'0:03.898',0.95
'0:03.902',1.23
'0:03.906',1.65
'0:03.910',2.09
'0:03.914',2.36
'0:03.918',2.56
'0:03.922',2.7
'0:03.926',2.99
'0:03.930',3.43
'0:03.934',3.89
'0:03.938',4.26
'0:03.941',4.52
'0:03.945',4.96
'0:03.949',5.37
'0:03.953',5.49
'0:03.957',5.62
'0:03.961',5.72
'0:03.965',5.46
'0:03.969',5.01
'0:03.973',4.49
'0:03.977',3.82
'0:03.980',3.19
'0:03.984',2.51
'0:03.988',1.74
'0:03.992',0.98
'0:03.996',0.3
'0:04.000',-0.37
'0:04.004',-0.98
'0:04.008',-1.63
'0:04.012',-2.13
'0:04.016',-2.48
'0:04.020',-2.69
'0:04.023',-2.87
'0:04.027',-2.88
'0:04.031',-2.76
'0:04.035',-2.62
'0:04.039',-2.39
'0:04.043',-2.17
'0:04.047',-2.19
'0:04.051',-2.08
'0:04.055',-1.76
'0:04.059',-1.4
'0:04.063',-1.16
'0:04.066',-1.1
'0:04.070',-0.98
'0:04.074',-0.88
'0:04.078',-0.79
'0:04.082',-1.03
'0:04.086',-1.23
'0:04.090',-1.41
'0:04.094',-1.7
'0:04.098',-2.05
'0:04.102',-2.56
'0:04.105',-3.19
'0:04.109',-3.72
'0:04.113',-3.89
'0:04.117',-4.02
'0:04.121',-4.12
'0:04.125',-4.15
'0:04.129',-4
'0:04.133',-3.89
'0:04.137',-3.92
'0:04.141',-3.8
'0:04.145',-3.63
'0:04.148',-3.41
'0:04.152',-3.38
'0:04.156',-3.64
'0:04.160',-3.78
'0:04.164',-3.61
'0:04.168',-3.18
'0:04.172',-2.37
'0:04.176',-0.38
'0:04.180',2.74
'0:04.184',6.47
'0:04.188',9.86
'0:04.191',11.64
'0:04.195',11.06
'0:04.199',8.04
'0:04.203',3
'0:04.207',-2.61
'0:04.211',-7.03
'0:04.215',-9.31
'0:04.219',-9.93
'0:04.223',-9.54
'0:04.227',-8.49
'0:04.230',-6.93
'0:04.234',-5.42
'0:04.238',-4.04
'0:04.242',-2.62
'0:04.246',-1.28
'0:04.250',-0.24
'0:04.254',0.31
'0:04.258',0.61
'0:04.262',0.94
'0:04.266',1.28
'0:04.270',1.59
'0:04.273',1.9
'0:04.277',2.14
'0:04.281',2.53
'0:04.285',3.06
'0:04.289',3.52
'0:04.293',3.71
'0:04.297',3.57
'0:04.301',3.46
'0:04.305',3.69
'0:04.309',4.25
'0:04.313',4.96
'0:04.316',5.75
'0:04.320',6.24
'0:04.324',6.24
'0:04.328',6.24
'0:04.332',6.24
'0:04.336',6.37
'0:04.340',7.2
'0:04.344',6.57
'0:04.348',5.87
'0:04.352',5.23
'0:04.355',5.02
'0:04.359',5.11
'0:04.363',5.01
'0:04.367',4.55
'0:04.371',3.73
'0:04.375',2.85
'0:04.379',2.17
'0:04.383',1.48
'0:04.387',0.85
'0:04.391',0.17
'0:04.395',-0.37
'0:04.398',-0.79
'0:04.402',-1.02
'0:04.406',-0.77
'0:04.410',-0.11
'0:04.414',0.43
'0:04.418',0.56
'0:04.422',0.42
'0:04.426',0
'0:04.430',-0.3
'0:04.434',-0.13
'0:04.438',0.35
'0:04.441',0.77
'0:04.445',0.96
'0:04.449',0.97
'0:04.453',0.72
'0:04.457',0.34
'0:04.461',-0.11
'0:04.465',-0.43
'0:04.469',-0.43
'0:04.473',-0.46
'0:04.477',-0.74
'0:04.480',-1.22
'0:04.484',-1.72
'0:04.488',-2.3
'0:04.492',-2.76
'0:04.496',-3.11
'0:04.500',-3.25
'0:04.504',-3.31
'0:04.508',-3.29
'0:04.512',-3.24
'0:04.516',-3.1
'0:04.520',-2.93
'0:04.523',-2.95
'0:04.527',-3
'0:04.531',-2.88
'0:04.535',-2.73
'0:04.539',-2.79
'0:04.543',-2.97
'0:04.547',-2.95
'0:04.551',-2.52
'0:04.555',-1.24
'0:04.559',1.21
'0:04.563',4.74
'0:04.566',8.62
'0:04.570',11.84
'0:04.574',12.92
'0:04.578',10.78
'0:04.582',6.03
'0:04.586',0.27
'0:04.590',-5.12
'0:04.594',-8.51
'0:04.598',-9.63
'0:04.602',-9.29
'0:04.605',-8.43
'0:04.609',-7.32
'0:04.613',-5.96
'0:04.617',-4.4
'0:04.621',-2.94
'0:04.625',-1.83
'0:04.629',-1.07
'0:04.633',-0.38
'0:04.637',0.21
'0:04.641',0.65
'0:04.645',1.01
'0:04.648',1.41
'0:04.652',1.72
'0:04.656',1.94
'0:04.660',2.14
'0:04.664',2.31
'0:04.668',2.53
'0:04.672',2.79
'0:04.676',3.18
'0:04.680',3.62
'0:04.684',4.03
'0:04.688',4.38
'0:04.691',4.81
'0:04.695',5.35
'0:04.699',5.91
'0:04.703',6.47
'0:04.707',6.79
'0:04.711',6.87
'0:04.715',6.73
'0:04.719',6.52
'0:04.723',6.12
'0:04.727',5.81
'0:04.730',6.01
'0:04.734',6.31
'0:04.738',6.1
'0:04.742',5.37
'0:04.746',4.25
'0:04.750',3.01
'0:04.754',1.72
'0:04.758',0.8
'0:04.762',0.08
'0:04.766',-0.64
'0:04.770',-1.15
'0:04.773',-1.59
'0:04.777',-1.96
'0:04.781',-2.23
'0:04.785',-2.43
'0:04.789',-2.51
'0:04.793',-2.41
'0:04.797',-2.15
'0:04.801',-1.85
'0:04.805',-1.78
'0:04.809',-1.78
'0:04.813',-1.56
'0:04.816',-1.12
'0:04.820',-0.66
'0:04.824',-0.42
'0:04.828',-0.49
'0:04.832',-0.46
'0:04.836',-0.27
'0:04.840',-0.27
'0:04.844',-0.45
'0:04.848',-0.79
'0:04.852',-1.11
'0:04.855',-1.28
'0:04.859',-1.57
'0:04.863',-2
'0:04.867',-2.58
'0:04.871',-3.2
'0:04.875',-3.76
'0:04.879',-4.14
'0:04.883',-4.3
'0:04.887',-4.41
'0:04.891',-4.52
'0:04.895',-4.61
'0:04.898',-4.62
'0:04.902',-4.54
'0:04.906',-4.29
'0:04.910',-4.07
'0:04.914',-3.97
'0:04.918',-4.04
'0:04.922',-4.44
'0:04.926',-4.84
'0:04.930',-4.73
'0:04.934',-4.16
'0:04.938',-2.89
'0:04.941',-0.19
'0:04.945',3.76
'0:04.949',8.18
'0:04.953',12.23
'0:04.957',14.17
'0:04.961',12.5
'0:04.965',7.7
'0:04.969',1.41
'0:04.973',-4.65
'0:04.977',-9.15
'0:04.980',-11.25
'0:04.984',-11.4
'0:04.988',-10.35
'0:04.992',-8.79
'0:04.996',-7.21
'0:05.000',-5.71
'0:05.004',-4.48
'0:05.008',-3.6
'0:05.012',-2.78
'0:05.016',-2.13
'0:05.020',-1.65
'0:05.023',-1.2
'0:05.027',-0.79
'0:05.031',-0.37
'0:05.035',-0.01
'0:05.039',0.33
'0:05.043',0.74
'0:05.047',1.16
'0:05.051',1.65
'0:05.055',2.09
'0:05.059',2.43
'0:05.063',2.75
'0:05.066',3.04
'0:05.070',3.42
'0:05.074',3.94
'0:05.078',4.49
'0:05.082',5.08
'0:05.086',5.47
'0:05.090',5.7
'0:05.094',5.84
'0:05.098',5.95
'0:05.102',6.04
'0:05.105',5.97
'0:05.109',5.83
'0:05.113',5.5
'0:05.117',5
'0:05.121',4.26
'0:05.125',3.28
'0:05.129',2.33
'0:05.133',1.56
'0:05.137',0.9
'0:05.141',0.32
'0:05.145',-0.08
'0:05.148',-0.54
'0:05.152',-0.94
'0:05.156',-1.4
'0:05.160',-1.77
'0:05.164',-2.02
'0:05.168',-2.21
'0:05.172',-2.36
'0:05.176',-2.38
'0:05.180',-2.38
'0:05.184',-2.28
'0:05.188',-2.13
'0:05.191',-1.99
'0:05.195',-1.9
'0:05.199',-1.83
'0:05.203',-1.68
'0:05.207',-1.54
'0:05.211',-1.34
'0:05.215',-1.24
'0:05.219',-1.24
'0:05.223',-1.34
'0:05.227',-1.17
'0:05.230',-1.14
'0:05.234',-1.24
'0:05.238',-1.39
'0:05.242',-1.57
'0:05.246',-1.91
'0:05.250',-2.25
'0:05.254',-2.73
'0:05.258',-3.22
'0:05.262',-3.59
'0:05.266',-3.8
'0:05.270',-3.96
'0:05.273',-4.27
'0:05.277',-4.47
'0:05.281',-4.57
'0:05.285',-4.56
'0:05.289',-4.55
'0:05.293',-4.47
'0:05.297',-4.33
'0:05.301',-4.43
'0:05.305',-4.71
'0:05.309',-5.26
'0:05.313',-5.65
'0:05.316',-5.26
'0:05.320',-4.15
'0:05.324',-2.35
'0:05.328',0.45
'0:05.332',4.23
'0:05.336',8.39
'0:05.340',11.46
'0:05.344',11.7
'0:05.348',9.23
'0:05.352',4.96
'0:05.355',-0.42
'0:05.359',-2.65
'0:05.363',-2.66
'0:05.367',-2.65
'0:05.371',-2.66
'0:05.375',-10.95
'0:05.379',-9.97
'0:05.383',-8.64
'0:05.387',-6.92
'0:05.391',-5.25
'0:05.395',-4.05
'0:05.398',-3.09
'0:05.402',-2.14
'0:05.406',-1.41
'0:05.410',-0.94
'0:05.414',-0.42
'0:05.418',-0.12
'0:05.422',0.06
'0:05.426',0.17
'0:05.430',0.55
'0:05.434',1.05
'0:05.438',1.21
'0:05.441',1.46
'0:05.445',1.91
'0:05.449',2.24
'0:05.453',2.48
'0:05.457',2.84
'0:05.461',3.39
'0:05.465',3.82
'0:05.469',4.13
'0:05.473',4.45
'0:05.477',4.84
'0:05.480',5.46
'0:05.484',6.19
'0:05.488',6.51
'0:05.492',6.45
'0:05.496',6.08
'0:05.500',5.76
'0:05.504',5.36
'0:05.508',4.7
'0:05.512',3.78
'0:05.516',3.02
'0:05.520',2.17
'0:05.523',1.67
'0:05.527',1.44
'0:05.531',1.35
'0:05.535',1.05
'0:05.539',0.49
'0:05.543',-0.08
'0:05.547',-0.5
'0:05.551',-0.79
'0:05.555',-0.99
'0:05.559',-1.23
'0:05.563',-1.29
'0:05.566',-1.34
'0:05.570',-1.59
'0:05.574',-1.8
'0:05.578',-1.55
'0:05.582',-0.94
'0:05.586',-0.78
'0:05.590',-0.78
'0:05.594',-0.78
'0:05.598',-0.67
'0:05.602',-0.13
'0:05.605',-0.38
'0:05.609',-0.27
'0:05.613',0.02
'0:05.617',0.13
'0:05.621',0.08
'0:05.625',-0.11
'0:05.629',-0.42
'0:05.633',-0.93
'0:05.637',-1.54
'0:05.641',-2.08
'0:05.645',-2.42
'0:05.648',-2.62
'0:05.652',-2.79
'0:05.656',-3.06
'0:05.660',-3.35
'0:05.664',-3.34
'0:05.668',-3
'0:05.672',-2.59
'0:05.676',-2.32
'0:05.680',-2.17
'0:05.684',-2.26
'0:05.688',-2.5
'0:05.691',-2.77
'0:05.695',-2.71
'0:05.699',-2.19
'0:05.703',-1.12
'0:05.707',0.86
'0:05.711',3.79
'0:05.715',7.1
'0:05.719',10.44
'0:05.723',12.53
'0:05.727',12.15
'0:05.730',9.29
'0:05.734',4.25
'0:05.738',-1.47
'0:05.742',-6.05
'0:05.746',-8.5
'0:05.750',-9.25
'0:05.754',-8.97
'0:05.758',-7.74
'0:05.762',-6.13
'0:05.766',-4.67
'0:05.770',-3.35
'0:05.773',-2.08
'0:05.777',-1.04
'0:05.781',-0.17
'0:05.785',0.62
'0:05.789',1.18
'0:05.793',1.38
'0:05.797',1.44
'0:05.801',1.61
'0:05.805',1.92
'0:05.809',2.26
'0:05.813',2.67
'0:05.816',3.07
'0:05.820',3.36
'0:05.824',3.63
'0:05.828',3.8
'0:05.832',4.06
'0:05.836',4.57
'0:05.840',5.15
'0:05.844',5.58
'0:05.848',5.92
'0:05.852',6.3
'0:05.855',6.65
'0:05.859',6.62
'0:05.863',6.37
'0:05.867',6.36
'0:05.871',6.5
'0:05.875',6.75
'0:05.879',6.78
'0:05.883',6.35
'0:05.887',5.63
'0:05.891',4.87
'0:05.895',4.24
'0:05.898',3.65
'0:05.902',2.93
'0:05.906',2.04
'0:05.910',1.24
'0:05.914',0.4
'0:05.918',-0.34
'0:05.922',-0.88
'0:05.926',-1.14
'0:05.930',-1.31
'0:05.934',-1.46
'0:05.938',-1.51
'0:05.941',-1.39
'0:05.945',-1.24
'0:05.949',-1.05
'0:05.953',-1
'0:05.957',-1.21
'0:05.961',-1.38
'0:05.965',-1.01
'0:05.969',-0.78
'0:05.973',-1.03
'0:05.977',-1.03
'0:05.980',-0.37
'0:05.984',0.26
'0:05.988',0.35
'0:05.992',0
'0:05.996',-0.64
'0:06.000',-1.04
'0:06.004',-1.07
'0:06.008',-1.28
'0:06.012',-1.88
'0:06.016',-2.58
'0:06.020',-3.26
'0:06.023',-3.92
'0:06.027',-4.33
'0:06.031',-4.71
'0:06.035',-4.95
'0:06.039',-4.62
'0:06.043',-3.97
'0:06.047',-3.58
'0:06.051',-3.79
'0:06.055',-3.85
'0:06.059',-3.54
'0:06.063',-3.26
'0:06.066',-3.17
'0:06.070',-3.57
'0:06.074',-4.15
'0:06.078',-4.14
'0:06.082',-3.34
'0:06.086',-1.96
'0:06.090',0.25
'0:06.094',3.51
'0:06.098',7.63
'0:06.102',11.7
'0:06.105',14.09
'0:06.109',13.15
'0:06.113',8.82
'0:06.117',2.62
'0:06.121',-3.54
'0:06.125',-8.05
'0:06.129',-10.07
'0:06.133',-10.12
'0:06.137',-9.11
'0:06.141',-7.64
'0:06.145',-6.06
'0:06.148',-4.59
'0:06.152',-3.32
'0:06.156',-2.29
'0:06.160',-1.57
'0:06.164',-1.03
'0:06.168',-0.72
'0:06.172',-0.44
'0:06.176',-0.08
'0:06.180',0.36
'0:06.184',0.72
'0:06.188',0.97
'0:06.191',1.19
'0:06.195',1.41
'0:06.199',1.67
'0:06.203',2.01
'0:06.207',2.4
'0:06.211',2.79
'0:06.215',3.17
'0:06.219',3.44
'0:06.223',3.6
'0:06.227',3.65
'0:06.230',4.15
'0:06.234',5.15
'0:06.238',5.91
'0:06.242',6.42
'0:06.246',6.81
'0:06.250',6.88
'0:06.254',6.69
'0:06.258',6.21
'0:06.262',5.52
'0:06.266',4.78
'0:06.270',4.04
'0:06.273',3.41
'0:06.277',2.57
'0:06.281',1.68
'0:06.285',1.06
'0:06.289',0.65
'0:06.293',0.22
'0:06.297',-0.44
'0:06.301',-1.25
'0:06.305',-1.93
'0:06.309',-2.35
'0:06.313',-2.58
'0:06.316',-2.55
'0:06.320',-2.39
'0:06.324',-2.31
'0:06.328',-2.27
'0:06.332',-2.26
'0:06.336',-2.19
'0:06.340',-2.05
'0:06.344',-1.95
'0:06.348',-2.11
'0:06.352',-2.1
'0:06.355',-1.69
'0:06.359',-1.32
'0:06.363',-1.15
'0:06.367',-1.07
'0:06.371',-1.07
'0:06.375',-1.14
'0:06.379',-1.35
'0:06.383',-1.56
'0:06.387',-1.51
'0:06.391',-1.5
'0:06.395',-1.75
'0:06.398',-2.13
'0:06.402',-2.56
'0:06.406',-3.14
'0:06.410',-3.88
'0:06.414',-4.68
'0:06.418',-5.09
'0:06.422',-5.07
'0:06.426',-4.67
'0:06.430',-4.08
'0:06.434',-3.73
'0:06.438',-3.63
'0:06.441',-3.55
'0:06.445',-3.53
'0:06.449',-3.48
'0:06.453',-3.46
'0:06.457',-3.74
'0:06.461',-4.2
'0:06.465',-4.26
'0:06.469',-3.77
'0:06.473',-2.72
'0:06.477',-0.41
'0:06.480',3.23
'0:06.484',7.49
'0:06.488',11.6
'0:06.492',13.98
'0:06.496',12.93
'0:06.500',8.66
'0:06.504',2.75
'0:06.508',-3.12
'0:06.512',-7.74
'0:06.516',-10.12
'0:06.520',-10.71
'0:06.523',-10.2
'0:06.527',-9.02
'0:06.531',-7.63
'0:06.535',-6.16
'0:06.539',-4.72
'0:06.543',-3.52
'0:06.547',-2.55
'0:06.551',-1.87
'0:06.555',-1.3
'0:06.559',-0.75
'0:06.563',-0.4
'0:06.566',-0.1
'0:06.570',0.17
'0:06.574',0.48
'0:06.578',0.87
'0:06.582',1.12
'0:06.586',1.29
'0:06.590',1.44
'0:06.594',1.68
'0:06.598',1.96
'0:06.602',2.24
'0:06.605',2.55
'0:06.609',2.94
'0:06.613',3.36
'0:06.617',3.98
'0:06.621',4.47
'0:06.625',4.84
'0:06.629',5
'0:06.633',4.93
'0:06.637',5.13
'0:06.641',5.33
'0:06.645',5.31
'0:06.648',5.06
'0:06.652',4.7
'0:06.656',4.13
'0:06.660',3.4
'0:06.664',2.68
'0:06.668',2
'0:06.672',1.27
'0:06.676',0.48
'0:06.680',-0.2
'0:06.684',-0.67
'0:06.688',-1.11
'0:06.691',-1.64
'0:06.695',-2.08
'0:06.699',-2.52
'0:06.703',-2.86
'0:06.707',-2.87
'0:06.711',-2.73
'0:06.715',-2.6
'0:06.719',-2.63
'0:06.723',-2.75
'0:06.727',-2.76
'0:06.730',-2.66
'0:06.734',-2.47
'0:06.738',-2.13
'0:06.742',-1.86
'0:06.746',-1.61
'0:06.750',-1.46
'0:06.754',-1.39
'0:06.758',-1.48
'0:06.762',-1.91
'0:06.766',-2.07
'0:06.770',-2.16
'0:06.773',-2.45
'0:06.777',-2.67
'0:06.781',-3.01
'0:06.785',-3.42
'0:06.789',-3.76
'0:06.793',-4.23
'0:06.797',-4.62
'0:06.801',-4.82
'0:06.805',-4.86
'0:06.809',-4.9
'0:06.813',-4.88
'0:06.816',-4.61
'0:06.820',-4.32
'0:06.824',-4.16
'0:06.828',-4.11
'0:06.832',-3.97
'0:06.836',-3.83
'0:06.840',-4.01
'0:06.844',-4.16
'0:06.848',-3.94
'0:06.852',-3.21
'0:06.855',-1.77
'0:06.859',0.54
'0:06.863',3.71
'0:06.867',7.57
'0:06.871',10.8
'0:06.875',11.89
'0:06.879',10.39
'0:06.883',6.63
'0:06.887',1.3
'0:06.891',-4.08
'0:06.895',-7.83
'0:06.898',-9.52
'0:06.902',-9.67
'0:06.906',-8.87
'0:06.910',-7.52
'0:06.914',-5.96
'0:06.918',-4.59
'0:06.922',-3.27
'0:06.926',-2.2
'0:06.930',-1.57
'0:06.934',-0.75
'0:06.938',0.37
'0:06.941',1.46
'0:06.945',2.11
'0:06.949',2.39
'0:06.953',2.51
'0:06.957',2.47
'0:06.961',2.48
'0:06.965',2.71
'0:06.969',3.02
'0:06.973',3.42
'0:06.977',3.91
'0:06.980',4.46
'0:06.984',4.82
'0:06.988',4.85
'0:06.992',4.92
'0:06.996',5.21
'0:07.000',5.65
'0:07.004',6.12
'0:07.008',6.57
'0:07.012',6.85
'0:07.016',7
'0:07.020',7.19
'0:07.023',7.36
'0:07.027',7.28
'0:07.031',7.12
'0:07.035',6.82
'0:07.039',6.14
'0:07.043',5.26
'0:07.047',4.6
'0:07.051',3.8
'0:07.055',3.08
'0:07.059',2.31
'0:07.063',1.56
'0:07.066',1.04
'0:07.070',0.7
'0:07.074',0.38
'0:07.078',-0.05
'0:07.082',-0.38
'0:07.086',-0.37
'0:07.090',-0.34
'0:07.094',-0.44
'0:07.098',-0.7
'0:07.102',-0.7
'0:07.105',-0.39
'0:07.109',-0.13
'0:07.113',-0.12
'0:07.117',-0.19
'0:07.121',0.09
'0:07.125',0.64
'0:07.129',0.83
'0:07.133',0.6
'0:07.137',0.4
'0:07.141',0.25
'0:07.145',0.09
'0:07.148',-0.12
'0:07.152',-0.53
'0:07.156',-1
'0:07.160',-1.26
'0:07.164',-1.48
'0:07.168',-1.82
'0:07.172',-2.25
'0:07.176',-2.68
'0:07.180',-2.94
'0:07.184',-3.3
'0:07.188',-3.58
'0:07.191',-3.56
'0:07.195',-3.41
'0:07.199',-3.27
'0:07.203',-3.23
'0:07.207',-3.43
'0:07.211',-3.44
'0:07.215',-3.05
'0:07.219',-2.73
'0:07.223',-3.01
'0:07.227',-3.6
'0:07.230',-3.84
'0:07.234',-3.54
'0:07.238',-2.51
'0:07.242',-0.33
'0:07.246',3.02
'0:07.250',7.2
'0:07.254',11.38
'0:07.258',14.06
'0:07.262',13.45
'0:07.266',9.51
'0:07.270',3.77
'0:07.273',-2.38
'0:07.277',-7.3
'0:07.281',-9.73
'0:07.285',-9.91
'0:07.289',-8.66
'0:07.293',-7.03
'0:07.297',-5.61
'0:07.301',-4.22
'0:07.305',-2.73
'0:07.309',-1.39
'0:07.313',-0.43
'0:07.316',0.08
'0:07.320',0.52
'0:07.324',0.59
'0:07.328',0.51
'0:07.332',0.81
'0:07.336',1.31
'0:07.340',1.66
'0:07.344',1.97
'0:07.348',2.23
'0:07.352',2.36
'0:07.355',2.7
'0:07.359',3.27
'0:07.363',3.84
'0:07.367',4.21
'0:07.371',4.57
'0:07.375',4.97
'0:07.379',5.45
'0:07.383',6.03
'0:07.387',6.57
'0:07.391',6.77
'0:07.395',6.63
'0:07.398',6.89
'0:07.402',7.31
'0:07.406',7.49
'0:07.410',7.32
'0:07.414',6.92
'0:07.418',6.37
'0:07.422',5.63
'0:07.426',4.58
'0:07.430',3.59
'0:07.434',2.73
'0:07.438',2.02
'0:07.441',1.38
'0:07.445',0.77
'0:07.449',0.23
'0:07.453',-0.23
'0:07.457',-0.71
'0:07.461',-1.23
'0:07.465',-1.72
'0:07.469',-2.13
'0:07.473',-2.38
'0:07.477',-2.51
'0:07.480',-2.44
'0:07.484',-2.31
'0:07.488',-2.07
'0:07.492',-1.86
'0:07.496',-1.75
'0:07.500',-1.65
'0:07.504',-1.47
'0:07.508',-1.34
'0:07.512',-1.29
'0:07.516',-1.22
'0:07.520',-1.05
'0:07.523',-0.95
'0:07.527',-0.94
'0:07.531',-1.09
'0:07.535',-1.31
'0:07.539',-1.5
'0:07.543',-1.7
'0:07.547',-2.08
'0:07.551',-2.54
'0:07.555',-3.02
'0:07.559',-3.45
'0:07.563',-3.89
'0:07.566',-4.23
'0:07.570',-4.48
'0:07.574',-4.58
'0:07.578',-4.69
'0:07.582',-4.68
'0:07.586',-4.61
'0:07.590',-4.48
'0:07.594',-4.35
'0:07.598',-4.26
'0:07.602',-4.16
'0:07.605',-4.12
'0:07.609',-4.33
'0:07.613',-4.67
'0:07.617',-4.77
'0:07.621',-4.35
'0:07.625',-3.09
'0:07.629',-0.58
'0:07.633',3.14
'0:07.637',7.56
'0:07.641',11.72
'0:07.645',13.77
'0:07.648',12.23
'0:07.652',7.77
'0:07.656',1.79
'0:07.660',-4.12
'0:07.664',-8.55
'0:07.668',-10.85
'0:07.672',-11.19
'0:07.676',-10.33
'0:07.680',-8.94
'0:07.684',-7.48
'0:07.688',-6.26
'0:07.691',-4.98
'0:07.695',-3.61
'0:07.699',-2.34
'0:07.703',-1.36
'0:07.707',-0.71
'0:07.711',-0.3
'0:07.715',0
'0:07.719',0.15
'0:07.723',0.34
'0:07.727',0.63
'0:07.730',0.99
'0:07.734',1.31
'0:07.738',1.56
'0:07.742',1.87
'0:07.746',2.28
'0:07.750',2.65
'0:07.754',3
'0:07.758',3.36
'0:07.762',3.82
'0:07.766',4.34
'0:07.770',4.72
'0:07.773',5
'0:07.777',5.3
'0:07.781',5.6
'0:07.785',5.74
'0:07.789',5.73
'0:07.793',5.78
'0:07.797',5.71
'0:07.801',5.52
'0:07.805',5.1
'0:07.809',4.5
'0:07.813',3.73
'0:07.816',2.83
'0:07.820',1.85
'0:07.824',1.09
'0:07.828',0.53
'0:07.832',-0.01
'0:07.836',-0.52
'0:07.840',-1.24
'0:07.844',-1.96
'0:07.848',-2.38
'0:07.852',-2.41
'0:07.855',-2.24
'0:07.859',-2.33
'0:07.863',-2.55
'0:07.867',-2.54
'0:07.871',-2.29
'0:07.875',-2.16
'0:07.879',-2.16
'0:07.883',-2.02
'0:07.887',-1.64
'0:07.891',-1.34
'0:07.895',-1.12
'0:07.898',-1.14
'0:07.902',-1.1
'0:07.906',-1.09
'0:07.910',-1.09
'0:07.914',-1.1
'0:07.918',-1.63
'0:07.922',-1.98
'0:07.926',-2.32
'0:07.930',-2.66
'0:07.934',-3.1
'0:07.938',-3.58
'0:07.941',-4.08
'0:07.945',-4.57
'0:07.949',-5.03
'0:07.953',-5.22
'0:07.957',-5.24
'0:07.961',-5.15
'0:07.965',-5.07
'0:07.969',-5.11
'0:07.973',-4.93
'0:07.977',-4.61
'0:07.980',-4.36
'0:07.984',-4.12
'0:07.988',-4.09
'0:07.992',-4.19
'0:07.996',-4.35
'0:08.000',-4.37
'0:08.004',-4.08
'0:08.008',-3.06
'0:08.012',-0.8
'0:08.016',2.59
'0:08.020',6.34
'0:08.023',9.77
'0:08.027',11.25
'0:08.031',10.02
'0:08.035',6.66
'0:08.039',1.65
'0:08.043',-3.56
'0:08.047',-7.57
'0:08.051',-9.68
'0:08.055',-10.39
'0:08.059',-9.82
'0:08.063',-8.44
'0:08.066',-6.95
'0:08.070',-5.49
'0:08.074',-4.38
'0:08.078',-3.29
'0:08.082',-2.16
'0:08.086',-1.22
'0:08.090',-0.52
'0:08.094',-0.08
'0:08.098',0.21
'0:08.102',0.46
'0:08.105',0.75
'0:08.109',1.19
'0:08.113',1.56
'0:08.117',1.94
'0:08.121',2.23
'0:08.125',2.46
'0:08.129',2.7
'0:08.133',2.88
'0:08.137',3
'0:08.141',3.17
'0:08.145',3.57
'0:08.148',4.18
'0:08.152',4.78
'0:08.156',5.23
'0:08.160',5.64
'0:08.164',5.98
'0:08.168',6.33
'0:08.172',6.58
'0:08.176',6.63
'0:08.180',6.61
'0:08.184',6.4
'0:08.188',5.94
'0:08.191',5.29
'0:08.195',4.68
'0:08.199',4.21
'0:08.203',3.7
'0:08.207',3.04
'0:08.211',2.29
'0:08.215',1.53
'0:08.219',0.83
'0:08.223',0.23
'0:08.227',-0.11
'0:08.230',-0.36
'0:08.234',-0.36
'0:08.238',-1.19
'0:08.242',-1.1
'0:08.246',-0.74
'0:08.250',-0.39
'0:08.254',-0.34
'0:08.258',-0.38
'0:08.262',-0.29
'0:08.266',0.04
'0:08.270',0.34
'0:08.273',0.45
'0:08.277',0.45
'0:08.281',0.37
'0:08.285',0.42
'0:08.289',0.46
'0:08.293',0.4
'0:08.297',0.2
'0:08.301',-0.01
'0:08.305',-0.23
'0:08.309',-0.48
'0:08.313',-0.79
'0:08.316',-1.25
'0:08.320',-1.86
'0:08.324',-2.52
'0:08.328',-3.08
'0:08.332',-3.29
'0:08.336',-3.22
'0:08.340',-3.07
'0:08.344',-3.02
'0:08.348',-2.99
'0:08.352',-2.92
'0:08.355',-3.01
'0:08.359',-2.93
'0:08.363',-2.8
'0:08.367',-2.49
'0:08.371',-2.36
'0:08.375',-2.64
'0:08.379',-3.08
'0:08.383',-3.1
'0:08.387',-2.46
'0:08.391',-0.97
'0:08.395',1.84
'0:08.398',5.78
'0:08.402',9.94
'0:08.406',12.98
'0:08.410',13.3
'0:08.414',10.42
'0:08.418',5.55
'0:08.422',-0.01
'0:08.426',-5.13
'0:08.430',-8.37
'0:08.434',-9.59
'0:08.438',-9.37
'0:08.441',-8.09
'0:08.445',-6.48
'0:08.449',-4.86
'0:08.453',-3.51
'0:08.457',-2.48
'0:08.461',-1.58
'0:08.465',-0.64
'0:08.469',0.3
'0:08.473',1.1
'0:08.477',1.48
'0:08.480',1.49
'0:08.484',1.14
'0:08.488',0.77
'0:08.492',0.71
'0:08.496',0.89
'0:08.500',1.47
'0:08.504',2.3
'0:08.508',3.16
'0:08.512',3.75
'0:08.516',4.16
'0:08.520',4.6
'0:08.523',4.99
'0:08.527',5.46
'0:08.531',5.77
'0:08.535',5.73
'0:08.539',5.63
'0:08.543',5.82
'0:08.547',6.14
'0:08.551',6.24
'0:08.555',6.31
'0:08.559',6.17
'0:08.563',6.17
'0:08.566',6.1
'0:08.570',5.81
'0:08.574',5.04
'0:08.578',4.14
'0:08.582',3.9
'0:08.586',3.9
'0:08.590',2.59
'0:08.594',1.22
'0:08.598',0.39
'0:08.602',-0.44
'0:08.605',-1.25
'0:08.609',-1.68
'0:08.613',-2.06
'0:08.617',-2.73
'0:08.621',-3.02
'0:08.625',-2.57
'0:08.629',-1.84
'0:08.633',-1.17
'0:08.637',-0.95
'0:08.641',-1.22
'0:08.645',-1.51
'0:08.648',-1.42
'0:08.652',-1.03
'0:08.656',-0.57
'0:08.660',-0.41
'0:08.664',-0.41
'0:08.668',-0.39
'0:08.672',-0.53
'0:08.676',-0.97
'0:08.680',-1.55
'0:08.684',-1.63
'0:08.688',-1.26
'0:08.691',-1.17
'0:08.695',-1.41
'0:08.699',-1.91
'0:08.703',-2.33
'0:08.707',-2.53
'0:08.711',-2.76
'0:08.715',-3.27
'0:08.719',-3.81
'0:08.723',-4.25
'0:08.727',-4.55
'0:08.730',-4.39
'0:08.734',-3.82
'0:08.738',-3.23
'0:08.742',-2.95
'0:08.746',-2.94
'0:08.750',-2.92
'0:08.754',-3.09
'0:08.758',-3.61
'0:08.762',-4.17
'0:08.766',-4.35
'0:08.770',-3.89
'0:08.773',-2.57
'0:08.777',0.17
'0:08.781',4.34
'0:08.785',8.98
'0:08.789',12.97
'0:08.793',14.35
'0:08.797',11.77
'0:08.801',6.17
'0:08.805',-0.43
'0:08.809',-6.14
'0:08.813',-9.75
'0:08.816',-11.02
'0:08.820',-10.77
'0:08.824',-9.96
'0:08.828',-8.72
'0:08.832',-7.15
'0:08.836',-5.68
'0:08.840',-4.44
'0:08.844',-3.24
'0:08.848',-2.18
'0:08.852',-1.43
'0:08.855',-0.93
'0:08.859',-0.57
'0:08.863',-0.3
'0:08.867',-0.31
'0:08.871',-0.19
'0:08.875',0.17
'0:08.879',0.63
'0:08.883',0.94
'0:08.887',1.2
'0:08.891',1.57
'0:08.895',2.11
'0:08.898',2.79
'0:08.902',3.43
'0:08.906',3.97
'0:08.910',4.38
'0:08.914',4.7
'0:08.918',5.13
'0:08.922',5.55
'0:08.926',5.94
'0:08.930',6.28
'0:08.934',6.39
'0:08.938',6.24
'0:08.941',6.17
'0:08.945',6.05
'0:08.949',5.72
'0:08.953',5.14
'0:08.957',4.43
'0:08.961',3.62
'0:08.965',2.8
'0:08.969',2
'0:08.973',1.25
'0:08.977',0.5
'0:08.980',-0.24
'0:08.984',-0.91
'0:08.988',-1.38
'0:08.992',-1.72
'0:08.996',-1.92
'0:09.000',-2.06
'0:09.004',-2.19
'0:09.008',-2.36
'0:09.012',-2.41
'0:09.016',-2.29
'0:09.020',-2.07
'0:09.023',-1.81
'0:09.027',-1.63
'0:09.031',-1.53
'0:09.035',-1.44
'0:09.039',-1.3
'0:09.043',-0.98
'0:09.047',-0.62
'0:09.051',-0.48
'0:09.055',-0.48
'0:09.059',-0.57
'0:09.063',-0.59
'0:09.066',-0.68
'0:09.070',-0.89
'0:09.074',-1.04
'0:09.078',-1.31
'0:09.082',-1.69
'0:09.086',-2.09
'0:09.090',-2.57
'0:09.094',-2.96
'0:09.098',-3.31
'0:09.102',-3.6
'0:09.105',-3.85
'0:09.109',-4.06
'0:09.113',-4.17
'0:09.117',-4.22
'0:09.121',-4.07
'0:09.125',-3.87
'0:09.129',-3.64
'0:09.133',-3.51
'0:09.137',-3.55
'0:09.141',-3.65
'0:09.145',-3.89
'0:09.148',-4.11
'0:09.152',-4.07
'0:09.156',-3.66
'0:09.160',-2.63
'0:09.164',-0.58
'0:09.168',2.6
'0:09.172',6.44
'0:09.176',10.25
'0:09.180',12.25
'0:09.184',11.28
'0:09.188',7.89
'0:09.191',2.93
'0:09.195',-2.63
'0:09.199',-7.32
'0:09.203',-10.06
'0:09.207',-10.93
'0:09.211',-10.6
'0:09.215',-9.62
'0:09.219',-8.22
'0:09.223',-6.66
'0:09.227',-5.24
'0:09.230',-3.99
'0:09.234',-2.97
'0:09.238',-2.16
'0:09.242',-1.68
'0:09.246',-1.32
'0:09.250',-1.05
'0:09.254',-0.83
'0:09.258',-0.5
'0:09.262',-0.22
'0:09.266',0.09
'0:09.270',0.43
'0:09.273',0.66
'0:09.277',1.04
'0:09.281',1.34
'0:09.285',1.63
'0:09.289',1.8
'0:09.293',2.09
'0:09.297',2.43
'0:09.301',2.98
'0:09.305',3.36
'0:09.309',3.75
'0:09.313',4.09
'0:09.316',4.43
'0:09.320',4.92
'0:09.324',5.3
'0:09.328',5.41
'0:09.332',5.27
'0:09.336',5.07
'0:09.340',4.69
'0:09.344',4.21
'0:09.348',3.48
'0:09.352',2.53
'0:09.355',1.82
'0:09.359',1.21
'0:09.363',0.6
'0:09.367',0.18
'0:09.371',-0.21
'0:09.375',-0.71
'0:09.379',-1.22
'0:09.383',-1.69
'0:09.387',-1.97
'0:09.391',-2.05
'0:09.395',-2
'0:09.398',-2
'0:09.402',-2.05
'0:09.406',-2.26
'0:09.410',-2.34
'0:09.414',-2.03
'0:09.418',-1.66
'0:09.422',-1.13
'0:09.426',-0.73
'0:09.430',-0.44
'0:09.434',-0.33
'0:09.438',-0.12
'0:09.441',0.19
'0:09.445',0.18
'0:09.449',0.03
'0:09.453',-0.33
'0:09.457',-0.77
'0:09.461',-1.16
'0:09.465',-1.57
'0:09.469',-2.01
'0:09.473',-2.31
'0:09.477',-2.79
'0:09.480',-3.41
'0:09.484',-4.07
'0:09.488',-4.75
'0:09.492',-4.88
'0:09.496',-4.69
'0:09.500',-4.1
'0:09.504',-3.34
'0:09.508',-2.9
'0:09.512',-2.71
'0:09.516',-2.61
'0:09.520',-2.65
'0:09.523',-2.75
'0:09.527',-2.92
'0:09.531',-2.89
'0:09.535',-2.69
'0:09.539',-2.26
'0:09.543',-1.43
'0:09.547',0.21
'0:09.551',2.89
'0:09.555',6.4
'0:09.559',10.07
'0:09.563',12.65
'0:09.566',13.01
'0:09.570',10.91
'0:09.574',6.77
'0:09.578',1.21
'0:09.582',-4.24
'0:09.586',-7.8
'0:09.590',-9.3
'0:09.594',-9.24
'0:09.598',-8.37
'0:09.602',-7.35
'0:09.605',-6.29
'0:09.609',-5.1
'0:09.613',-3.67
'0:09.617',-2.34
'0:09.621',-1.31
'0:09.625',-0.38
'0:09.629',0.42
'0:09.633',1.04
'0:09.637',1.32
'0:09.641',1.54
'0:09.645',1.87
'0:09.648',2.22
'0:09.652',2.43
'0:09.656',2.7
'0:09.660',2.9
'0:09.664',2.98
'0:09.668',3.07
'0:09.672',3.43
'0:09.676',3.89
'0:09.680',4.36
'0:09.684',4.72
'0:09.688',5.06
'0:09.691',5.49
'0:09.695',5.93
'0:09.699',6.28
'0:09.703',6.62
'0:09.707',6.92
'0:09.711',6.94
'0:09.715',6.92
'0:09.719',6.85
'0:09.723',6.59
'0:09.727',5.99
'0:09.730',5.21
'0:09.734',4.5
'0:09.738',3.73
'0:09.742',2.92
'0:09.746',2.31
'0:09.750',1.72
'0:09.754',1.11
'0:09.758',0.5
'0:09.762',-0.06
'0:09.766',-0.59
'0:09.770',-1.05
'0:09.773',-1.47
'0:09.777',-1.65
'0:09.781',-1.74
'0:09.785',-1.85
'0:09.789',-1.69
'0:09.793',-1.21
'0:09.797',-0.6
'0:09.801',-0.24
'0:09.805',-0.1
'0:09.809',0.03
'0:09.813',0.22
'0:09.816',0.42
'0:09.820',0.44
'0:09.824',0.35
'0:09.828',0.32
'0:09.832',0.23
'0:09.836',-0.02
'0:09.840',-0.26
'0:09.844',-0.56
'0:09.848',-0.79
'0:09.852',-1.06
'0:09.855',-1.46
'0:09.859',-1.96
'0:09.863',-2.58
'0:09.867',-3.06
'0:09.871',-3.28
'0:09.875',-3.5
'0:09.879',-3.93
'0:09.883',-4.21
'0:09.887',-4.21
'0:09.891',-4.19
'0:09.895',-4.05
'0:09.898',-3.66
'0:09.902',-2.99
'0:09.906',-2.32
'0:09.910',-2.07
'0:09.914',-2.33
'0:09.918',-2.82
'0:09.922',-3.18
'0:09.926',-3.31
'0:09.930',-2.89
'0:09.934',-1.16
'0:09.938',2.23
'0:09.941',6.63
'0:09.945',11.09
'0:09.949',14.44
'0:09.953',14.76
'0:09.957',11.4
'0:09.961',5.48
'0:09.965',-0.96
'0:09.969',-6.36
'0:09.973',-9.4
'0:09.977',-10.24
'0:09.980',-9.83
'0:09.984',-8.61
'0:09.988',-7.31
'0:09.992',-6
'0:09.996',-4.3
'0:10.000',-2.62
'0:10.004',-1.48
'0:10.008',-0.79
'0:10.012',-0.4
'0:10.016',-0.12
'0:10.020',0.1
'0:10.023',0.22
'0:10.027',0.23
'0:10.031',0.27
'0:10.035',0.45
'0:10.039',0.94
'0:10.043',1.6
'0:10.047',2.02
'0:10.051',2.31
'0:10.055',2.63
'0:10.059',3.1
'0:10.063',3.59
'0:10.066',3.99
'0:10.070',4.45
'0:10.074',5.07
'0:10.078',5.83
'0:10.082',6.52
'0:10.086',6.68
'0:10.090',6.7
'0:10.094',6.88
'0:10.098',6.88
'0:10.102',6.58
'0:10.105',6.15
'0:10.109',5.52
'0:10.113',4.9
'0:10.117',4.16
'0:10.121',3.22
'0:10.125',2.34
'0:10.129',1.62
'0:10.133',1.01
'0:10.137',0.29
'0:10.141',-0.19
'0:10.145',-0.39
'0:10.148',-0.94
'0:10.152',-1.55
'0:10.156',-2.1
'0:10.160',-2.34
'0:10.164',-2.31
'0:10.168',-2.29
'0:10.172',-2.38
'0:10.176',-2.34
'0:10.180',-2.21
'0:10.184',-2.19
'0:10.188',-2.26
'0:10.191',-2.15
'0:10.195',-1.88
'0:10.199',-1.64
'0:10.203',-1.25
'0:10.207',-0.74
'0:10.211',-0.23
'0:10.215',0.01
'0:10.219',0.03
'0:10.223',-0.11
'0:10.227',-0.43
'0:10.230',-1.31
'0:10.234',-2.24
'0:10.238',-2.93
'0:10.242',-3.62
'0:10.246',-3.75
'0:10.250',-3.33
'0:10.254',-3.16
'0:10.258',-3.5
'0:10.262',-3.86
'0:10.266',-4.07
'0:10.270',-3.92
'0:10.273',-3.87
'0:10.277',-4.1
'0:10.281',-4.38
'0:10.285',-4.41
'0:10.289',-4.27
'0:10.293',-4.1
'0:10.297',-3.95
'0:10.301',-3.77
'0:10.305',-3.74
'0:10.309',-4.03
'0:10.313',-4.43
'0:10.316',-4.46
'0:10.320',-3.8
'0:10.324',-2.28
'0:10.328',0.42
'0:10.332',4.23
'0:10.336',8.58
'0:10.340',12.62
'0:10.344',14.53
'0:10.348',12.72
'0:10.352',7.76
'0:10.355',1.49
'0:10.359',-4.5
'0:10.363',-8.82
'0:10.367',-10.91
'0:10.371',-11
'0:10.375',-9.89
'0:10.379',-8.32
'0:10.383',-6.78
'0:10.387',-5.5
'0:10.391',-4.34
'0:10.395',-3.33
'0:10.398',-2.48
'0:10.402',-1.88
'0:10.406',-1.4
'0:10.410',-0.96
'0:10.414',-0.82
'0:10.418',-0.92
'0:10.422',-0.74
'0:10.426',-0.2
'0:10.430',0.46
'0:10.434',1.03
'0:10.438',1.44
'0:10.441',1.7
'0:10.445',1.92
'0:10.449',2.09
'0:10.453',2.41
'0:10.457',3
'0:10.461',3.69
'0:10.465',4.33
'0:10.469',4.83
'0:10.473',5.33
'0:10.477',5.65
'0:10.480',5.8
'0:10.484',5.87
'0:10.488',5.85
'0:10.492',5.87
'0:10.496',5.87
'0:10.500',5.71
'0:10.504',5.33
'0:10.508',4.55
'0:10.512',3.7
'0:10.516',2.83
'0:10.520',2.02
'0:10.523',1.31
'0:10.527',0.65
'0:10.531',0
'0:10.535',-0.64
'0:10.539',-1.17
'0:10.543',-1.65
'0:10.547',-1.99
'0:10.551',-2.28
'0:10.555',-2.5
'0:10.559',-2.66
'0:10.563',-2.67
'0:10.566',-2.56
'0:10.570',-2.41
'0:10.574',-2.31
'0:10.578',-2.29
'0:10.582',-2.12
'0:10.586',-1.89
'0:10.590',-1.65
'0:10.594',-1.54
'0:10.598',-1.49
'0:10.602',-1.43
'0:10.605',-1.27
'0:10.609',-1.14
'0:10.613',-1.12
'0:10.617',-1.12
'0:10.621',-1.27
'0:10.625',-1.46
'0:10.629',-1.77
'0:10.633',-2.2
'0:10.637',-2.64
'0:10.641',-3.11
'0:10.645',-3.62
'0:10.648',-4.17
'0:10.652',-4.57
'0:10.656',-4.6
'0:10.660',-4.51
'0:10.664',-4.46
'0:10.668',-4.32
'0:10.672',-4.14
'0:10.676',-3.95
'0:10.680',-3.78
'0:10.684',-3.67
'0:10.688',-3.65
'0:10.691',-3.7
'0:10.695',-4.05
'0:10.699',-4.4
'0:10.703',-4.39
'0:10.707',-3.79
'0:10.711',-2.68
'0:10.715',-0.49
'0:10.719',2.68
'0:10.723',6.42
'0:10.727',9.86
'0:10.730',11.45
'0:10.734',10.32
'0:10.738',7
'0:10.742',2.11
'0:10.746',-3.25
'0:10.750',-7.47
'0:10.754',-9.67
'0:10.758',-10.21
'0:10.762',-9.75
'0:10.766',-8.6
'0:10.770',-7.19
'0:10.773',-5.92
'0:10.777',-4.63
'0:10.781',-3.32
'0:10.785',-2.05
'0:10.789',-1.18
'0:10.793',-0.76
'0:10.797',-0.4
'0:10.801',0.05
'0:10.805',0.37
'0:10.809',0.58
'0:10.813',0.92
'0:10.816',1.19
'0:10.820',1.36
'0:10.824',1.49
'0:10.828',1.72
'0:10.832',1.94
'0:10.836',2.19
'0:10.840',2.5
'0:10.844',2.75
'0:10.848',3.09
'0:10.852',3.61
'0:10.855',4.06
'0:10.859',4.48
'0:10.863',4.7
'0:10.867',5.09
'0:10.871',5.38
'0:10.875',5.6
'0:10.879',5.7
'0:10.883',5.7
'0:10.887',5.56
'0:10.891',5.15
'0:10.895',4.54
'0:10.898',4.01
'0:10.902',3.39
'0:10.906',2.7
'0:10.910',2.02
'0:10.914',1.38
'0:10.918',0.74
'0:10.922',0.11
'0:10.926',-0.43
'0:10.930',-0.94
'0:10.934',-1.48
'0:10.938',-1.66
'0:10.941',-1.84
'0:10.945',-1.99
'0:10.949',-2.01
'0:10.953',-2.11
'0:10.957',-2.05
'0:10.961',-1.93
'0:10.965',-1.92
'0:10.969',-1.95
'0:10.973',-1.78
'0:10.977',-1.47
'0:10.980',-1.22
'0:10.984',-0.98
'0:10.988',-0.78
'0:10.992',-0.63
'0:10.996',-0.6
'0:11.000',-0.53
'0:11.004',-0.55
'0:11.008',-0.89
'0:11.012',-1.33
'0:11.016',-1.69
'0:11.020',-1.94
'0:11.023',-2.23
'0:11.027',-2.62
'0:11.031',-2.99
'0:11.035',-3.14
'0:11.039',-3.07
'0:11.043',-3.03
'0:11.047',-3.21
'0:11.051',-3.43
'0:11.055',-3.39
'0:11.059',-3.05
'0:11.063',-2.73
'0:11.066',-2.59
'0:11.070',-2.55
'0:11.074',-2.58
'0:11.078',-2.76
'0:11.082',-3.11
'0:11.086',-3.51
'0:11.090',-3.73
'0:11.094',-2.92
'0:11.098',-0.85
'0:11.102',2.37
'0:11.105',6.08
'0:11.109',9.92
'0:11.113',13.11
'0:11.117',14.28
'0:11.121',12.46
'0:11.125',8.05
'0:11.129',2.37
'0:11.133',-3.06
'0:11.137',-6.79
'0:11.141',-8.24
'0:11.145',-8.04
'0:11.148',-7.23
'0:11.152',-5.94
'0:11.156',-4.13
'0:11.160',-2.25
'0:11.164',-0.78
'0:11.168',0.4
'0:11.172',1.2
'0:11.176',1.65
'0:11.180',2.02
'0:11.184',2
'0:11.188',1.88
'0:11.191',2.26
'0:11.195',2.87
'0:11.199',3.16
'0:11.203',3.24
'0:11.207',3.48
'0:11.211',3.93
'0:11.215',4.59
'0:11.219',5.14
'0:11.223',5.31
'0:11.227',5.77
'0:11.230',5.84
'0:11.234',5.99
'0:11.238',6.12
'0:11.242',6.47
'0:11.246',6.82
'0:11.250',6.97
'0:11.254',7.11
'0:11.258',7.33
'0:11.262',7.48
'0:11.266',7.34
'0:11.270',7
'0:11.273',6.54
'0:11.277',6.03
'0:11.281',5.42
'0:11.285',4.77
'0:11.289',4.1
'0:11.293',3.26
'0:11.297',2.36
'0:11.301',1.7
'0:11.305',1.13
'0:11.309',0.45
'0:11.313',-0.42
'0:11.316',-1.16
'0:11.320',-1.53
'0:11.324',-1.7
'0:11.328',-1.75
'0:11.332',-1.58
'0:11.336',-1.29
'0:11.340',-1.02
'0:11.344',-0.97
'0:11.348',-1.01
'0:11.352',-1.07
'0:11.355',-0.97
'0:11.359',-0.73
'0:11.363',-0.47
'0:11.367',-0.43
'0:11.371',-0.5
'0:11.375',-0.56
'0:11.379',-0.42
'0:11.383',-0.03
'0:11.387',-0.02
'0:11.391',-0.35
'0:11.395',-0.62
'0:11.398',-0.9
'0:11.402',-1.23
'0:11.406',-1.69
'0:11.410',-2.11
'0:11.414',-2.5
'0:11.418',-2.91
'0:11.422',-3.04
'0:11.426',-3.05
'0:11.430',-3.19
'0:11.434',-3.38
'0:11.438',-3.53
'0:11.441',-3.62
'0:11.445',-3.74
'0:11.449',-3.61
'0:11.453',-3.46
'0:11.457',-3.3
'0:11.461',-3.1
'0:11.465',-3.18
'0:11.469',-3.43
'0:11.473',-3.53
'0:11.477',-3.34
'0:11.480',-2.81
'0:11.484',-1.35
'0:11.488',1.5
'0:11.492',5.5
'0:11.496',10.01
'0:11.500',13.9
'0:11.504',14.78
'0:11.508',11.86
'0:11.512',6.44
'0:11.516',0.11
'0:11.520',-5.43
'0:11.523',-8.89
'0:11.527',-10.04
'0:11.531',-9.56
'0:11.535',-8.35
'0:11.539',-6.9
'0:11.543',-5.36
'0:11.547',-3.97
'0:11.551',-2.96
'0:11.555',-2.11
'0:11.559',-1.38
'0:11.563',-0.93
'0:11.566',-0.49
'0:11.570',-0.27
'0:11.574',-0.12
'0:11.578',0.36
'0:11.582',1.01
'0:11.586',1.58
'0:11.590',1.9
'0:11.594',2.07
'0:11.598',2.27
'0:11.602',2.48
'0:11.605',2.72
'0:11.609',3.1
'0:11.613',3.62
'0:11.617',4.17
'0:11.621',4.65
'0:11.625',5.09
'0:11.629',5.55
'0:11.633',6.01
'0:11.637',6.3
'0:11.641',6.41
'0:11.645',6.45
'0:11.648',6.36
'0:11.652',6.03
'0:11.656',5.57
'0:11.660',5.08
'0:11.664',4.43
'0:11.668',3.77
'0:11.672',3.21
'0:11.676',2.65
'0:11.680',2
'0:11.684',1.23
'0:11.688',0.46
'0:11.691',-0.25
'0:11.695',-0.86
'0:11.699',-1.44
'0:11.703',-1.87
'0:11.707',-2.14
'0:11.711',-2.36
'0:11.715',-2.59
'0:11.719',-2.82
'0:11.723',-2.85
'0:11.727',-2.86
'0:11.730',-2.76
'0:11.734',-2.63
'0:11.738',-2.51
'0:11.742',-2.31
'0:11.746',-2.02
'0:11.750',-1.75
'0:11.754',-1.49
'0:11.758',-1.29
'0:11.762',-1.23
'0:11.766',-1.17
'0:11.770',-1.04
'0:11.773',-0.9
'0:11.777',-0.92
'0:11.781',-1.09
'0:11.785',-1.28
'0:11.789',-1.54
'0:11.793',-1.82
'0:11.797',-2.16
'0:11.801',-2.6
'0:11.805',-3.07
'0:11.809',-3.54
'0:11.813',-4.06
'0:11.816',-4.38
'0:11.820',-4.48
'0:11.824',-4.48
'0:11.828',-4.48
'0:11.832',-4.48
'0:11.836',-4.48
'0:11.840',-4.38
'0:11.844',-4.19
'0:11.848',-4
'0:11.852',-3.75
'0:11.855',-3.68
'0:11.859',-3.94
'0:11.863',-4.4
'0:11.867',-4.57
'0:11.871',-4.09
'0:11.875',-2.88
'0:11.879',-0.54
'0:11.883',2.95
'0:11.887',7
'0:11.891',10.92
'0:11.895',13.17
'0:11.898',12.01
'0:11.902',7.97
'0:11.906',2.51
'0:11.910',-3.1
'0:11.914',-7.5
'0:11.918',-10.02
'0:11.922',-10.77
'0:11.926',-10.25
'0:11.930',-8.94
'0:11.934',-7.38
'0:11.938',-5.93
'0:11.941',-4.53
'0:11.945',-3.33
'0:11.949',-2.33
'0:11.953',-1.47
'0:11.957',-0.88
'0:11.961',-0.52
'0:11.965',-0.21
'0:11.969',0.16
'0:11.973',0.45
'0:11.977',0.68
'0:11.980',0.99
'0:11.984',1.36
'0:11.988',1.64
'0:11.992',1.92
'0:11.996',2.19
'0:12.000',2.44
'0:12.004',2.73
'0:12.008',3.14
'0:12.012',3.58
'0:12.016',3.94
'0:12.020',4.38
'0:12.023',4.77
'0:12.027',5.11
'0:12.031',5.45
'0:12.035',5.63
'0:12.039',5.68
'0:12.043',5.76
'0:12.047',5.7
'0:12.051',5.42
'0:12.055',4.91
'0:12.059',4.31
'0:12.063',3.69
'0:12.066',2.87
'0:12.070',2.12
'0:12.074',1.45
'0:12.078',0.93
'0:12.082',0.36
'0:12.086',-0.29
'0:12.090',-1
'0:12.094',-1.69
'0:12.098',-2.23
'0:12.102',-2.48
'0:12.105',-2.7
'0:12.109',-2.83
'0:12.113',-2.81
'0:12.117',-2.7
'0:12.121',-2.58
'0:12.125',-2.41
'0:12.129',-2.19
'0:12.133',-2.33
'0:12.137',-2.55
'0:12.141',-2.56
'0:12.145',-2.25
'0:12.148',-1.85
'0:12.152',-1.78
'0:12.156',-1.75
'0:12.160',-1.68
'0:12.164',-1.58
'0:12.168',-1.46
'0:12.172',-1.55
'0:12.176',-1.79
'0:12.180',-2.13
'0:12.184',-2.54
'0:12.188',-3.05
'0:12.191',-3.55
'0:12.195',-3.96
'0:12.199',-4.33
'0:12.203',-4.48
'0:12.207',-4.4
'0:12.211',-4.35
'0:12.215',-4.33
'0:12.219',-4.36
'0:12.223',-4.39
'0:12.227',-4.32
'0:12.230',-4.12
'0:12.234',-3.78
'0:12.238',-3.54
'0:12.242',-3.47
'0:12.246',-3.46
'0:12.250',-3.74
'0:12.254',-3.87
'0:12.258',-3.53
'0:12.262',-2.73
'0:12.266',-1.13
'0:12.270',1.65
'0:12.273',5.27
'0:12.277',8.88
'0:12.281',11.3
'0:12.285',11.47
'0:12.289',9.32
'0:12.293',5.07
'0:12.297',-0.33
'0:12.301',-5.2
'0:12.305',-8.32
'0:12.309',-9.72
'0:12.313',-9.75
'0:12.316',-8.89
'0:12.320',-7.68
'0:12.324',-6.31
'0:12.328',-4.82
'0:12.332',-3.41
'0:12.336',-2.24
'0:12.340',-1.31
'0:12.344',-0.55
'0:12.348',0.02
'0:12.352',0.51
'0:12.355',0.93
'0:12.359',1.22
'0:12.363',1.44
'0:12.367',1.66
'0:12.371',1.83
'0:12.375',2.02
'0:12.379',2.22
'0:12.383',2.46
'0:12.387',2.81
'0:12.391',3.1
'0:12.395',3.34
'0:12.398',3.61
'0:12.402',4.04
'0:12.406',4.54
'0:12.410',5.04
'0:12.414',5.57
'0:12.418',6.02
'0:12.422',6.22
'0:12.426',6.28
'0:12.430',6.3
'0:12.434',6.07
'0:12.438',5.8
'0:12.441',5.73
'0:12.445',5.68
'0:12.449',5.38
'0:12.453',4.75
'0:12.457',4.03
'0:12.461',3.31
'0:12.465',2.6
'0:12.469',2.06
'0:12.473',1.59
'0:12.477',1.13
'0:12.480',0.64
'0:12.484',0.2
'0:12.488',-0.18
'0:12.492',-0.56
'0:12.496',-0.79
'0:12.500',-0.85
'0:12.504',-0.85
'0:12.508',-0.73
'0:12.512',-0.47
'0:12.516',-0.24
'0:12.520',-0.16
'0:12.523',-0.14
'0:12.527',0
'0:12.531',0.2
'0:12.535',0.46
'0:12.539',0.54
'0:12.543',0.54
'0:12.547',0.58
'0:12.551',0.61
'0:12.555',0.49
'0:12.559',0.24
'0:12.563',0.01
'0:12.566',-0.24
'0:12.570',-0.58
'0:12.574',-1.01
'0:12.578',-1.45
'0:12.582',-1.8
'0:12.586',-2.16
'0:12.590',-2.55
'0:12.594',-2.8
'0:12.598',-2.99
'0:12.602',-3.16
'0:12.605',-3.19
'0:12.609',-3.22
'0:12.613',-3.24
'0:12.617',-3.17
'0:12.621',-2.97
'0:12.625',-2.8
'0:12.629',-2.61
'0:12.633',-2.6
'0:12.637',-2.97
'0:12.641',-3.27
'0:12.645',-3.15
'0:12.648',-2.45
'0:12.652',-0.84
'0:12.656',1.94
'0:12.660',5.75
'0:12.664',9.92
'0:12.668',13.37
'0:12.672',14.11
'0:12.676',11.23
'0:12.680',5.89
'0:12.684',-0.1
'0:12.688',-5.27
'0:12.691',-8.54
'0:12.695',-9.9
'0:12.699',-9.59
'0:12.703',-8.17
'0:12.707',-6.34
'0:12.711',-4.76
'0:12.715',-3.53
'0:12.719',-2.57
'0:12.723',-1.91
'0:12.727',-1.43
'0:12.730',-0.94
'0:12.734',-0.54
'0:12.738',-0.22
'0:12.742',0.23
'0:12.746',0.65
'0:12.750',1.17
'0:12.754',1.72
'0:12.758',2.1
'0:12.762',2.32
'0:12.766',2.55
'0:12.770',2.87
'0:12.773',3.26
'0:12.777',3.55
'0:12.781',3.85
'0:12.785',4.19
'0:12.789',4.68
'0:12.793',5.21
'0:12.797',5.55
'0:12.801',5.78
'0:12.805',6.18
'0:12.809',6.7
'0:12.813',6.97
'0:12.816',6.92
'0:12.820',6.78
'0:12.824',6.48
'0:12.828',6.2
'0:12.832',5.81
'0:12.836',5.14
'0:12.840',4.42
'0:12.844',3.44
'0:12.848',2.35
'0:12.852',1.32
'0:12.855',0.5
'0:12.859',0.11
'0:12.863',0.07
'0:12.867',0.07
'0:12.871',-0.11
'0:12.875',-0.36
'0:12.879',-0.62
'0:12.883',-0.96
'0:12.887',-1.25
'0:12.891',-1.72
'0:12.895',-1.99
'0:12.898',-2.05
'0:12.902',-2
'0:12.906',-1.73
'0:12.910',-1.41
'0:12.914',-1.34
'0:12.918',-1.46
'0:12.922',-1.23
'0:12.926',-0.83
'0:12.930',-0.73
'0:12.934',-0.66
'0:12.938',-0.39
'0:12.941',-0.26
'0:12.945',-0.48
'0:12.949',-0.89
'0:12.953',-1.25
'0:12.957',-1.38
'0:12.961',-1.48
'0:12.965',-1.82
'0:12.969',-2.37
'0:12.973',-2.96
'0:12.977',-3.54
'0:12.980',-4.09
'0:12.984',-4.43
'0:12.988',-4.5
'0:12.992',-4.41
'0:12.996',-4.31
'0:13.000',-4.28
'0:13.004',-4.19
'0:13.008',-4.02
'0:13.012',-3.87
'0:13.016',-3.73
'0:13.020',-3.63
'0:13.023',-3.69
'0:13.027',-4.06
'0:13.031',-4.34
'0:13.035',-4.22
'0:13.039',-3.51
'0:13.043',-1.86
'0:13.047',1.1
'0:13.051',5.06
'0:13.055',9.42
'0:13.059',13.31
'0:13.063',14.76
'0:13.066',12.42
'0:13.070',7.11
'0:13.074',0.71
'0:13.078',-5.09
'0:13.082',-8.98
'0:13.086',-10.67
'0:13.090',-10.67
'0:13.094',-9.7
'0:13.098',-8.3
'0:13.102',-6.83
'0:13.105',-5.45
'0:13.109',-4.29
'0:13.113',-3.38
'0:13.117',-2.72
'0:13.121',-2.23
'0:13.125',-1.81
'0:13.129',-1.39
'0:13.133',-0.93
'0:13.137',-0.53
'0:13.141',-0.27
'0:13.145',-0.02
'0:13.148',0.4
'0:13.152',0.84
'0:13.156',1.15
'0:13.160',1.43
'0:13.164',1.79
'0:13.168',2.12
'0:13.172',2.48
'0:13.176',2.9
'0:13.180',3.5
'0:13.184',4.2
'0:13.188',4.77
'0:13.191',5.22
'0:13.195',5.57
'0:13.199',5.85
'0:13.203',5.99
'0:13.207',6.09
'0:13.211',6.12
'0:13.215',5.91
'0:13.219',5.45
'0:13.223',4.91
'0:13.227',4.23
'0:13.230',3.52
'0:13.234',2.97
'0:13.238',2.37
'0:13.242',1.7
'0:13.246',0.99
'0:13.250',0.36
'0:13.254',-0.24
'0:13.258',-0.74
'0:13.262',-1.2
'0:13.266',-1.57
'0:13.270',-1.89
'0:13.273',-2.09
'0:13.277',-2.21
'0:13.281',-2.28
'0:13.285',-2.31
'0:13.289',-2.24
'0:13.293',-2.07
'0:13.297',-1.93
'0:13.301',-1.87
'0:13.305',-1.82
'0:13.309',-1.74
'0:13.313',-1.61
'0:13.316',-1.35
'0:13.320',-1.01
'0:13.324',-0.83
'0:13.328',-0.61
'0:13.332',-0.47
'0:13.336',-0.54
'0:13.340',-0.91
'0:13.344',-1.21
'0:13.348',-1.32
'0:13.352',-1.44
'0:13.355',-1.79
'0:13.359',-2.23
'0:13.363',-2.5
'0:13.367',-2.93
'0:13.371',-3.41
'0:13.375',-3.68
'0:13.379',-3.78
'0:13.383',-3.87
'0:13.387',-3.87
'0:13.391',-3.92
'0:13.395',-3.97
'0:13.398',-3.88
'0:13.402',-3.8
'0:13.406',-3.8
'0:13.410',-3.71
'0:13.414',-3.54
'0:13.418',-3.62
'0:13.422',-3.96
'0:13.426',-4.07
'0:13.430',-3.54
'0:13.434',-2.36
'0:13.438',-0.11
'0:13.441',3.12
'0:13.445',6.97
'0:13.449',10.66
'0:13.453',12.52
'0:13.457',11.09
'0:13.461',7.24
'0:13.465',2.02
'0:13.469',-3.38
'0:13.473',-7.6
'0:13.477',-9.81
'0:13.480',-10.5
'0:13.484',-10.19
'0:13.488',-9.13
'0:13.492',-7.7
'0:13.496',-6.28
'0:13.500',-4.92
'0:13.504',-3.67
'0:13.508',-2.79
'0:13.512',-2.09
'0:13.516',-1.56
'0:13.520',-1.13
'0:13.523',-0.71
'0:13.527',-0.47
'0:13.531',0
'0:13.535',0.45
'0:13.539',0.61
'0:13.543',0.71
'0:13.547',0.95
'0:13.551',1.41
'0:13.555',1.78
'0:13.559',1.86
'0:13.563',2.14
'0:13.566',2.75
'0:13.570',3.5
'0:13.574',4.15
'0:13.578',4.5
'0:13.582',4.84
'0:13.586',5.18
'0:13.590',5.34
'0:13.594',5.41
'0:13.598',5.5
'0:13.602',5.67
'0:13.605',5.73
'0:13.609',5.59
'0:13.613',5.13
'0:13.617',4.55
'0:13.621',4.01
'0:13.625',3.4
'0:13.629',2.79
'0:13.633',2.06
'0:13.637',1.33
'0:13.641',0.64
'0:13.645',-0.03
'0:13.648',-0.59
'0:13.652',-0.99
'0:13.656',-1.43
'0:13.660',-1.7
'0:13.664',-1.95
'0:13.668',-2.22
'0:13.672',-2.53
'0:13.676',-2.58
'0:13.680',-2.43
'0:13.684',-2.27
'0:13.688',-2
'0:13.691',-1.68
'0:13.695',-1.34
'0:13.699',-1.12
'0:13.703',-0.9
'0:13.707',-0.83
'0:13.711',-0.82
'0:13.715',-0.84
'0:13.719',-0.97
'0:13.723',-1.08
'0:13.727',-1.17
'0:13.730',-1.19
'0:13.734',-1.24
'0:13.738',-1.27
'0:13.742',-1.41
'0:13.746',-1.77
'0:13.750',-2.18
'0:13.754',-2.67
'0:13.758',-3.2
'0:13.762',-3.48
'0:13.766',-3.65
'0:13.770',-3.82
'0:13.773',-3.92
'0:13.777',-3.77
'0:13.781',-3.48
'0:13.785',-3.34
'0:13.789',-3.34
'0:13.793',-3.26
'0:13.797',-3.09
'0:13.801',-2.85
'0:13.805',-2.78
'0:13.809',-3.04
'0:13.813',-3.14
'0:13.816',-2.81
'0:13.820',-1.86
'0:13.824',-0.15
'0:13.828',2.51
'0:13.832',5.84
'0:13.836',9.37
'0:13.840',12.19
'0:13.844',12.83
'0:13.848',10.87
'0:13.852',6.5
'0:13.855',0.87
'0:13.859',-4.34
'0:13.863',-7.84
'0:13.867',-9.49
'0:13.871',-9.66
'0:13.875',-8.93
'0:13.879',-7.67
'0:13.883',-6.24
'0:13.887',-4.92
'0:13.891',-3.63
'0:13.895',-2.43
'0:13.898',-1.41
'0:13.902',-0.64
'0:13.906',0
'0:13.910',0.44
'0:13.914',0.68
'0:13.918',0.94
'0:13.922',1.25
'0:13.926',1.6
'0:13.930',1.95
'0:13.934',2.22
'0:13.938',2.49
'0:13.941',2.73
'0:13.945',2.92
'0:13.949',3.02
'0:13.953',3.07
'0:13.957',3.27
'0:13.961',3.72
'0:13.965',4.23
'0:13.969',4.86
'0:13.973',5.45
'0:13.977',5.93
'0:13.980',6.36
'0:13.984',6.65
'0:13.988',6.68
'0:13.992',6.59
'0:13.996',6.49
'0:14.000',6.25
'0:14.004',5.71
'0:14.008',5.08
'0:14.012',4.5
'0:14.016',3.79
'0:14.020',2.94
'0:14.023',2.14
'0:14.027',1.52
'0:14.031',1.03
'0:14.035',0.57
'0:14.039',0.14
'0:14.043',-0.3
'0:14.047',-0.77
'0:14.051',-1.14
'0:14.055',-1.36
'0:14.059',-1.41
'0:14.063',-1.41
'0:14.066',-1.38
'0:14.070',-1.19
'0:14.074',-0.88
'0:14.078',-0.68
'0:14.082',-0.61
'0:14.086',-0.53
'0:14.090',-0.31
'0:14.094',-0.1
'0:14.098',0.05
'0:14.102',0.05
'0:14.105',0.08
'0:14.109',0.1
'0:14.113',0.13
'0:14.117',0.07
'0:14.121',-0.16
'0:14.125',-0.29
'0:14.129',-0.36
'0:14.133',-0.48
'0:14.137',-0.89
'0:14.141',-1.53
'0:14.145',-2.25
'0:14.148',-2.83
'0:14.152',-3.14
'0:14.156',-3.22
'0:14.160',-3.36
'0:14.164',-3.58
'0:14.168',-3.77
'0:14.172',-3.8
'0:14.176',-3.87
'0:14.180',-3.76
'0:14.184',-3.36
'0:14.188',-2.95
'0:14.191',-2.65
'0:14.195',-2.54
'0:14.199',-2.77
'0:14.203',-3.13
'0:14.207',-3.16
'0:14.211',-2.5
'0:14.215',-1.1
'0:14.219',1.32
'0:14.223',4.86
'0:14.227',8.94
'0:14.230',12.59
'0:14.234',13.74
'0:14.238',11.27
'0:14.242',6.3
'0:14.246',0.49
'0:14.250',-4.68
'0:14.254',-8.15
'0:14.258',-9.65
'0:14.262',-9.66
'0:14.266',-8.82
'0:14.270',-7.69
'0:14.273',-6.43
'0:14.277',-5.04
'0:14.281',-3.39
'0:14.285',-2.09
'0:14.289',-1.52
'0:14.293',-1.1
'0:14.297',-0.44
'0:14.301',0.14
'0:14.305',0.56
'0:14.309',0.73
'0:14.313',0.71
'0:14.316',0.87
'0:14.320',1.05
'0:14.324',1.43
'0:14.328',2.04
'0:14.332',2.53
'0:14.336',2.78
'0:14.340',3.06
'0:14.344',3.5
'0:14.348',3.92
'0:14.352',4.47
'0:14.355',5.18
'0:14.359',5.63
'0:14.363',5.85
'0:14.367',6.16
'0:14.371',6.57
'0:14.375',6.63
'0:14.379',6.27
'0:14.383',6.09
'0:14.387',5.95
'0:14.391',5.56
'0:14.395',5.12
'0:14.398',4.81
'0:14.402',4.11
'0:14.406',3.14
'0:14.410',2.26
'0:14.414',1.38
'0:14.418',0.37
'0:14.422',-0.67
'0:14.426',-1.2
'0:14.430',-1.4
'0:14.434',-1.65
'0:14.438',-2.1
'0:14.441',-2.46
'0:14.445',-2.6
'0:14.449',-2.51
'0:14.453',-2.55
'0:14.457',-2.84
'0:14.461',-3.12
'0:14.465',-3.19
'0:14.469',-2.71
'0:14.473',-1.91
'0:14.477',-1.4
'0:14.480',-1.36
'0:14.484',-1.5
'0:14.488',-1.51
'0:14.492',-1.22
'0:14.496',-0.8
'0:14.500',-0.46
'0:14.504',-0.22
'0:14.508',-0.14
'0:14.512',-0.12
'0:14.516',-0.3
'0:14.520',-0.64
'0:14.523',-1.02
'0:14.527',-1.43
'0:14.531',-1.94
'0:14.535',-2.49
'0:14.539',-2.97
'0:14.543',-3.38
'0:14.547',-3.74
'0:14.551',-3.96
'0:14.555',-4.09
'0:14.559',-4.19
'0:14.563',-4.19
'0:14.566',-4.16
'0:14.570',-4.08
'0:14.574',-4
'0:14.578',-3.85
'0:14.582',-3.77
'0:14.586',-3.72
'0:14.590',-3.79
'0:14.594',-4.09
'0:14.598',-4.31
'0:14.602',-4.04
'0:14.605',-3.12
'0:14.609',-1.32
'0:14.613',1.67
'0:14.617',5.71
'0:14.621',10.13
'0:14.625',13.95
'0:14.629',15.18
'0:14.633',12.61
'0:14.637',7.15
'0:14.641',0.56
'0:14.645',-5.51
'0:14.648',-9.53
'0:14.652',-11.23
'0:14.656',-11.19
'0:14.660',-10.2
'0:14.664',-8.74
'0:14.668',-7.16
'0:14.672',-5.65
'0:14.676',-4.35
'0:14.680',-3.33
'0:14.684',-2.63
'0:14.688',-2.1
'0:14.691',-1.6
'0:14.695',-1.15
'0:14.699',-0.71
'0:14.703',-0.25
'0:14.707',0.1
'0:14.711',0.46
'0:14.715',0.93
'0:14.719',1.29
'0:14.723',1.49
'0:14.727',1.7
'0:14.730',2.05
'0:14.734',2.5
'0:14.738',3.06
'0:14.742',3.68
'0:14.746',4.3
'0:14.750',4.77
'0:14.754',5.18
'0:14.758',5.7
'0:14.762',6.2
'0:14.766',6.58
'0:14.770',6.78
'0:14.773',6.76
'0:14.777',6.59
'0:14.781',6.34
'0:14.785',5.99
'0:14.789',5.4
'0:14.793',4.64
'0:14.797',3.91
'0:14.801',3.16
'0:14.805',2.48
'0:14.809',1.75
'0:14.813',1.03
'0:14.816',0.39
'0:14.820',-0.27
'0:14.824',-0.82
'0:14.828',-1.26
'0:14.832',-1.55
'0:14.836',-1.75
'0:14.840',-1.97
'0:14.844',-2.23
'0:14.848',-2.38
'0:14.852',-2.53
'0:14.855',-2.46
'0:14.859',-2.28
'0:14.863',-2.12
'0:14.867',-1.74
'0:14.871',-1.44
'0:14.875',-1.38
'0:14.879',-1.43
'0:14.883',-1.25
'0:14.887',-1.05
'0:14.891',-0.88
'0:14.895',-0.66
'0:14.898',-0.53
'0:14.902',-0.51
'0:14.906',-0.6
'0:14.910',-0.72
'0:14.914',-1.04
'0:14.918',-1.36
'0:14.922',-1.63
'0:14.926',-1.92
'0:14.930',-2.23
'0:14.934',-2.67
'0:14.938',-3.2
'0:14.941',-3.69
'0:14.945',-4.02
'0:14.949',-4.31
'0:14.953',-4.43
'0:14.957',-4.39
'0:14.961',-4.26
'0:14.965',-4.19
'0:14.969',-4.16
'0:14.973',-4.14
'0:14.977',-4.06
'0:14.980',-3.95
'0:14.984',-3.99
'0:14.988',-4.3
'0:14.992',-4.65
'0:14.996',-4.59
'0:15.000',-3.93
'0:15.004',-2.51
'0:15.008',-0.05
'0:15.012',3.31
'0:15.016',6.94
'0:15.020',10.11
'0:15.023',11
'0:15.027',9.11
'0:15.031',5.02
'0:15.035',-0.3
'0:15.039',-5.41
'0:15.043',-9.03
'0:15.047',-10.89
'0:15.051',-11.23
'0:15.055',-10.49
'0:15.059',-9.28
'0:15.063',-7.94
'0:15.066',-6.7
'0:15.070',-5.31
'0:15.074',-4.05
'0:15.078',-2.94
'0:15.082',-2.06
'0:15.086',-1.56
'0:15.090',-1.12
'0:15.094',-0.62
'0:15.098',-0.3
'0:15.102',-0.01
'0:15.105',0.21
'0:15.109',0.54
'0:15.113',0.82
'0:15.117',0.98
'0:15.121',1.05
'0:15.125',1.35
'0:15.129',1.61
'0:15.133',1.86
'0:15.137',2.24
'0:15.141',2.7
'0:15.145',3.21
'0:15.148',3.69
'0:15.152',4.18
'0:15.156',4.58
'0:15.160',4.94
'0:15.164',5.22
'0:15.168',5.15
'0:15.172',5.19
'0:15.176',5.43
'0:15.180',5.51
'0:15.184',5.09
'0:15.188',4.52
'0:15.191',3.89
'0:15.195',3.26
'0:15.199',2.57
'0:15.203',1.97
'0:15.207',1.43
'0:15.211',0.79
'0:15.215',0.11
'0:15.219',-0.54
'0:15.223',-1.03
'0:15.227',-1.31
'0:15.230',-1.62
'0:15.234',-1.87
'0:15.238',-2.14
'0:15.242',-2.19
'0:15.246',-2
'0:15.250',-1.78
'0:15.254',-1.59
'0:15.258',-1.37
'0:15.262',-1.26
'0:15.266',-1.04
'0:15.270',-0.73
'0:15.273',-0.49
'0:15.277',-0.43
'0:15.281',-0.39
'0:15.285',-0.26
'0:15.289',-0.1
'0:15.293',0.1
'0:15.297',0.23
'0:15.301',0.32
'0:15.305',0.06
'0:15.309',-0.33
'0:15.313',-0.65
'0:15.316',-0.95
'0:15.320',-1.36
'0:15.324',-1.72
'0:15.328',-2.11
'0:15.332',-2.47
'0:15.336',-2.77
'0:15.340',-2.84
'0:15.344',-2.66
'0:15.348',-2.54
'0:15.352',-2.34
'0:15.355',-2.19
'0:15.359',-2.28
'0:15.363',-2.12
'0:15.367',-1.68
'0:15.371',-1.36
'0:15.375',-1.48
'0:15.379',-1.89
'0:15.383',-2.04
'0:15.387',-1.64
'0:15.391',-0.65
'0:15.395',1.14
'0:15.398',3.95
'0:15.402',7.55
'0:15.406',11.32
'0:15.410',13.79
'0:15.414',13.66
'0:15.418',10.76
'0:15.422',5.57
'0:15.426',-0.3
'0:15.430',-5.11
'0:15.434',-8.02
'0:15.438',-9.16
'0:15.441',-8.99
'0:15.445',-8
'0:15.449',-6.58
'0:15.453',-5
'0:15.457',-3.46
'0:15.461',-2.21
'0:15.465',-1.23
'0:15.469',-0.59
'0:15.473',-0.01
'0:15.477',0.61
'0:15.480',1.12
'0:15.484',1.42
'0:15.488',1.63
'0:15.492',1.8
'0:15.496',2.07
'0:15.500',2.42
'0:15.504',2.63
'0:15.508',2.75
'0:15.512',2.87
'0:15.516',3.09
'0:15.520',3.51
'0:15.523',3.99
'0:15.527',4.26
'0:15.531',4.61
'0:15.535',5.16
'0:15.539',5.68
'0:15.543',6.07
'0:15.547',6.33
'0:15.551',6.46
'0:15.555',6.56
'0:15.559',6.77
'0:15.563',6.83
'0:15.566',6.62
'0:15.570',6.22
'0:15.574',5.69
'0:15.578',4.93
'0:15.582',4.18
'0:15.586',3.49
'0:15.590',2.8
'0:15.594',2.13
'0:15.598',1.54
'0:15.602',0.92
'0:15.605',0.28
'0:15.609',-0.42
'0:15.613',-0.99
'0:15.617',-1.38
'0:15.621',-1.48
'0:15.625',-1.44
'0:15.629',-1.49
'0:15.633',-1.54
'0:15.637',-1.4
'0:15.641',-1.19
'0:15.645',-1.05
'0:15.648',-0.99
'0:15.652',-1.06
'0:15.656',-1.07
'0:15.660',-0.76
'0:15.664',-0.36
'0:15.668',-0.31
'0:15.672',-0.46
'0:15.676',-0.36
'0:15.680',-0.12
'0:15.684',-0.02
'0:15.688',-0.14
'0:15.691',-0.5
'0:15.695',-0.81
'0:15.699',-1.01
'0:15.703',-1.27
'0:15.707',-1.61
'0:15.711',-1.97
'0:15.715',-2.43
'0:15.719',-3.01
'0:15.723',-3.5
'0:15.727',-3.96
'0:15.730',-4.14
'0:15.734',-4.09
'0:15.738',-4.04
'0:15.742',-3.95
'0:15.746',-3.63
'0:15.750',-3.34
'0:15.754',-3.36
'0:15.758',-3.33
'0:15.762',-3.27
'0:15.766',-3.54
'0:15.770',-4.1
'0:15.773',-4.57
'0:15.777',-4.43
'0:15.781',-3.52
'0:15.785',-1.31
'0:15.789',2.24
'0:15.793',6.64
'0:15.797',11.34
'0:15.801',14.86
'0:15.805',15.09
'0:15.809',11.56
'0:15.813',5.7
'0:15.816',-0.6
'0:15.820',-6.12
'0:15.824',-9.49
'0:15.828',-10.42
'0:15.832',-9.85
'0:15.836',-8.69
'0:15.840',-7.23
'0:15.844',-5.69
'0:15.848',-4.25
'0:15.852',-3.13
'0:15.855',-2.31
'0:15.859',-1.71
'0:15.863',-1.31
'0:15.867',-1.14
'0:15.871',-0.98
'0:15.875',-0.63
'0:15.879',-0.14
'0:15.883',0.37
'0:15.887',0.82
'0:15.891',1.12
'0:15.895',1.2
'0:15.898',1.49
'0:15.902',2.1
'0:15.906',2.63
'0:15.910',2.97
'0:15.914',3.41
'0:15.918',3.94
'0:15.922',4.52
'0:15.926',5
'0:15.930',5.43
'0:15.934',5.94
'0:15.938',6.48
'0:15.941',6.87
'0:15.945',7.07
'0:15.949',7
'0:15.953',6.74
'0:15.957',6.36
'0:15.961',5.76
'0:15.965',4.94
'0:15.969',4.21
'0:15.973',3.5
'0:15.977',2.74
'0:15.980',1.97
'0:15.984',1.21
'0:15.988',0.54
'0:15.992',-0.09
'0:15.996',-0.67
'0:16.000',-1.18
'0:16.004',-1.6
'0:16.008',-1.99
'0:16.012',-2.29
'0:16.016',-2.48
'0:16.020',-2.7
'0:16.023',-2.89
'0:16.027',-2.97
'0:16.031',-2.91
'0:16.035',-2.68
'0:16.039',-2.46
'0:16.043',-2.41
'0:16.047',-2.57
'0:16.051',-2.53
'0:16.055',-2.22
'0:16.059',-1.88
'0:16.063',-1.65
'0:16.066',-1.29
'0:16.070',-1.04
'0:16.074',-0.97
'0:16.078',-1.07
'0:16.082',-1.3
'0:16.086',-1.34
'0:16.090',-1.39
'0:16.094',-1.41
'0:16.098',-1.48
'0:16.102',-1.72
'0:16.105',-2.14
'0:16.109',-2.41
'0:16.113',-2.77
'0:16.117',-3.23
'0:16.121',-3.6
'0:16.125',-3.89
'0:16.129',-4.14
'0:16.133',-4.29
'0:16.137',-4.36
'0:16.141',-4.36
'0:16.145',-4.31
'0:16.148',-4.5
'0:16.152',-4.74
'0:16.156',-4.58
'0:16.160',-4.18
'0:16.164',-4.06
'0:16.168',-4.09
'0:16.172',-4.06
'0:16.176',-3.67
'0:16.180',-2.66
'0:16.184',-0.89
'0:16.188',1.9
'0:16.191',5.46
'0:16.195',9.52
'0:16.199',13.35
'0:16.203',15
'0:16.207',13.03
'0:16.211',8.35
'0:16.215',2.39
'0:16.219',-3.61
'0:16.223',-8.29
'0:16.227',-10.91
'0:16.230',-11.52
'0:16.234',-10.53
'0:16.238',-8.71
'0:16.242',-6.81
'0:16.246',-5.24
'0:16.250',-3.92
'0:16.254',-3.02
'0:16.258',-2.39
'0:16.262',-1.9
'0:16.266',-1.39
'0:16.270',-0.83
'0:16.273',-0.45
'0:16.277',-0.27
'0:16.281',-0.02
'0:16.285',0.48
'0:16.289',0.97
'0:16.293',1.44
'0:16.297',1.8
'0:16.301',2.02
'0:16.305',2.29
'0:16.309',2.64
'0:16.313',3
'0:16.316',3.34
'0:16.320',3.94
'0:16.324',4.52
'0:16.328',5.06
'0:16.332',5.46
'0:16.336',5.73
'0:16.340',5.92
'0:16.344',6.12
'0:16.348',6.23
'0:16.352',6.22
'0:16.355',6.14
'0:16.359',6.05
'0:16.363',5.75
'0:16.367',5.14
'0:16.371',4.35
'0:16.375',3.37
'0:16.379',2.49
'0:16.383',1.71
'0:16.387',1.05
'0:16.391',0.42
'0:16.395',-0.31
'0:16.398',-0.96
'0:16.402',-1.26
'0:16.406',-1.42
'0:16.410',-1.66
'0:16.414',-1.9
'0:16.418',-2.23
'0:16.422',-2.48
'0:16.426',-2.58
'0:16.430',-2.58
'0:16.434',-2.35
'0:16.438',-2.12
'0:16.441',-2.07
'0:16.445',-2.17
'0:16.449',-2.09
'0:16.453',-1.75
'0:16.457',-1.34
'0:16.461',-1.17
'0:16.465',-1.15
'0:16.469',-0.96
'0:16.473',-0.95
'0:16.477',-1
'0:16.480',-1.1
'0:16.484',-1.31
'0:16.488',-1.59
'0:16.492',-1.92
'0:16.496',-2.22
'0:16.500',-2.48
'0:16.504',-2.92
'0:16.508',-3.36
'0:16.512',-3.77
'0:16.516',-4.09
'0:16.520',-4.3
'0:16.523',-4.51
'0:16.527',-4.6
'0:16.531',-4.52
'0:16.535',-4.5
'0:16.539',-4.45
'0:16.543',-4.27
'0:16.547',-3.99
'0:16.551',-3.75
'0:16.555',-3.63
'0:16.559',-3.79
'0:16.563',-4.12
'0:16.566',-4.13
'0:16.570',-3.79
'0:16.574',-2.89
'0:16.578',-0.85
'0:16.582',2.22
'0:16.586',5.94
'0:16.590',9.59
'0:16.594',11.83
'0:16.598',11.54
'0:16.602',8.7
'0:16.605',3.93
'0:16.609',-1.57
'0:16.613',-6.29
'0:16.617',-9.2
'0:16.621',-10.25
'0:16.625',-9.96
'0:16.629',-8.93
'0:16.633',-7.53
'0:16.637',-6.16
'0:16.641',-4.87
'0:16.645',-3.79
'0:16.648',-2.76
'0:16.652',-1.85
'0:16.656',-1.24
'0:16.660',-0.63
'0:16.664',-0.09
'0:16.668',0.42
'0:16.672',0.81
'0:16.676',1.1
'0:16.680',1.32
'0:16.684',1.47
'0:16.688',1.61
'0:16.691',1.87
'0:16.695',2.1
'0:16.699',2.18
'0:16.703',2.34
'0:16.707',2.59
'0:16.711',2.97
'0:16.715',3.42
'0:16.719',3.78
'0:16.723',4.17
'0:16.727',4.64
'0:16.730',5.05
'0:16.734',5.44
'0:16.738',5.83
'0:16.742',6.12
'0:16.746',6.19
'0:16.750',6.1
'0:16.754',5.9
'0:16.758',5.55
'0:16.762',4.9
'0:16.766',4.14
'0:16.770',3.49
'0:16.773',2.73
'0:16.777',1.8
'0:16.781',0.94
'0:16.785',0.13
'0:16.789',-0.34
'0:16.793',-0.48
'0:16.797',-0.46
'0:16.801',-0.43
'0:16.805',-0.68
'0:16.809',-1.04
'0:16.813',-1.24
'0:16.816',-1.22
'0:16.820',-1
'0:16.824',-0.79
'0:16.828',-0.73
'0:16.832',-0.77
'0:16.836',-0.85
'0:16.840',-0.8
'0:16.844',-0.83
'0:16.848',-0.72
'0:16.852',-0.26
'0:16.855',0.18
'0:16.859',0.42
'0:16.863',0.46
'0:16.867',0.37
'0:16.871',0.2
'0:16.875',0.14
'0:16.879',0.1
'0:16.883',0.05
'0:16.887',-0.1
'0:16.891',-0.31
'0:16.895',-0.71
'0:16.898',-1.16
'0:16.902',-1.7
'0:16.906',-2.17
'0:16.910',-2.45
'0:16.914',-2.6
'0:16.918',-2.73
'0:16.922',-2.73
'0:16.926',-2.72
'0:16.930',-2.79
'0:16.934',-2.9
'0:16.938',-2.84
'0:16.941',-2.63
'0:16.945',-2.41
'0:16.949',-2.39
'0:16.953',-2.67
'0:16.957',-2.82
'0:16.961',-2.43
'0:16.965',-1.5
'0:16.969',0.16
'0:16.973',2.87
'0:16.977',6.41
'0:16.980',10.34
'0:16.984',13.23
'0:16.988',13.54
'0:16.992',11.14
'0:16.996',6.47
'0:17.000',0.48
'0:17.004',-4.94
'0:17.008',-8.38
'0:17.012',-9.86
'0:17.016',-9.71
'0:17.020',-8.68
'0:17.023',-7.4
'0:17.027',-6.21
'0:17.031',-4.98
'0:17.035',-3.64
'0:17.039',-2.23
'0:17.043',-1.01
'0:17.047',-0.12
'0:17.051',0.42
'0:17.055',0.68
'0:17.059',0.56
'0:17.063',0.33
'0:17.066',0.62
'0:17.070',1.45
'0:17.074',2.4
'0:17.078',3
'0:17.082',3.36
'0:17.086',3.48
'0:17.090',3.56
'0:17.094',3.65
'0:17.098',3.73
'0:17.102',3.88
'0:17.105',4.13
'0:17.109',4.56
'0:17.113',5.09
'0:17.117',5.51
'0:17.121',5.76
'0:17.125',5.78
'0:17.129',5.65
'0:17.133',5.48
'0:17.137',5.39
'0:17.141',5.29
'0:17.145',4.99
'0:17.148',4.66
'0:17.152',4.35
'0:17.156',3.87
'0:17.160',3.24
'0:17.164',2.57
'0:17.168',1.88
'0:17.172',1.3
'0:17.176',0.84
'0:17.180',0.36
'0:17.184',-0.34
'0:17.188',-1.02
'0:17.191',-1.39
'0:17.195',-1.55
'0:17.199',-1.6
'0:17.203',-1.67
'0:17.207',-1.85
'0:17.211',-2.02
'0:17.215',-2.21
'0:17.219',-2.23
'0:17.223',-1.99
'0:17.227',-1.64
'0:17.230',-1.34
'0:17.234',-1.07
'0:17.238',-0.8
'0:17.242',-0.6
'0:17.246',-0.5
'0:17.250',-0.44
'0:17.254',-0.41
'0:17.258',-0.36
'0:17.262',-0.39
'0:17.266',-0.53
'0:17.270',-0.82
'0:17.273',-1.02
'0:17.277',-1.03
'0:17.281',-1.14
'0:17.285',-1.5
'0:17.289',-2.17
'0:17.293',-2.81
'0:17.297',-3.19
'0:17.301',-3.39
'0:17.305',-3.46
'0:17.309',-3.42
'0:17.313',-3.39
'0:17.316',-3.51
'0:17.320',-3.56
'0:17.324',-3.38
'0:17.328',-3.09
'0:17.332',-3.05
'0:17.336',-3.33
'0:17.340',-3.51
'0:17.344',-3.49
'0:17.348',-3.48
'0:17.352',-3.28
'0:17.355',-2.71
'0:17.359',-1.76
'0:17.363',0.14
'0:17.367',3.26
'0:17.371',6.82
'0:17.375',10.32
'0:17.379',12.94
'0:17.383',12.68
'0:17.387',9
'0:17.391',3.14
'0:17.395',-2.96
'0:17.398',-7.55
'0:17.402',-9.81
'0:17.406',-10.05
'0:17.410',-9.26
'0:17.414',-7.99
'0:17.418',-6.53
'0:17.422',-4.97
'0:17.426',-3.37
'0:17.430',-2.11
'0:17.434',-1.23
'0:17.438',-0.54
'0:17.441',0.01
'0:17.445',0.4
'0:17.449',0.61
'0:17.453',0.52
'0:17.457',0.45
'0:17.461',0.76
'0:17.465',1.38
'0:17.469',1.96
'0:17.473',2.27
'0:17.477',2.51
'0:17.480',2.73
'0:17.484',3.05
'0:17.488',3.23
'0:17.492',3.4
'0:17.496',3.74
'0:17.500',4.23
'0:17.504',4.96
'0:17.508',5.66
'0:17.512',6.02
'0:17.516',6.07
'0:17.520',6.12
'0:17.523',6.27
'0:17.527',6.36
'0:17.531',6.29
'0:17.535',5.97
'0:17.539',5.52
'0:17.543',4.93
'0:17.547',4.21
'0:17.551',3.36
'0:17.555',2.47
'0:17.559',1.82
'0:17.563',1.36
'0:17.566',0.96
'0:17.570',0.6
'0:17.574',0.21
'0:17.578',-0.38
'0:17.582',-0.97
'0:17.586',-1.29
'0:17.590',-1.56
'0:17.594',-2.06
'0:17.598',-2.53
'0:17.602',-2.97
'0:17.605',-3.17
'0:17.609',-3
'0:17.613',-2.8
'0:17.617',-2.67
'0:17.621',-2.13
'0:17.625',-1.6
'0:17.629',-1.23
'0:17.633',-0.84
'0:17.637',-0.38
'0:17.641',-0.1
'0:17.645',-0.17
'0:17.648',-0.32
'0:17.652',-0.33
'0:17.656',-0.32
'0:17.660',-0.69
'0:17.664',-1.3
'0:17.668',-1.71
'0:17.672',-2.18
'0:17.676',-2.71
'0:17.680',-3
'0:17.684',-3.3
'0:17.688',-3.45
'0:17.691',-3.52
'0:17.695',-3.75
'0:17.699',-4.22
'0:17.703',-4.44
'0:17.707',-4.46
'0:17.711',-4.23
'0:17.715',-3.82
'0:17.719',-3.62
'0:17.723',-3.49
'0:17.727',-3.43
'0:17.730',-3.31
'0:17.734',-3.29
'0:17.738',-3.49
'0:17.742',-3.94
'0:17.746',-4.22
'0:17.750',-4.06
'0:17.754',-3.53
'0:17.758',-1.92
'0:17.762',1.48
'0:17.766',5.57
'0:17.770',9.33
'0:17.773',12.17
'0:17.777',12.2
'0:17.781',8.4
'0:17.785',2.51
'0:17.789',-3.23
'0:17.793',-7.42
'0:17.797',-9.51
'0:17.801',-9.59
'0:17.805',-8.54
'0:17.809',-6.91
'0:17.813',-5.17
'0:17.816',-3.58
'0:17.820',-2.46
'0:17.824',-1.99
'0:17.828',-1.75
'0:17.832',-1
'0:17.836',0.04
'0:17.840',0.79
'0:17.844',0.9
'0:17.848',0.68
'0:17.852',0.69
'0:17.855',1.27
'0:17.859',2.04
'0:17.863',2.47
'0:17.867',2.78
'0:17.871',2.97
'0:17.875',2.55
'0:17.879',2.24
'0:17.883',2.75
'0:17.887',3.67
'0:17.891',4.52
'0:17.895',5.25
'0:17.898',5.92
'0:17.902',6.54
'0:17.906',6.92
'0:17.910',6.8
'0:17.914',6.63
'0:17.918',6.71
'0:17.922',6.73
'0:17.926',6.63
'0:17.930',6.33
'0:17.934',5.84
'0:17.938',4.97
'0:17.941',3.79
'0:17.945',2.84
'0:17.949',2.29
'0:17.953',1.82
'0:17.957',1.31
'0:17.961',0.77
'0:17.965',0.22
'0:17.969',-0.29
'0:17.973',-1.09
'0:17.977',-1.88
'0:17.980',-2.25
'0:17.984',-2.76
'0:17.988',-3.13
'0:17.992',-2.94
'0:17.996',-2.38
'0:18.000',-2.17
'0:18.004',-2.24
'0:18.008',-2.19
'0:18.012',-2.22
'0:18.016',-2.46
'0:18.020',-2.4
'0:18.023',-2.04
'0:18.027',-1.54
'0:18.031',-1.16
'0:18.035',-0.87
'0:18.039',-0.65
'0:18.043',-0.46
'0:18.047',-0.46
'0:18.051',-0.31
'0:18.055',-0.12
'0:18.059',-0.18
'0:18.063',-0.64
'0:18.066',-1.05
'0:18.070',-1.19
'0:18.074',-1.37
'0:18.078',-2.21
'0:18.082',-3.18
'0:18.086',-4.03
'0:18.090',-4.66
'0:18.094',-4.84
'0:18.098',-4.42
'0:18.102',-3.8
'0:18.105',-3.41
'0:18.109',-3.24
'0:18.113',-3.3
'0:18.117',-3.41
'0:18.121',-3.48
'0:18.125',-3.48
'0:18.129',-3.44
'0:18.133',-3.41
'0:18.137',-3.49
'0:18.141',-3.86
'0:18.145',-4.46
'0:18.148',-4.75
'0:18.152',-4.37
'0:18.156',-3.19
'0:18.160',-0.97
'0:18.164',2.39
'0:18.168',6.81
'0:18.172',10.42
'0:18.176',10.23
'0:18.180',7.31
'0:18.184',2.7
'0:18.188',-2.94
'0:18.191',-7.08
'0:18.195',-9.1
'0:18.199',-10.37
'0:18.203',-10.5
'0:18.207',-9.14
'0:18.211',-7.13
'0:18.215',-4.31
'0:18.219',-1.35
'0:18.223',0.66
'0:18.227',1.72
'0:18.230',2.02
'0:18.234',1.87
'0:18.238',1.68
'0:18.242',1.56
'0:18.246',1.57
'0:18.250',1.71
'0:18.254',1.95
'0:18.258',2.2
'0:18.262',2.54
'0:18.266',2.84
'0:18.270',3.15
'0:18.273',3.55
'0:18.277',3.84
'0:18.281',4.18
'0:18.285',4.62
'0:18.289',4.9
'0:18.293',5.2
'0:18.297',5.7
'0:18.301',6.39
'0:18.305',7.1
'0:18.309',7.62
'0:18.313',8.02
'0:18.316',8.49
'0:18.320',8.77
'0:18.324',8.63
'0:18.328',8.18
'0:18.332',7.53
'0:18.336',6.84
'0:18.340',6.06
'0:18.344',4.95
'0:18.348',3.77
'0:18.352',2.87
'0:18.355',2.28
'0:18.359',1.79
'0:18.363',1.08
'0:18.367',0.33
'0:18.371',-0.33
'0:18.375',-1.24
'0:18.379',-2.17
'0:18.383',-2.9
'0:18.387',-2.86
'0:18.391',-2.21
'0:18.395',-1.62
'0:18.398',-1.46
'0:18.402',-1.55
'0:18.406',-1.71
'0:18.410',-1.9
'0:18.414',-1.99
'0:18.418',-1.89
'0:18.422',-1.72
'0:18.426',-1.65
'0:18.430',-1.53
'0:18.434',-1.28
'0:18.438',-0.87
'0:18.441',-0.53
'0:18.445',-0.58
'0:18.449',-0.79
'0:18.453',-0.79
'0:18.457',-0.66
'0:18.461',-0.96
'0:18.465',-1.27
'0:18.469',-1.45
'0:18.473',-1.81
'0:18.477',-2.23
'0:18.480',-2.5
'0:18.484',-2.97
'0:18.488',-3.27
'0:18.492',-3.36
'0:18.496',-3.39
'0:18.500',-3.43
'0:18.504',-3.61
'0:18.508',-3.91
'0:18.512',-4.19
'0:18.516',-4.03
'0:18.520',-3.72
'0:18.523',-3.52
'0:18.527',-3.43
'0:18.531',-3.66
'0:18.535',-3.78
'0:18.539',-3.67
'0:18.543',-3.39
'0:18.547',-2.61
'0:18.551',-0.49
'0:18.555',2.95
'0:18.559',6.63
'0:18.563',9.41
'0:18.566',10.04
'0:18.570',8.26
'0:18.574',5.28
'0:18.578',1.34
'0:18.582',-2.97
'0:18.586',-6.67
'0:18.590',-9.15
'0:18.594',-10.17
'0:18.598',-9.97
'0:18.602',-8.76
'0:18.605',-7.36
'0:18.609',-5.9
'0:18.613',-4.37
'0:18.617',-3.01
'0:18.621',-2.09
'0:18.625',-1.56
'0:18.629',-1.28
'0:18.633',-1.1
'0:18.637',-0.65
'0:18.641',-0.02
'0:18.645',0.28
'0:18.648',0.42
'0:18.652',0.69
'0:18.656',1.04
'0:18.660',1.25
'0:18.664',1.29
'0:18.668',1.39
'0:18.672',1.64
'0:18.676',1.81
'0:18.680',1.76
'0:18.684',1.87
'0:18.688',2.07
'0:18.691',2.46
'0:18.695',2.88
'0:18.699',3.1
'0:18.703',3.37
'0:18.707',3.66
'0:18.711',3.57
'0:18.715',2.93
'0:18.719',2.41
'0:18.723',2.32
'0:18.727',2.24
'0:18.730',1.79
'0:18.734',1.12
'0:18.738',0.31
'0:18.742',-0.4
'0:18.746',-1.17
'0:18.750',-2.22
'0:18.754',-3.17
'0:18.758',-4.05
'0:18.762',-4.9
'0:18.766',-5.44
'0:18.770',-5.63
'0:18.773',-5.72
'0:18.777',-5.78
'0:18.781',-5.87
'0:18.785',-5.83
'0:18.789',-5.67
'0:18.793',-5.53
'0:18.797',-5.5
'0:18.801',-5.46
'0:18.805',-5.2
'0:18.809',-4.6
'0:18.813',-4
'0:18.816',-3.59
'0:18.820',-3.52
'0:18.824',-3.65
'0:18.828',-3.42
'0:18.832',-3
'0:18.836',-2.39
'0:18.840',-1.72
'0:18.844',-1.08
'0:18.848',-0.79
'0:18.852',-0.78
'0:18.855',-1.24
'0:18.859',-1.94
'0:18.863',-2.35
'0:18.867',-2.72
'0:18.871',-3.26
'0:18.875',-3.76
'0:18.879',-4.09
'0:18.883',-4.33
'0:18.887',-4.55
'0:18.891',-4.17
'0:18.895',-3.33
'0:18.898',-2.6
'0:18.902',-2.28
'0:18.906',-2.43
'0:18.910',-2.24
'0:18.914',-1.58
'0:18.918',-1.09
'0:18.922',-0.91
'0:18.926',-0.69
'0:18.930',-0.59
'0:18.934',-0.27
'0:18.938',1.32
'0:18.941',4.11
'0:18.945',7.41
'0:18.949',10.98
'0:18.953',13.98
'0:18.957',14.94
'0:18.961',13.25
'0:18.965',9.16
'0:18.969',3.53
'0:18.973',-1.94
'0:18.977',-5.93
'0:18.980',-7.94
'0:18.984',-8.07
'0:18.988',-6.84
'0:18.992',-5.24
'0:18.996',-3.87
'0:19.000',-2.6
'0:19.004',-1.21
'0:19.008',0.14
'0:19.012',0.99
'0:19.016',1.56
'0:19.020',2.14
'0:19.023',2.72
'0:19.027',3.01
'0:19.031',3.15
'0:19.035',3.31
'0:19.039',3.44
'0:19.043',3.68
'0:19.047',3.95
'0:19.051',4.1
'0:19.055',4.33
'0:19.059',4.7
'0:19.063',5.06
'0:19.066',5.35
'0:19.070',5.67
'0:19.074',6.01
'0:19.078',6.53
'0:19.082',7.21
'0:19.086',7.77
'0:19.090',8.2
'0:19.094',8.49
'0:19.098',8.77
'0:19.102',9
'0:19.105',8.93
'0:19.109',8.51
'0:19.113',7.76
'0:19.117',6.86
'0:19.121',6.15
'0:19.125',5.63
'0:19.129',5.14
'0:19.133',4.55
'0:19.137',3.85
'0:19.141',3.09
'0:19.145',2.32
'0:19.148',1.63
'0:19.152',0.94
'0:19.156',0.47
'0:19.160',-0.05
'0:19.164',-0.65
'0:19.168',-0.9
'0:19.172',-0.77
'0:19.176',-0.55
'0:19.180',-0.31
'0:19.184',-0.22
'0:19.188',-0.32
'0:19.191',-0.51
'0:19.195',-0.64
'0:19.199',-0.53
'0:19.203',-0.56
'0:19.207',-0.73
'0:19.211',-0.64
'0:19.215',-0.35
'0:19.219',0.12
'0:19.223',0.47
'0:19.227',0.54
'0:19.230',0.49
'0:19.234',0.39
'0:19.238',0.21
'0:19.242',-0.33
'0:19.246',-1.32
'0:19.250',-2.3
'0:19.254',-2.58
'0:19.258',-2.43
'0:19.262',-2.48
'0:19.266',-2.86
'0:19.270',-3.11
'0:19.273',-3.25
'0:19.277',-3.41
'0:19.281',-3.56
'0:19.285',-3.52
'0:19.289',-3.09
'0:19.293',-2.82
'0:19.297',-2.85
'0:19.301',-2.98
'0:19.305',-3.28
'0:19.309',-3.38
'0:19.313',-3.32
'0:19.316',-3.08
'0:19.320',-2.6
'0:19.324',-1.94
'0:19.328',-0.36
'0:19.332',2.5
'0:19.336',6.57
'0:19.340',11.05
'0:19.344',14.78
'0:19.348',15.74
'0:19.352',12.66
'0:19.355',6.69
'0:19.359',-0.12
'0:19.363',-5.81
'0:19.367',-9.1
'0:19.371',-10.24
'0:19.375',-10.05
'0:19.379',-8.93
'0:19.383',-7.35
'0:19.387',-5.88
'0:19.391',-4.63
'0:19.395',-3.47
'0:19.398',-2.69
'0:19.402',-2.14
'0:19.406',-1.48
'0:19.410',-0.71
'0:19.414',-0.09
'0:19.418',0.17
'0:19.422',0.23
'0:19.426',0.32
'0:19.430',0.49
'0:19.434',0.82
'0:19.438',1.38
'0:19.441',1.72
'0:19.445',1.81
'0:19.449',2.11
'0:19.453',2.58
'0:19.457',3.25
'0:19.461',4.01
'0:19.465',4.74
'0:19.469',5.29
'0:19.473',5.7
'0:19.477',6
'0:19.480',6.11
'0:19.484',6.25
'0:19.488',6.4
'0:19.492',6.46
'0:19.496',6.29
'0:19.500',5.63
'0:19.504',4.91
'0:19.508',4.27
'0:19.512',3.71
'0:19.516',2.94
'0:19.520',2.21
'0:19.523',1.57
'0:19.527',0.85
