'0:00.000',3.62
'0:00.004',3.29
'0:00.008',2.88
'0:00.012',2.4
'0:00.016',1.93
'0:00.020',1.65
'0:00.023',1.57
'0:00.027',1.57
'0:00.031',1.81
'0:00.035',1.97
'0:00.039',1.83
'0:00.043',1.73
'0:00.047',2.14
'0:00.051',2.41
'0:00.055',2.26
'0:00.059',2.13
'0:00.063',1.93
'0:00.066',1.49
'0:00.070',1.08
'0:00.074',0.76
'0:00.078',0.24
'0:00.082',-0.32
'0:00.086',-0.7
'0:00.090',-1.31
'0:00.094',-1.9
'0:00.098',-2.26
'0:00.102',-2.56
'0:00.105',-2.57
'0:00.109',-2.6
'0:00.113',-2.63
'0:00.117',-2.75
'0:00.121',-2.58
'0:00.125',-2.76
'0:00.129',-3.09
'0:00.133',-3.13
'0:00.137',-2.79
'0:00.141',-1.73
'0:00.145',0.59
'0:00.148',3.61
'0:00.152',6.88
'0:00.156',10.58
'0:00.160',11.61
'0:00.164',7.51
'0:00.168',1.61
'0:00.172',-3.11
'0:00.176',-6.08
'0:00.180',-8.02
'0:00.184',-9.55
'0:00.188',-10.48
'0:00.191',-10.45
'0:00.195',-9.06
'0:00.199',-7.34
'0:00.203',-6.14
'0:00.207',-4.84
'0:00.211',-3.33
'0:00.215',-1.46
'0:00.219',-0.22
'0:00.223',0.41
'0:00.227',0.42
'0:00.230',0.52
'0:00.234',0.99
'0:00.238',1.37
'0:00.242',1.52
'0:00.246',1.3
'0:00.250',0.95
'0:00.254',1.03
'0:00.258',1.98
'0:00.262',2.78
'0:00.266',2.93
'0:00.270',3.22
'0:00.273',3.72
'0:00.277',4.16
'0:00.281',4.13
'0:00.285',3.59
'0:00.289',3.01
'0:00.293',3.05
'0:00.297',3.36
'0:00.301',3.78
'0:00.305',3.93
'0:00.309',2.87
'0:00.313',1.84
'0:00.316',1.2
'0:00.320',1.08
'0:00.324',1.21
'0:00.328',2.13
'0:00.332',2.61
'0:00.336',2.1
'0:00.340',1.91
'0:00.344',1.64
'0:00.348',1.25
'0:00.352',1.19
'0:00.355',1.68
'0:00.359',1.9
'0:00.363',1.63
'0:00.367',1.22
'0:00.371',0.42
'0:00.375',-0.1
'0:00.379',-0.11
'0:00.383',-0.22
'0:00.387',-0.56
'0:00.391',-1.19
'0:00.395',-1.68
'0:00.398',-2.09
'0:00.402',-2.49
'0:00.406',-2.62
'0:00.410',-2.61
'0:00.414',-2.53
'0:00.418',-2.55
'0:00.422',-2.6
'0:00.426',-2.76
'0:00.430',-2.9
'0:00.434',-2.46
'0:00.438',-1.28
'0:00.441',0.99
'0:00.445',4.05
'0:00.449',7.48
'0:00.453',10.52
'0:00.457',10.7
'0:00.461',6.45
'0:00.465',1.03
'0:00.469',-3.05
'0:00.473',-5.66
'0:00.477',-7.8
'0:00.480',-9.44
'0:00.484',-10.25
'0:00.488',-10.14
'0:00.492',-9.17
'0:00.496',-7.68
'0:00.500',-5.98
'0:00.504',-4.49
'0:00.508',-3.27
'0:00.512',-2.18
'0:00.516',-1.24
'0:00.520',-0.59
'0:00.523',-0.24
'0:00.527',-0.02
'0:00.531',0.03
'0:00.535',0.11
'0:00.539',0.32
'0:00.543',0.73
'0:00.547',0.97
'0:00.551',1.21
'0:00.555',1.32
'0:00.559',1.55
'0:00.563',1.75
'0:00.566',1.92
'0:00.570',2.26
'0:00.574',2.48
'0:00.578',2.49
'0:00.582',2.54
'0:00.586',2.55
'0:00.590',2.3
'0:00.594',1.88
'0:00.598',1.64
'0:00.602',1.57
'0:00.605',1.29
'0:00.609',1.17
'0:00.613',1
'0:00.617',0.58
'0:00.621',0.08
'0:00.625',-0.04
'0:00.629',0
'0:00.633',-0.33
'0:00.637',-0.52
'0:00.641',-0.18
'0:00.645',0.57
'0:00.648',0.9
'0:00.652',1.06
'0:00.656',1.05
'0:00.660',0.81
'0:00.664',1.18
'0:00.668',1.49
'0:00.672',1.24
'0:00.676',0.54
'0:00.680',-0.24
'0:00.684',-0.85
'0:00.688',-1.41
'0:00.691',-1.88
'0:00.695',-2.25
'0:00.699',-2.41
'0:00.703',-2.34
'0:00.707',-2.38
'0:00.711',-2.69
'0:00.715',-3.03
'0:00.719',-3.54
'0:00.723',-3.67
'0:00.727',-3.37
'0:00.730',-2.76
'0:00.734',-1.73
'0:00.738',0.13
'0:00.742',2.72
'0:00.746',6.25
'0:00.750',9.79
'0:00.754',9.94
'0:00.758',5.58
'0:00.762',0.35
'0:00.766',-4.07
'0:00.770',-7.27
'0:00.773',-9.43
'0:00.777',-10.8
'0:00.781',-10.66
'0:00.785',-9.22
'0:00.789',-7.35
'0:00.793',-5.6
'0:00.797',-3.87
'0:00.801',-2.33
'0:00.805',-1.21
'0:00.809',-0.43
'0:00.813',0.26
'0:00.816',0.66
'0:00.820',1
'0:00.824',1.56
'0:00.828',2.15
'0:00.832',2.55
'0:00.836',2.43
'0:00.840',2.53
'0:00.844',2.82
'0:00.848',2.84
'0:00.852',2.82
'0:00.855',2.98
'0:00.859',3.08
'0:00.863',3.6
'0:00.867',3.79
'0:00.871',3.66
'0:00.875',3.68
'0:00.879',3.79
'0:00.883',4.01
'0:00.887',4.06
'0:00.891',3.87
'0:00.895',3.65
'0:00.898',3.29
'0:00.902',2.86
'0:00.906',2.59
'0:00.910',1.65
'0:00.914',1.33
'0:00.918',1.33
'0:00.922',1.49
'0:00.926',1.6
'0:00.930',1.57
'0:00.934',1.35
'0:00.938',1.22
'0:00.941',1.53
'0:00.945',1.89
'0:00.949',1.75
'0:00.953',1.52
'0:00.957',1.39
'0:00.961',1.01
'0:00.965',0.4
'0:00.969',0.18
'0:00.973',0.24
'0:00.977',0.21
'0:00.980',0.02
'0:00.984',-0.77
'0:00.988',-1.69
'0:00.992',-2.25
'0:00.996',-2.24
'0:01.000',-2.48
'0:01.004',-2.88
'0:01.008',-2.67
'0:01.012',-2.78
'0:01.016',-3.3
'0:01.020',-4.01
'0:01.023',-4.32
'0:01.027',-4.42
'0:01.031',-3.34
'0:01.035',-0.85
'0:01.039',2.48
'0:01.043',5.97
'0:01.047',9.02
'0:01.051',11.21
'0:01.055',9.47
'0:01.059',4.12
'0:01.063',-1.1
'0:01.066',-4.77
'0:01.070',-7.26
'0:01.074',-9.24
'0:01.078',-10.36
'0:01.082',-10.41
'0:01.086',-9.33
'0:01.090',-7.78
'0:01.094',-6.26
'0:01.098',-4.7
'0:01.102',-3.34
'0:01.105',-2.17
'0:01.109',-1.19
'0:01.113',-0.43
'0:01.117',0.21
'0:01.121',0.65
'0:01.125',1.35
'0:01.129',1.83
'0:01.133',1.91
'0:01.137',1.66
'0:01.141',1.49
'0:01.145',1.83
'0:01.148',2.59
'0:01.152',3.37
'0:01.156',3.94
'0:01.160',4.35
'0:01.164',4.56
'0:01.168',4.7
'0:01.172',4.56
'0:01.176',4.21
'0:01.180',4.09
'0:01.184',4.27
'0:01.188',4.43
'0:01.191',4.34
'0:01.195',3.74
'0:01.199',2.86
'0:01.203',2.18
'0:01.207',1.9
'0:01.211',2.12
'0:01.215',2.22
'0:01.219',1.67
'0:01.223',1.26
'0:01.227',1.21
'0:01.230',1.38
'0:01.234',1.69
'0:01.238',1.97
'0:01.242',2.05
'0:01.246',1.99
'0:01.250',1.85
'0:01.254',1.7
'0:01.258',1.43
'0:01.262',1.2
'0:01.266',0.92
'0:01.270',0.64
'0:01.273',0.23
'0:01.277',-0.42
'0:01.281',-1.09
'0:01.285',-1.7
'0:01.289',-1.94
'0:01.293',-2.01
'0:01.297',-2.25
'0:01.301',-2.47
'0:01.305',-2.63
'0:01.309',-2.68
'0:01.313',-2.67
'0:01.316',-2.89
'0:01.320',-3.26
'0:01.324',-3.26
'0:01.328',-2.69
'0:01.332',-1.42
'0:01.336',0.7
'0:01.340',3.58
'0:01.344',6.57
'0:01.348',9.46
'0:01.352',9.58
'0:01.355',5.27
'0:01.359',-0.28
'0:01.363',-4.19
'0:01.367',-6.49
'0:01.371',-8.27
'0:01.375',-9.58
'0:01.379',-10.14
'0:01.383',-9.92
'0:01.387',-9.01
'0:01.391',-7.62
'0:01.395',-5.97
'0:01.398',-4.4
'0:01.402',-3.24
'0:01.406',-2.28
'0:01.410',-1.51
'0:01.414',-1.04
'0:01.418',-0.77
'0:01.422',-0.62
'0:01.426',-0.34
'0:01.430',-0.1
'0:01.434',0.09
'0:01.438',0.5
'0:01.441',1.02
'0:01.445',1.54
'0:01.449',2.44
'0:01.453',2.93
'0:01.457',3.15
'0:01.461',3.53
'0:01.465',3.78
'0:01.469',3.7
'0:01.473',3.54
'0:01.477',3.83
'0:01.480',3.97
'0:01.484',3.97
'0:01.488',3.83
'0:01.492',3.41
'0:01.496',2.69
'0:01.500',2.1
'0:01.504',1.85
'0:01.508',1.6
'0:01.512',1.5
'0:01.516',1.81
'0:01.520',2.2
'0:01.523',2.2
'0:01.527',2.15
'0:01.531',1.95
'0:01.535',1.68
'0:01.539',1.49
'0:01.543',1.58
'0:01.547',1.66
'0:01.551',1.69
'0:01.555',1.6
'0:01.559',1.43
'0:01.563',1.24
'0:01.566',1.01
'0:01.570',0.54
'0:01.574',0.07
'0:01.578',-0.47
'0:01.582',-0.98
'0:01.586',-1.46
'0:01.590',-1.81
'0:01.594',-2.05
'0:01.598',-2.3
'0:01.602',-2.44
'0:01.605',-2.3
'0:01.609',-2.26
'0:01.613',-2.43
'0:01.617',-2.8
'0:01.621',-3.07
'0:01.625',-2.75
'0:01.629',-1.54
'0:01.633',0.6
'0:01.637',3.48
'0:01.641',6.76
'0:01.645',9.85
'0:01.648',10.52
'0:01.652',6.54
'0:01.656',0.6
'0:01.660',-4.1
'0:01.664',-7.09
'0:01.668',-9.19
'0:01.672',-10.65
'0:01.676',-11.31
'0:01.680',-10.99
'0:01.684',-9.75
'0:01.688',-7.92
'0:01.691',-5.92
'0:01.695',-4.02
'0:01.699',-2.33
'0:01.703',-1.11
'0:01.707',-0.44
'0:01.711',-0.16
'0:01.715',-0.09
'0:01.719',-0.18
'0:01.723',-0.24
'0:01.727',-0.15
'0:01.730',0.16
'0:01.734',0.47
'0:01.738',0.74
'0:01.742',0.98
'0:01.746',1.16
'0:01.750',1.51
'0:01.754',2.13
'0:01.758',2.69
'0:01.762',3.12
'0:01.766',3.4
'0:01.770',3.47
'0:01.773',3.46
'0:01.777',3.36
'0:01.781',3.18
'0:01.785',3.03
'0:01.789',2.83
'0:01.793',2.33
'0:01.797',1.79
'0:01.801',1.5
'0:01.805',1.36
'0:01.809',1.06
'0:01.813',0.77
'0:01.816',1.05
'0:01.820',1.24
'0:01.824',1.09
'0:01.828',0.61
'0:01.832',0.82
'0:01.836',1.19
'0:01.840',1.42
'0:01.844',1.61
'0:01.848',1.5
'0:01.852',1.23
'0:01.855',1.15
'0:01.859',1.22
'0:01.863',1.11
'0:01.867',0.63
'0:01.871',-0.03
'0:01.875',-0.47
'0:01.879',-0.36
'0:01.883',-0.18
'0:01.887',-0.48
'0:01.891',-0.8
'0:01.895',-0.99
'0:01.898',-0.97
'0:01.902',-1.14
'0:01.906',-1.51
'0:01.910',-1.72
'0:01.914',-1.94
'0:01.918',-2.16
'0:01.922',-1.7
'0:01.926',-0.41
'0:01.930',1.73
'0:01.934',4.71
'0:01.938',7.89
'0:01.941',11.22
'0:01.945',12.57
'0:01.949',9.24
'0:01.953',3.2
'0:01.957',-2.18
'0:01.961',-6.02
'0:01.965',-8.7
'0:01.969',-10.38
'0:01.973',-10.91
'0:01.977',-10.16
'0:01.980',-8.55
'0:01.984',-6.69
'0:01.988',-4.88
'0:01.992',-3.12
'0:01.996',-1.96
'0:02.000',-1.6
'0:02.004',-1.41
'0:02.008',-1.14
'0:02.012',-0.68
'0:02.016',-0.01
'0:02.020',0.36
'0:02.023',0.36
'0:02.027',0.13
'0:02.031',-0.2
'0:02.035',-0.14
'0:02.039',0.24
'0:02.043',0.71
'0:02.047',1.14
'0:02.051',1.42
'0:02.055',1.55
'0:02.059',1.92
'0:02.063',2.38
'0:02.066',2.26
'0:02.070',2.49
'0:02.074',3.05
'0:02.078',3.07
'0:02.082',2.78
'0:02.086',2.4
'0:02.090',1.76
'0:02.094',1.2
'0:02.098',0.98
'0:02.102',0.85
'0:02.105',0.93
'0:02.109',0.99
'0:02.113',0.72
'0:02.117',0.87
'0:02.121',1.21
'0:02.125',1.3
'0:02.129',1.27
'0:02.133',1.18
'0:02.137',1.1
'0:02.141',1.23
'0:02.145',1.43
'0:02.148',1.55
'0:02.152',1.09
'0:02.156',0.84
'0:02.160',0.64
'0:02.164',0.14
'0:02.168',-0.16
'0:02.172',-0.91
'0:02.176',-1.65
'0:02.180',-1.87
'0:02.184',-2.58
'0:02.188',-3.28
'0:02.191',-3.53
'0:02.195',-3.33
'0:02.199',-2.97
'0:02.203',-2.69
'0:02.207',-2.5
'0:02.211',-2.37
'0:02.215',-2.76
'0:02.219',-2.87
'0:02.223',-1.96
'0:02.227',-0.02
'0:02.230',2.64
'0:02.234',5.72
'0:02.238',8.96
'0:02.242',11.32
'0:02.246',9.62
'0:02.250',4.36
'0:02.254',-0.8
'0:02.258',-4.66
'0:02.262',-7.39
'0:02.266',-9.27
'0:02.270',-10.09
'0:02.273',-10.01
'0:02.277',-9.23
'0:02.281',-7.99
'0:02.285',-6.61
'0:02.289',-4.75
'0:02.293',-2.62
'0:02.297',-1.2
'0:02.301',-0.46
'0:02.305',0.1
'0:02.309',0.36
'0:02.313',0.49
'0:02.316',0.55
'0:02.320',0.83
'0:02.324',1.22
'0:02.328',1.59
'0:02.332',1.81
'0:02.336',1.83
'0:02.340',1.91
'0:02.344',2.23
'0:02.348',2.49
'0:02.352',2.81
'0:02.355',3.11
'0:02.359',3.4
'0:02.363',3.63
'0:02.367',3.87
'0:02.371',3.81
'0:02.375',3.46
'0:02.379',3.16
'0:02.383',2.98
'0:02.387',2.88
'0:02.391',2.81
'0:02.395',2.63
'0:02.398',2.35
'0:02.402',2.02
'0:02.406',1.68
'0:02.410',1.22
'0:02.414',0.79
'0:02.418',0.61
'0:02.422',0.72
'0:02.426',0.98
'0:02.430',1.59
'0:02.434',2.06
'0:02.438',2.17
'0:02.441',2.09
'0:02.445',1.78
'0:02.449',1.37
'0:02.453',1.1
'0:02.457',0.76
'0:02.461',0.37
'0:02.465',0.04
'0:02.469',-0.15
'0:02.473',-0.6
'0:02.477',-1.27
'0:02.480',-1.93
'0:02.484',-2.6
'0:02.488',-3.25
'0:02.492',-3.66
'0:02.496',-3.75
'0:02.500',-3.41
'0:02.504',-3
'0:02.508',-2.91
'0:02.512',-3.37
'0:02.516',-3.84
'0:02.520',-3.52
'0:02.523',-2.37
'0:02.527',-0.22
'0:02.531',2.61
'0:02.535',6
'0:02.539',9.3
'0:02.543',10.23
'0:02.547',6.41
'0:02.551',0.82
'0:02.555',-3.68
'0:02.559',-7.03
'0:02.563',-9.05
'0:02.566',-9.92
'0:02.570',-10.12
'0:02.574',-9.63
'0:02.578',-8.38
'0:02.582',-6.53
'0:02.586',-4.65
'0:02.590',-3.3
'0:02.594',-2.39
'0:02.598',-1.51
'0:02.602',-0.76
'0:02.605',-0.43
'0:02.609',-0.33
'0:02.613',0
'0:02.617',0.29
'0:02.621',0.29
'0:02.625',0.58
'0:02.629',1.55
'0:02.633',2.31
'0:02.637',2.59
'0:02.641',2.62
'0:02.645',2.95
'0:02.648',3.68
'0:02.652',4.43
'0:02.656',4.81
'0:02.660',4.92
'0:02.664',4.79
'0:02.668',4.51
'0:02.672',4.31
'0:02.676',3.8
'0:02.680',3.58
'0:02.684',3.88
'0:02.688',4.24
'0:02.691',4.03
'0:02.695',3.52
'0:02.699',3.14
'0:02.703',2.72
'0:02.707',2.15
'0:02.711',2.2
'0:02.715',2.71
'0:02.719',3.05
'0:02.723',3.19
'0:02.727',2.94
'0:02.730',2.72
'0:02.734',2.64
'0:02.738',2.71
'0:02.742',2.71
'0:02.746',2.6
'0:02.750',2.11
'0:02.754',1.7
'0:02.758',1.39
'0:02.762',1.08
'0:02.766',0.51
'0:02.770',-0.18
'0:02.773',-0.64
'0:02.777',-1.01
'0:02.781',-1.55
'0:02.785',-1.84
'0:02.789',-1.65
'0:02.793',-1.21
'0:02.797',-0.96
'0:02.801',-0.98
'0:02.805',-1.32
'0:02.809',-1.99
'0:02.813',-2.47
'0:02.816',-2.21
'0:02.820',-1.21
'0:02.824',0.24
'0:02.828',2.29
'0:02.832',5
'0:02.836',8.09
'0:02.840',10.03
'0:02.844',7.8
'0:02.848',2.49
'0:02.852',-2.35
'0:02.855',-5.85
'0:02.859',-8.24
'0:02.863',-9.97
'0:02.867',-10.73
'0:02.871',-10.48
'0:02.875',-9.4
'0:02.879',-7.83
'0:02.883',-6.43
'0:02.887',-5.44
'0:02.891',-4.64
'0:02.895',-4.08
'0:02.898',-3.59
'0:02.902',-3.2
'0:02.906',-2.87
'0:02.910',-2.71
'0:02.914',-2.68
'0:02.918',-2.57
'0:02.922',-2.36
'0:02.926',-2.25
'0:02.930',-1.99
'0:02.934',-1.6
'0:02.938',-1.24
'0:02.941',-0.78
'0:02.945',-0.3
'0:02.949',0.24
'0:02.953',0.82
'0:02.957',1.38
'0:02.961',1.77
'0:02.965',1.88
'0:02.969',1.9
'0:02.973',1.84
'0:02.977',1.81
'0:02.980',1.79
'0:02.984',1.55
'0:02.988',1.03
'0:02.992',0.82
'0:02.996',0.45
'0:03.000',-0.07
'0:03.004',-0.41
'0:03.008',-0.38
'0:03.012',-0.25
'0:03.016',-0.22
'0:03.020',0.06
'0:03.023',0.38
'0:03.027',0.51
'0:03.031',0.63
'0:03.035',0.77
'0:03.039',0.52
'0:03.043',0.07
'0:03.047',-0.12
'0:03.051',-0.13
'0:03.055',-0.55
'0:03.059',-1.33
'0:03.063',-2.19
'0:03.066',-2.73
'0:03.070',-2.8
'0:03.074',-2.88
'0:03.078',-2.98
'0:03.082',-2.77
'0:03.086',-2.55
'0:03.090',-2.78
'0:03.094',-2.75
'0:03.098',-2.4
'0:03.102',-2.28
'0:03.105',-2.14
'0:03.109',-2.09
'0:03.113',-1.97
'0:03.117',-1.12
'0:03.121',0.49
'0:03.125',2.45
'0:03.129',4.48
'0:03.133',6.81
'0:03.137',9.45
'0:03.141',9
'0:03.145',3.94
'0:03.148',-1.18
'0:03.152',-4.33
'0:03.156',-6.85
'0:03.160',-8.72
'0:03.164',-9.43
'0:03.168',-9.1
'0:03.172',-8.31
'0:03.176',-7.17
'0:03.180',-6.04
'0:03.184',-5.11
'0:03.188',-3.34
'0:03.191',-1.49
'0:03.195',0.2
'0:03.199',1.17
'0:03.203',1.76
'0:03.207',1.98
'0:03.211',2.13
'0:03.215',2.69
'0:03.219',2.62
'0:03.223',2.24
'0:03.227',2.46
'0:03.230',2.32
'0:03.234',2.79
'0:03.238',3.89
'0:03.242',4.44
'0:03.246',4.53
'0:03.250',4.59
'0:03.254',4.3
'0:03.258',4.31
'0:03.262',4.87
'0:03.266',5.1
'0:03.270',4.67
'0:03.273',4.18
'0:03.277',3.9
'0:03.281',3.33
'0:03.285',2.37
'0:03.289',1.87
'0:03.293',1.47
'0:03.297',1.14
'0:03.301',1.11
'0:03.305',1.45
'0:03.309',1.63
'0:03.313',1.71
'0:03.316',1.8
'0:03.320',1.76
'0:03.324',2.09
'0:03.328',2.64
'0:03.332',2.85
'0:03.336',2.49
'0:03.340',1.96
'0:03.344',1.49
'0:03.348',1
'0:03.352',0.66
'0:03.355',0.23
'0:03.359',-0.3
'0:03.363',-0.91
'0:03.367',-1.41
'0:03.371',-1.77
'0:03.375',-2.36
'0:03.379',-3.01
'0:03.383',-3.42
'0:03.387',-3.37
'0:03.391',-2.98
'0:03.395',-2.76
'0:03.398',-2.79
'0:03.402',-3.02
'0:03.406',-3.19
'0:03.410',-2.82
'0:03.414',-2.48
'0:03.418',-1.72
'0:03.422',-0.28
'0:03.426',1.92
'0:03.430',4.7
'0:03.434',7.68
'0:03.438',9.81
'0:03.441',7.91
'0:03.445',2.41
'0:03.449',-2.65
'0:03.453',-6.03
'0:03.457',-8.37
'0:03.461',-10.12
'0:03.465',-11.13
'0:03.469',-11.17
'0:03.473',-10.26
'0:03.477',-8.56
'0:03.480',-6.91
'0:03.484',-5.71
'0:03.488',-5.04
'0:03.492',-3.68
'0:03.496',-1.26
'0:03.500',0.47
'0:03.504',1.28
'0:03.508',1.86
'0:03.512',2.23
'0:03.516',2.54
'0:03.520',2.93
'0:03.523',3.48
'0:03.527',3.99
'0:03.531',3.94
'0:03.535',3.81
'0:03.539',4.06
'0:03.543',4.2
'0:03.547',4.08
'0:03.551',4.23
'0:03.555',4.37
'0:03.559',4.29
'0:03.563',4.31
'0:03.566',4.36
'0:03.570',3.93
'0:03.574',3.16
'0:03.578',2.93
'0:03.582',3.1
'0:03.586',2.89
'0:03.590',2.04
'0:03.594',1.23
'0:03.598',0.82
'0:03.602',0.84
'0:03.605',0.93
'0:03.609',0.87
'0:03.613',0.92
'0:03.617',1.06
'0:03.621',1.3
'0:03.625',1.47
'0:03.629',1.25
'0:03.633',0.97
'0:03.637',0.9
'0:03.641',0.79
'0:03.645',0.7
'0:03.648',0.53
'0:03.652',0.46
'0:03.656',0.36
'0:03.660',0.21
'0:03.664',-0.09
'0:03.668',-0.57
'0:03.672',-1.01
'0:03.676',-1.11
'0:03.680',-1.29
'0:03.684',-1.59
'0:03.688',-2.26
'0:03.691',-2.66
'0:03.695',-2.72
'0:03.699',-3.07
'0:03.703',-3.62
'0:03.707',-4.42
'0:03.711',-5.16
'0:03.715',-5.18
'0:03.719',-4.5
'0:03.723',-3
'0:03.727',-0.79
'0:03.730',1.51
'0:03.734',4.1
'0:03.738',6.25
'0:03.742',5.09
'0:03.746',1.03
'0:03.750',-2.9
'0:03.754',-5.93
'0:03.758',-8.1
'0:03.762',-9.7
'0:03.766',-10.83
'0:03.770',-10.71
'0:03.773',-9.54
'0:03.777',-8.05
'0:03.781',-6.5
'0:03.785',-5.09
'0:03.789',-3.87
'0:03.793',-2.76
'0:03.797',-1.84
'0:03.801',-1.06
'0:03.805',-0.45
'0:03.809',0.06
'0:03.813',0.42
'0:03.816',0.65
'0:03.820',0.78
'0:03.824',0.7
'0:03.828',0.72
'0:03.832',0.89
'0:03.836',1.2
'0:03.840',1.71
'0:03.844',2.02
'0:03.848',2.2
'0:03.852',2.49
'0:03.855',2.71
'0:03.859',2.78
'0:03.863',3
'0:03.867',3.43
'0:03.871',3.38
'0:03.875',3.27
'0:03.879',3.34
'0:03.883',3.01
'0:03.887',2.5
'0:03.891',2.11
'0:03.895',1.99
'0:03.898',1.73
'0:03.902',1.45
'0:03.906',1.46
'0:03.910',1.49
'0:03.914',1.56
'0:03.918',1.61
'0:03.922',1.7
'0:03.926',1.92
'0:03.930',2.02
'0:03.934',1.92
'0:03.938',1.66
'0:03.941',1.6
'0:03.945',1.37
'0:03.949',0.84
'0:03.953',0.33
'0:03.957',-0.14
'0:03.961',-0.35
'0:03.965',-0.42
'0:03.969',-0.68
'0:03.973',-1.07
'0:03.977',-1.57
'0:03.980',-2.07
'0:03.984',-2.29
'0:03.988',-2.02
'0:03.992',-1.58
'0:03.996',-1.44
'0:04.000',-1.36
'0:04.004',-1.48
'0:04.008',-1.97
'0:04.012',-2.14
'0:04.016',-1.61
'0:04.020',-0.06
'0:04.023',2.44
'0:04.027',5.65
'0:04.031',8.94
'0:04.035',11.7
'0:04.039',11.31
'0:04.043',6.21
'0:04.047',0.33
'0:04.051',-3.47
'0:04.055',-5.82
'0:04.059',-7.46
'0:04.063',-8.59
'0:04.066',-9.01
'0:04.070',-8.5
'0:04.074',-7.46
'0:04.078',-6.18
'0:04.082',-4.51
'0:04.086',-2.76
'0:04.090',-1.42
'0:04.094',-0.58
'0:04.098',0.15
'0:04.102',0.76
'0:04.105',0.94
'0:04.109',1.02
'0:04.113',1.42
'0:04.117',1.79
'0:04.121',2.33
'0:04.125',2.93
'0:04.129',2.93
'0:04.133',2.4
'0:04.137',2.26
'0:04.141',3.44
'0:04.145',4.74
'0:04.148',5.6
'0:04.152',6.22
'0:04.156',6.62
'0:04.160',7.22
'0:04.164',7.15
'0:04.168',6.99
'0:04.172',6.81
'0:04.176',6.57
'0:04.180',6.36
'0:04.184',6.29
'0:04.188',5.69
'0:04.191',4.48
'0:04.195',3.68
'0:04.199',3.43
'0:04.203',3.69
'0:04.207',3.67
'0:04.211',3.14
'0:04.215',3.16
'0:04.219',3.02
'0:04.223',2.6
'0:04.227',2.38
'0:04.230',2.66
'0:04.234',2.14
'0:04.238',1.36
'0:04.242',1.19
'0:04.246',0.87
'0:04.250',0.76
'0:04.254',0.65
'0:04.258',0.01
'0:04.262',-0.02
'0:04.266',-0.31
'0:04.270',-0.73
'0:04.273',-0.83
'0:04.277',-1.96
'0:04.281',-3.05
'0:04.285',-2.91
'0:04.289',-2.19
'0:04.293',-2.55
'0:04.297',-2.92
'0:04.301',-3.07
'0:04.305',-3.67
'0:04.309',-2.8
'0:04.313',-1.71
'0:04.316',-0.4
'0:04.320',1.5
'0:04.324',4.77
'0:04.328',8.25
'0:04.332',11.26
'0:04.336',11.36
'0:04.340',7.13
'0:04.344',0.59
'0:04.348',-4.62
'0:04.352',-7.91
'0:04.355',-10.09
'0:04.359',-11.11
'0:04.363',-11.46
'0:04.367',-10.51
'0:04.371',-10.06
'0:04.375',-9.77
'0:04.379',-7.98
'0:04.383',-6.81
'0:04.387',-5.9
'0:04.391',-4.69
'0:04.395',-2.89
'0:04.398',-2.35
'0:04.402',-2.66
'0:04.406',-2.56
'0:04.410',-2.17
'0:04.414',-1.65
'0:04.418',-1.47
'0:04.422',-1.03
'0:04.426',-0.62
'0:04.430',-0.54
'0:04.434',-0.98
'0:04.438',-1.24
'0:04.441',-0.81
'0:04.445',0
'0:04.449',0.63
'0:04.453',1.19
'0:04.457',1.21
'0:04.461',0.5
'0:04.465',0.15
'0:04.469',0.2
'0:04.473',0.16
'0:04.477',0.17
'0:04.480',0
'0:04.484',-0.25
'0:04.488',-0.36
'0:04.492',-0.61
'0:04.496',-1.32
'0:04.500',-1.83
'0:04.504',-1.88
'0:04.508',-1.6
'0:04.512',-1.41
'0:04.516',-1.39
'0:04.520',-1.17
'0:04.523',-0.99
'0:04.527',-0.61
'0:04.531',-0.09
'0:04.535',0.15
'0:04.539',0.16
'0:04.543',-0.06
'0:04.547',0.09
'0:04.551',0.18
'0:04.555',0
'0:04.559',-0.47
'0:04.563',-1.26
'0:04.566',-2.03
'0:04.570',-2.58
'0:04.574',-2.86
'0:04.578',-3.06
'0:04.582',-3.3
'0:04.586',-3.3
'0:04.590',-2.88
'0:04.594',-2.47
'0:04.598',-2.42
'0:04.602',-2.78
'0:04.605',-3.09
'0:04.609',-2.97
'0:04.613',-2.17
'0:04.617',-0.59
'0:04.621',1.83
'0:04.625',5.09
'0:04.629',8.46
'0:04.633',11.31
'0:04.637',10.81
'0:04.641',5.65
'0:04.645',-0.39
'0:04.648',-4.87
'0:04.652',-7.69
'0:04.656',-9.5
'0:04.660',-10.85
'0:04.664',-11.45
'0:04.668',-10.81
'0:04.672',-9.15
'0:04.676',-7.51
'0:04.680',-6.05
'0:04.684',-4.53
'0:04.688',-3.06
'0:04.691',-2.1
'0:04.695',-1.15
'0:04.699',-0.27
'0:04.703',0.14
'0:04.707',0.51
'0:04.711',1.04
'0:04.715',1.49
'0:04.719',1.86
'0:04.723',2.11
'0:04.727',2.22
'0:04.730',2.34
'0:04.734',2.48
'0:04.738',2.53
'0:04.742',2.86
'0:04.746',3.34
'0:04.750',3.64
'0:04.754',3.78
'0:04.758',3.71
'0:04.762',3.61
'0:04.766',3.61
'0:04.770',3.66
'0:04.773',3.61
'0:04.777',3.25
'0:04.781',2.9
'0:04.785',2.45
'0:04.789',2.09
'0:04.793',1.87
'0:04.797',1.73
'0:04.801',1.64
'0:04.805',1.55
'0:04.809',1.11
'0:04.813',0.83
'0:04.816',1.07
'0:04.820',1.6
'0:04.824',1.81
'0:04.828',1.91
'0:04.832',1.93
'0:04.836',2.03
'0:04.840',1.9
'0:04.844',1.45
'0:04.848',1.11
'0:04.852',0.99
'0:04.855',0.58
'0:04.859',-0.21
'0:04.863',-1.13
'0:04.867',-1.82
'0:04.871',-2.2
'0:04.875',-2.33
'0:04.879',-2.66
'0:04.883',-3.46
'0:04.887',-4
'0:04.891',-3.8
'0:04.895',-3.15
'0:04.898',-2.83
'0:04.902',-3
'0:04.906',-3.1
'0:04.910',-2.7
'0:04.914',-1.5
'0:04.918',0.22
'0:04.922',2.26
'0:04.926',5.21
'0:04.930',8.64
'0:04.934',10.15
'0:04.938',7.16
'0:04.941',1.9
'0:04.945',-2.77
'0:04.949',-6.58
'0:04.953',-8.85
'0:04.957',-9.41
'0:04.961',-9.19
'0:04.965',-8.29
'0:04.969',-6.95
'0:04.973',-5.49
'0:04.977',-3.94
'0:04.980',-2.41
'0:04.984',-1.09
'0:04.988',0.16
'0:04.992',1
'0:04.996',0.98
'0:05.000',0.92
'0:05.004',1.34
'0:05.008',1.99
'0:05.012',2.51
'0:05.016',2.99
'0:05.020',3.09
'0:05.023',2.78
'0:05.027',2.61
'0:05.031',2.65
'0:05.035',2.96
'0:05.039',3.44
'0:05.043',3.74
'0:05.047',3.68
'0:05.051',4.01
'0:05.055',4.75
'0:05.059',5.55
'0:05.063',5.83
'0:05.066',5.45
'0:05.070',5.08
'0:05.074',4.71
'0:05.078',4.14
'0:05.082',3.62
'0:05.086',3.18
'0:05.090',3.02
'0:05.094',3.33
'0:05.098',3.75
'0:05.102',3.62
'0:05.105',3.23
'0:05.109',2.79
'0:05.113',2.7
'0:05.117',2.92
'0:05.121',3.23
'0:05.125',3.22
'0:05.129',2.79
'0:05.133',2.26
'0:05.137',1.89
'0:05.141',1.61
'0:05.145',1.33
'0:05.148',0.98
'0:05.152',0.6
'0:05.156',0.21
'0:05.160',-0.37
'0:05.164',-1.26
'0:05.168',-2.06
'0:05.172',-2.4
'0:05.176',-2.61
'0:05.180',-2.45
'0:05.184',-2.14
'0:05.188',-1.95
'0:05.191',-1.99
'0:05.195',-2.08
'0:05.199',-2.41
'0:05.203',-2.81
'0:05.207',-2.48
'0:05.211',-1.24
'0:05.215',0.91
'0:05.219',3.52
'0:05.223',6.06
'0:05.227',8.36
'0:05.230',9.18
'0:05.234',5.82
'0:05.238',0.31
'0:05.242',-4.14
'0:05.246',-7.18
'0:05.250',-9.28
'0:05.254',-10.72
'0:05.258',-11.33
'0:05.262',-10.96
'0:05.266',-9.8
'0:05.270',-8.18
'0:05.273',-6.41
'0:05.277',-4.77
'0:05.281',-3.36
'0:05.285',-2.33
'0:05.289',-1.75
'0:05.293',-1.33
'0:05.297',-1.1
'0:05.301',-0.96
'0:05.305',-0.72
'0:05.309',-0.52
'0:05.313',-0.3
'0:05.316',0.04
'0:05.320',0.54
'0:05.324',0.95
'0:05.328',1.36
'0:05.332',1.88
'0:05.336',2.44
'0:05.340',3.14
'0:05.344',3.47
'0:05.348',3.43
'0:05.352',3.16
'0:05.355',3.14
'0:05.359',3.4
'0:05.363',3.48
'0:05.367',3.31
'0:05.371',2.99
'0:05.375',2.74
'0:05.379',2.42
'0:05.383',1.86
'0:05.387',1.35
'0:05.391',0.79
'0:05.395',0.4
'0:05.398',0.1
'0:05.402',-0.1
'0:05.406',-0.48
'0:05.410',-0.87
'0:05.414',-1.19
'0:05.418',-1.05
'0:05.422',-0.6
'0:05.426',-0.27
'0:05.430',-0.12
'0:05.434',-0.18
'0:05.438',-0.52
'0:05.441',-1.1
'0:05.445',-1.47
'0:05.449',-1.51
'0:05.453',-1.68
'0:05.457',-2.17
'0:05.461',-2.58
'0:05.465',-3.08
'0:05.469',-3.89
'0:05.473',-4.81
'0:05.477',-5.03
'0:05.480',-4.5
'0:05.484',-3.74
'0:05.488',-3.26
'0:05.492',-3.04
'0:05.496',-3.29
'0:05.500',-3.39
'0:05.504',-3.14
'0:05.508',-2.39
'0:05.512',-0.43
'0:05.516',2.07
'0:05.520',4.86
'0:05.523',7.49
'0:05.527',9.17
'0:05.531',6.87
'0:05.535',1.74
'0:05.539',-2.84
'0:05.543',-6.03
'0:05.547',-8.07
'0:05.551',-9.23
'0:05.555',-9.88
'0:05.559',-9.87
'0:05.563',-9.3
'0:05.566',-8.03
'0:05.570',-6.22
'0:05.574',-3.92
'0:05.578',-1.93
'0:05.582',-1.15
'0:05.586',-0.77
'0:05.590',-0.23
'0:05.594',0.73
'0:05.598',2.05
'0:05.602',2.42
'0:05.605',2.24
'0:05.609',1.77
'0:05.613',1.51
'0:05.617',1.75
'0:05.621',1.98
'0:05.625',2.6
'0:05.629',3.35
'0:05.633',4
'0:05.637',4.1
'0:05.641',4.2
'0:05.645',3.92
'0:05.648',4
'0:05.652',4.28
'0:05.656',3.99
'0:05.660',3.4
'0:05.664',2.89
'0:05.668',3.04
'0:05.672',2.99
'0:05.676',2.81
'0:05.680',2.78
'0:05.684',2.06
'0:05.688',0.93
'0:05.691',0.59
'0:05.695',0.84
'0:05.699',1.4
'0:05.703',1.27
'0:05.707',0.72
'0:05.711',0.37
'0:05.715',0.79
'0:05.719',1.37
'0:05.723',1.9
'0:05.727',2.32
'0:05.730',1.88
'0:05.734',1.19
'0:05.738',0.81
'0:05.742',0.41
'0:05.746',0.48
'0:05.750',0.4
'0:05.754',-0.17
'0:05.758',-0.85
'0:05.762',-1.51
'0:05.766',-1.63
'0:05.770',-1.87
'0:05.773',-2.52
'0:05.777',-2.77
'0:05.781',-2.61
'0:05.785',-2.39
'0:05.789',-2.53
'0:05.793',-2.67
'0:05.797',-2.67
'0:05.801',-2.47
'0:05.805',-1.87
'0:05.809',-0.84
'0:05.813',0.76
'0:05.816',3.44
'0:05.820',7.09
'0:05.824',10.55
'0:05.828',10.86
'0:05.832',6.04
'0:05.836',-0.12
'0:05.840',-4.55
'0:05.844',-7.05
'0:05.848',-8.61
'0:05.852',-9.66
'0:05.855',-9.9
'0:05.859',-9.5
'0:05.863',-8.63
'0:05.867',-7.28
'0:05.871',-5.47
'0:05.875',-3.6
'0:05.879',-2.15
'0:05.883',-1.16
'0:05.887',-0.56
'0:05.891',-0.17
'0:05.895',0.46
'0:05.898',1.1
'0:05.902',1.56
'0:05.906',1.69
'0:05.910',1.46
'0:05.914',1.28
'0:05.918',1.41
'0:05.922',1.64
'0:05.926',1.78
'0:05.930',2.12
'0:05.934',2.8
'0:05.938',3.21
'0:05.941',3.21
'0:05.945',3.27
'0:05.949',3.56
'0:05.953',3.88
'0:05.957',3.68
'0:05.961',3.32
'0:05.965',2.96
'0:05.969',2.31
'0:05.973',1.75
'0:05.977',1.86
'0:05.980',1.94
'0:05.984',1.77
'0:05.988',1.61
'0:05.992',1.53
'0:05.996',1.28
'0:06.000',1.05
'0:06.004',0.97
'0:06.008',0.77
'0:06.012',0.84
'0:06.016',1.46
'0:06.020',1.91
'0:06.023',2.24
'0:06.027',2.15
'0:06.031',1.6
'0:06.035',1.23
'0:06.039',1.13
'0:06.043',0.97
'0:06.047',0.43
'0:06.051',-0.36
'0:06.055',-1.03
'0:06.059',-1.46
'0:06.063',-1.74
'0:06.066',-1.96
'0:06.070',-2.31
'0:06.074',-2.66
'0:06.078',-2.8
'0:06.082',-2.84
'0:06.086',-2.97
'0:06.090',-3.02
'0:06.094',-3.3
'0:06.098',-3.82
'0:06.102',-4.09
'0:06.105',-3.65
'0:06.109',-2.53
'0:06.113',-0.61
'0:06.117',2.12
'0:06.121',5.3
'0:06.125',8.83
'0:06.129',10.38
'0:06.133',7.06
'0:06.137',1.31
'0:06.141',-3.54
'0:06.145',-6.74
'0:06.148',-9.01
'0:06.152',-10.67
'0:06.156',-11.34
'0:06.160',-10.98
'0:06.164',-9.99
'0:06.168',-8.69
'0:06.172',-7.22
'0:06.176',-5.53
'0:06.180',-3.86
'0:06.184',-2.43
'0:06.188',-1.5
'0:06.191',-0.84
'0:06.195',-0.29
'0:06.199',0.18
'0:06.203',0.47
'0:06.207',1.02
'0:06.211',1.38
'0:06.215',1.29
'0:06.219',0.96
'0:06.223',0.93
'0:06.227',0.93
'0:06.230',0.99
'0:06.234',1.43
'0:06.238',2.3
'0:06.242',2.78
'0:06.246',2.83
'0:06.250',3.03
'0:06.254',3.82
'0:06.258',4.8
'0:06.262',5.49
'0:06.266',5.85
'0:06.270',5.64
'0:06.273',5.01
'0:06.277',4.62
'0:06.281',4.4
'0:06.285',3.99
'0:06.289',3.63
'0:06.293',3.41
'0:06.297',3.23
'0:06.301',3.15
'0:06.305',3.23
'0:06.309',3.52
'0:06.313',3.66
'0:06.316',3.68
'0:06.320',3.5
'0:06.324',3.27
'0:06.328',2.99
'0:06.332',2.71
'0:06.336',2.43
'0:06.340',2.18
'0:06.344',2.02
'0:06.348',1.7
'0:06.352',1.43
'0:06.355',1.13
'0:06.359',0.51
'0:06.363',-0.1
'0:06.367',-0.3
'0:06.371',-0.5
'0:06.375',-0.67
'0:06.379',-0.65
'0:06.383',-0.63
'0:06.387',-0.65
'0:06.391',-0.99
'0:06.395',-1.68
'0:06.398',-2.13
'0:06.402',-1.99
'0:06.406',-0.93
'0:06.410',1.09
'0:06.414',3.84
'0:06.418',6.9
'0:06.422',9.89
'0:06.426',10.95
'0:06.430',10.94
'0:06.434',2.91
'0:06.438',-1.93
'0:06.441',-5.85
'0:06.445',-8.53
'0:06.449',-10.08
'0:06.453',-10.62
'0:06.457',-10.21
'0:06.461',-9.22
'0:06.465',-7.95
'0:06.469',-6.19
'0:06.473',-4.28
'0:06.477',-2.66
'0:06.480',-1.16
'0:06.484',-0.01
'0:06.488',0.64
'0:06.492',1.01
'0:06.496',1.19
'0:06.500',1.18
'0:06.504',1.17
'0:06.508',1.34
'0:06.512',1.55
'0:06.516',1.86
'0:06.520',2.2
'0:06.523',2.58
'0:06.527',2.96
'0:06.531',3.31
'0:06.535',3.53
'0:06.539',3.87
'0:06.543',4.05
'0:06.547',4.19
'0:06.551',4.36
'0:06.555',4.56
'0:06.559',4.68
'0:06.563',4.18
'0:06.566',3.59
'0:06.570',3.22
'0:06.574',2.78
'0:06.578',2.3
'0:06.582',1.97
'0:06.586',1.61
'0:06.590',0.97
'0:06.594',0.16
'0:06.598',-0.07
'0:06.602',0.18
'0:06.605',0.49
'0:06.609',0.79
'0:06.613',1.15
'0:06.617',1.32
'0:06.621',1.28
'0:06.625',0.88
'0:06.629',0.7
'0:06.633',0.82
'0:06.637',0.81
'0:06.641',0.85
'0:06.645',0.76
'0:06.648',0.33
'0:06.652',-0.42
'0:06.656',-0.94
'0:06.660',-1.28
'0:06.664',-1.66
'0:06.668',-1.49
'0:06.672',-1.61
'0:06.676',-2.21
'0:06.680',-2.76
'0:06.684',-2.78
'0:06.688',-2.68
'0:06.691',-2.52
'0:06.695',-2.52
'0:06.699',-2.54
'0:06.703',-1.87
'0:06.707',-0.29
'0:06.711',1.76
'0:06.715',4.39
'0:06.719',7.33
'0:06.723',9.93
'0:06.727',8.96
'0:06.730',3.82
'0:06.734',-1.52
'0:06.738',-5.21
'0:06.742',-7.81
'0:06.746',-9.48
'0:06.750',-10.5
'0:06.754',-10.5
'0:06.758',-9.91
'0:06.762',-8.81
'0:06.766',-7.46
'0:06.770',-5.98
'0:06.773',-3.97
'0:06.777',-2.55
'0:06.781',-1.65
'0:06.785',-1.53
'0:06.789',-1.52
'0:06.793',-1.45
'0:06.797',-0.91
'0:06.801',-0.22
'0:06.805',0.51
'0:06.809',0.52
'0:06.813',-0.32
'0:06.816',-0.52
'0:06.820',-0.53
'0:06.824',-0.42
'0:06.828',0.04
'0:06.832',0.66
'0:06.836',0.58
'0:06.840',0.47
'0:06.844',1.3
'0:06.848',2.2
'0:06.852',2.19
'0:06.855',1.92
'0:06.859',1.71
'0:06.863',1.52
'0:06.867',1.6
'0:06.871',1.49
'0:06.875',0.62
'0:06.879',-0.14
'0:06.883',-0.65
'0:06.887',-0.69
'0:06.891',-0.17
'0:06.895',0.29
'0:06.898',-0.12
'0:06.902',-0.45
'0:06.906',-0.45
'0:06.910',0.19
'0:06.914',0.73
'0:06.918',0.75
'0:06.922',0.94
'0:06.926',1.02
'0:06.930',0.9
'0:06.934',0.51
'0:06.938',-0.31
'0:06.941',-0.5
'0:06.945',-0.23
'0:06.949',-0.8
'0:06.953',-1.31
'0:06.957',-1.73
'0:06.961',-2.16
'0:06.965',-2.71
'0:06.969',-2.8
'0:06.973',-3.03
'0:06.977',-3.12
'0:06.980',-3.03
'0:06.984',-3.11
'0:06.988',-3.28
'0:06.992',-3.5
'0:06.996',-3.45
'0:07.000',-2.52
'0:07.004',-1.29
'0:07.008',0.31
'0:07.012',3.09
'0:07.016',7.01
'0:07.020',10.57
'0:07.023',11.62
'0:07.027',8.07
'0:07.031',2.29
'0:07.035',-2.56
'0:07.039',-5.89
'0:07.043',-8.06
'0:07.047',-9.38
'0:07.051',-10.03
'0:07.055',-9.84
'0:07.059',-8.94
'0:07.063',-7.57
'0:07.066',-6.22
'0:07.070',-4.88
'0:07.074',-3.55
'0:07.078',-2.43
'0:07.082',-1.5
'0:07.086',-0.87
'0:07.090',-0.43
'0:07.094',-0.03
'0:07.098',0.18
'0:07.102',0.22
'0:07.105',0.46
'0:07.109',0.82
'0:07.113',1.06
'0:07.117',1.47
'0:07.121',1.78
'0:07.125',2
'0:07.129',2.24
'0:07.133',2.47
'0:07.137',2.87
'0:07.141',3.27
'0:07.145',3.67
'0:07.148',3.71
'0:07.152',3.56
'0:07.156',3.31
'0:07.160',2.74
'0:07.164',2.28
'0:07.168',2.04
'0:07.172',1.92
'0:07.176',1.65
'0:07.180',1.43
'0:07.184',1.13
'0:07.188',0.59
'0:07.191',0.3
'0:07.195',0.26
'0:07.199',0.25
'0:07.203',0.43
'0:07.207',0.79
'0:07.211',1.18
'0:07.215',1.3
'0:07.219',1.04
'0:07.223',0.72
'0:07.227',0.83
'0:07.230',0.88
'0:07.234',0.84
'0:07.238',0.63
'0:07.242',0.26
'0:07.246',-0.17
'0:07.250',-0.54
'0:07.254',-1.09
'0:07.258',-1.82
'0:07.262',-2.32
'0:07.266',-2.74
'0:07.270',-2.87
'0:07.273',-2.64
'0:07.277',-2.62
'0:07.281',-2.74
'0:07.285',-3
'0:07.289',-3.37
'0:07.293',-3.69
'0:07.297',-3.91
'0:07.301',-3.66
'0:07.305',-2.3
'0:07.309',0.18
'0:07.313',3.61
'0:07.316',7.06
'0:07.320',9.77
'0:07.324',10.06
'0:07.328',6.25
'0:07.332',0.56
'0:07.336',-3.99
'0:07.340',-6.44
'0:07.344',-7.71
'0:07.348',-8.98
'0:07.352',-9.96
'0:07.355',-9.9
'0:07.359',-9.02
'0:07.363',-7.92
'0:07.367',-6.3
'0:07.371',-4.62
'0:07.375',-3.45
'0:07.379',-2.72
'0:07.383',-1.98
'0:07.387',-1.01
'0:07.391',-0.26
'0:07.395',0.1
'0:07.398',0.26
'0:07.402',0.71
'0:07.406',1.38
'0:07.410',1.32
'0:07.414',0.96
'0:07.418',1.66
'0:07.422',2.82
'0:07.426',3.71
'0:07.430',4.55
'0:07.434',5.13
'0:07.438',5.24
'0:07.441',5.24
'0:07.445',5.27
'0:07.449',5.31
'0:07.453',5.17
'0:07.457',4.98
'0:07.461',4.72
'0:07.465',4.4
'0:07.469',4.49
'0:07.473',4.38
'0:07.477',3.97
'0:07.480',3.3
'0:07.484',2.84
'0:07.488',2.78
'0:07.492',2.64
'0:07.496',2.49
'0:07.500',2.86
'0:07.504',3.31
'0:07.508',3.51
'0:07.512',3.4
'0:07.516',3.34
'0:07.520',3.59
'0:07.523',3.57
'0:07.527',3.4
'0:07.531',3.09
'0:07.535',2.76
'0:07.539',2.36
'0:07.543',1.82
'0:07.547',1.41
'0:07.551',0.79
'0:07.555',0.13
'0:07.559',-0.39
'0:07.563',-0.72
'0:07.566',-0.86
'0:07.570',-0.82
'0:07.574',-0.8
'0:07.578',-0.88
'0:07.582',-1.23
'0:07.586',-1.65
'0:07.590',-2.22
'0:07.594',-2.48
'0:07.598',-2.21
'0:07.602',-1.05
'0:07.605',0.9
'0:07.609',3.47
'0:07.613',6.25
'0:07.617',8.68
'0:07.621',8.78
'0:07.625',8.78
'0:07.629',8.78
'0:07.633',-6.53
'0:07.637',-9.34
'0:07.641',-11.28
'0:07.645',-12.28
'0:07.648',-12.1
'0:07.652',-11.03
'0:07.656',-9.41
'0:07.660',-7.68
'0:07.664',-5.88
'0:07.668',-4.34
'0:07.672',-3.18
'0:07.676',-2.29
'0:07.680',-1.62
'0:07.684',-1.18
'0:07.688',-0.86
'0:07.691',-0.59
'0:07.695',-0.42
'0:07.699',-0.14
'0:07.703',0.35
'0:07.707',0.77
'0:07.711',1.14
'0:07.715',1.39
'0:07.719',1.55
'0:07.723',1.8
'0:07.727',2.19
'0:07.730',2.65
'0:07.734',2.97
'0:07.738',3.24
'0:07.742',3.46
'0:07.746',3.44
'0:07.750',3.3
'0:07.754',2.94
'0:07.758',2.67
'0:07.762',2.47
'0:07.766',2.23
'0:07.770',1.96
'0:07.773',1.46
'0:07.777',0.9
'0:07.781',0.34
'0:07.785',0.06
'0:07.789',0.09
'0:07.793',0.32
'0:07.797',0.58
'0:07.801',0.87
'0:07.805',1.52
'0:07.809',2.27
'0:07.813',2.63
'0:07.816',2.41
'0:07.820',2.15
'0:07.824',1.98
'0:07.828',1.69
'0:07.832',1.27
'0:07.836',0.66
'0:07.840',0.03
'0:07.844',-0.66
'0:07.848',-1.29
'0:07.852',-1.93
'0:07.855',-2.48
'0:07.859',-2.93
'0:07.863',-3.11
'0:07.867',-3.01
'0:07.871',-2.66
'0:07.875',-2.63
'0:07.879',-2.73
'0:07.883',-3.02
'0:07.887',-3.28
'0:07.891',-3.01
'0:07.895',-2.25
'0:07.898',-0.96
'0:07.902',1.05
'0:07.906',3.43
'0:07.910',6.5
'0:07.914',9.85
'0:07.918',10.27
'0:07.922',6.09
'0:07.926',0.24
'0:07.930',-4.04
'0:07.934',-6.97
'0:07.938',-9.15
'0:07.941',-10.47
'0:07.945',-10.49
'0:07.949',-9.31
'0:07.953',-7.45
'0:07.957',-5.97
'0:07.961',-4.46
'0:07.965',-2.73
'0:07.969',-1.43
'0:07.973',-0.46
'0:07.977',0.18
'0:07.980',0.46
'0:07.984',0.49
'0:07.988',0.56
'0:07.992',1.2
'0:07.996',1.47
'0:08.000',1.25
'0:08.004',1.41
'0:08.008',1.79
'0:08.012',2.04
'0:08.016',2.4
'0:08.020',2.68
'0:08.023',3.08
'0:08.027',3.78
'0:08.031',3.99
'0:08.035',3.64
'0:08.039',3.7
'0:08.043',3.74
'0:08.047',3.52
'0:08.051',3.38
'0:08.055',3.29
'0:08.059',3.11
'0:08.063',2.89
'0:08.066',2.39
'0:08.070',1.86
'0:08.074',1.74
'0:08.078',1.55
'0:08.082',1.23
'0:08.086',1.33
'0:08.090',1.68
'0:08.094',1.36
'0:08.098',0.99
'0:08.102',0.98
'0:08.105',1.02
'0:08.109',0.95
'0:08.113',1.16
'0:08.117',1.69
'0:08.121',2.04
'0:08.125',1.77
'0:08.129',1.03
'0:08.133',0.47
'0:08.137',0.49
'0:08.141',0.34
'0:08.145',-0.45
'0:08.148',-1.26
'0:08.152',-2.21
'0:08.156',-2.84
'0:08.160',-2.99
'0:08.164',-3.21
'0:08.168',-3.29
'0:08.172',-2.7
'0:08.176',-2.22
'0:08.180',-2.14
'0:08.184',-2.18
'0:08.188',-2.26
'0:08.191',-2.2
'0:08.195',-1.49
'0:08.199',0.35
'0:08.203',3.16
'0:08.207',6.79
'0:08.211',10.51
'0:08.215',13.05
'0:08.219',11.24
'0:08.223',5.89
'0:08.227',0.9
'0:08.230',-2.65
'0:08.234',-5.26
'0:08.238',-7.42
'0:08.242',-8.65
'0:08.246',-8.54
'0:08.250',-7.35
'0:08.254',-6.5
'0:08.258',-5.95
'0:08.262',-4.7
'0:08.266',-3.09
'0:08.270',-2.12
'0:08.273',-1.45
'0:08.277',-1.08
'0:08.281',-0.95
'0:08.285',-0.79
'0:08.289',-0.56
'0:08.293',-0.25
'0:08.297',0.1
'0:08.301',0.66
'0:08.305',1.33
'0:08.309',1.64
'0:08.313',1.59
'0:08.316',1.65
'0:08.320',2.02
'0:08.324',2.1
'0:08.328',2.13
'0:08.332',2.31
'0:08.336',2.48
'0:08.340',2.61
'0:08.344',2.8
'0:08.348',2.8
'0:08.352',2.76
'0:08.355',2.64
'0:08.359',2.19
'0:08.363',1.4
'0:08.367',1.15
'0:08.371',1.18
'0:08.375',1.2
'0:08.379',0.88
'0:08.383',0.29
'0:08.387',-0.21
'0:08.391',-0.15
'0:08.395',0.28
'0:08.398',0.61
'0:08.402',0.56
'0:08.406',0.56
'0:08.410',0.76
'0:08.414',0.81
'0:08.418',0.96
'0:08.422',0.91
'0:08.426',0.58
'0:08.430',0.05
'0:08.434',-0.33
'0:08.438',-0.55
'0:08.441',-1.05
'0:08.445',-1.66
'0:08.449',-2.06
'0:08.453',-2.28
'0:08.457',-2.5
'0:08.461',-2.81
'0:08.465',-3.03
'0:08.469',-3.18
'0:08.473',-3.3
'0:08.477',-3.5
'0:08.480',-3.81
'0:08.484',-4.34
'0:08.488',-5.04
'0:08.492',-5.11
'0:08.496',-3.81
'0:08.500',-1.52
'0:08.504',1.13
'0:08.508',4.03
'0:08.512',7
'0:08.516',9.06
'0:08.520',7.01
'0:08.523',1.58
'0:08.527',-3.25
'0:08.531',-6.58
'0:08.535',-8.8
'0:08.539',-10.6
'0:08.543',-11.44
'0:08.547',-11.01
'0:08.551',-10.01
'0:08.555',-8.67
'0:08.559',-7.07
'0:08.563',-5.39
'0:08.566',-3.66
'0:08.570',-2.44
'0:08.574',-1.6
'0:08.578',-0.99
'0:08.582',-0.68
'0:08.586',-0.28
'0:08.590',0.34
'0:08.594',0.77
'0:08.598',1.11
'0:08.602',1.34
'0:08.605',1.69
'0:08.609',2.62
'0:08.613',3.52
'0:08.617',3.91
'0:08.621',3.98
'0:08.625',3.78
'0:08.629',3.85
'0:08.633',3.9
'0:08.637',3.44
'0:08.641',3.03
'0:08.645',3.31
'0:08.648',3.49
'0:08.652',3.32
'0:08.656',3.06
'0:08.660',2.89
'0:08.664',2.58
'0:08.668',2.25
'0:08.672',2.01
'0:08.676',1.86
'0:08.680',1.77
'0:08.684',1.68
'0:08.688',1.59
'0:08.691',1.3
'0:08.695',1.24
'0:08.699',1.5
'0:08.703',1.83
'0:08.707',2.02
'0:08.711',2.1
'0:08.715',2.04
'0:08.719',1.82
'0:08.723',1.5
'0:08.727',1.21
'0:08.730',0.63
'0:08.734',0.12
'0:08.738',-0.39
'0:08.742',-1.05
'0:08.746',-1.73
'0:08.750',-2.25
'0:08.754',-2.63
'0:08.758',-2.77
'0:08.762',-2.99
'0:08.766',-3.04
'0:08.770',-3
'0:08.773',-2.86
'0:08.777',-2.65
'0:08.781',-2.76
'0:08.785',-3.19
'0:08.789',-3.52
'0:08.793',-2.93
'0:08.797',-1.59
'0:08.801',0.54
'0:08.805',3.23
'0:08.809',6.29
'0:08.813',9.04
'0:08.816',9.02
'0:08.820',4.75
'0:08.824',-0.65
'0:08.828',-4.42
'0:08.832',-6.81
'0:08.836',-8.59
'0:08.840',-9.84
'0:08.844',-10.19
'0:08.848',-9.55
'0:08.852',-8.11
'0:08.855',-6.18
'0:08.859',-4.01
'0:08.863',-2.24
'0:08.867',-1.03
'0:08.871',-0.12
'0:08.875',0.73
'0:08.879',1.42
'0:08.883',1.75
'0:08.887',1.84
'0:08.891',2.28
'0:08.895',2.82
'0:08.898',3.26
'0:08.902',3.57
'0:08.906',3.76
'0:08.910',3.58
'0:08.914',3.32
'0:08.918',3.22
'0:08.922',3.2
'0:08.926',3.57
'0:08.930',4.18
'0:08.934',4.16
'0:08.938',3.65
'0:08.941',3.33
'0:08.945',3.04
'0:08.949',2.62
'0:08.953',2.3
'0:08.957',1.92
'0:08.961',1.36
'0:08.965',0.78
'0:08.969',0.52
'0:08.973',0.21
'0:08.977',-0.15
'0:08.980',-0.33
'0:08.984',0
'0:08.988',0.48
'0:08.992',0.79
'0:08.996',1.11
'0:09.000',1.4
'0:09.004',1.65
'0:09.008',1.97
'0:09.012',2.08
'0:09.016',2.12
'0:09.020',2.08
'0:09.023',1.96
'0:09.027',1.6
'0:09.031',1.24
'0:09.035',1.01
'0:09.039',0.65
'0:09.043',0.34
'0:09.047',-0.19
'0:09.051',-0.92
'0:09.055',-1.7
'0:09.059',-2.42
'0:09.063',-2.65
'0:09.066',-2.85
'0:09.070',-3.15
'0:09.074',-3.66
'0:09.078',-4.12
'0:09.082',-4.63
'0:09.086',-5.23
'0:09.090',-5.26
'0:09.094',-4.49
'0:09.098',-2.74
'0:09.102',-1.23
'0:09.105',1.5
'0:09.109',4.24
'0:09.113',7.02
'0:09.117',7.69
'0:09.121',4.47
'0:09.125',-0.13
'0:09.129',-3.78
'0:09.133',-6.21
'0:09.137',-7.93
'0:09.141',-9.14
'0:09.145',-9.77
'0:09.148',-9.7
'0:09.152',-8.76
'0:09.156',-7.83
'0:09.160',-4.62
'0:09.164',-3.31
'0:09.168',-2.38
'0:09.172',-1.65
'0:09.176',-0.97
'0:09.180',-0.33
'0:09.184',0.21
'0:09.188',0.55
'0:09.191',0.79
'0:09.195',0.97
'0:09.199',1.19
'0:09.203',1.34
'0:09.207',1.61
'0:09.211',1.8
'0:09.215',1.95
'0:09.219',2.17
'0:09.223',2.41
'0:09.227',2.61
'0:09.230',2.8
'0:09.234',2.97
'0:09.238',3.14
'0:09.242',3.48
'0:09.246',3.66
'0:09.250',3.37
'0:09.254',3.02
'0:09.258',2.79
'0:09.262',2.52
'0:09.266',2.16
'0:09.270',1.99
'0:09.273',1.79
'0:09.277',1.5
'0:09.281',1.2
'0:09.285',1.12
'0:09.289',1.08
'0:09.293',1.03
'0:09.297',1
'0:09.301',1.03
'0:09.305',1.24
'0:09.309',1.53
'0:09.313',1.58
'0:09.316',1.19
'0:09.320',0.91
'0:09.324',0.49
'0:09.328',0
'0:09.332',-0.42
'0:09.336',-0.99
'0:09.340',-1.75
'0:09.344',-1.99
'0:09.348',-2.02
'0:09.352',-2.4
'0:09.355',-2.77
'0:09.359',-3.22
'0:09.363',-3.58
'0:09.367',-3.25
'0:09.371',-2.67
'0:09.375',-2.49
'0:09.379',-3.39
'0:09.383',-4.71
'0:09.387',-4.96
'0:09.391',-3.28
'0:09.395',-0.77
'0:09.398',1.95
'0:09.402',4.72
'0:09.406',7.66
'0:09.410',10
'0:09.414',8.88
'0:09.418',4.51
'0:09.422',-0.38
'0:09.426',-4.34
'0:09.430',-7.2
'0:09.434',-8.57
'0:09.438',-8.98
'0:09.441',-8.7
'0:09.445',-7.89
'0:09.449',-6.64
'0:09.453',-4.6
'0:09.457',-2.7
'0:09.461',-1.6
'0:09.465',-1.07
'0:09.469',-0.55
'0:09.473',-0.06
'0:09.477',0.58
'0:09.480',1.19
'0:09.484',1.72
'0:09.488',2.06
'0:09.492',1.99
'0:09.496',2.06
'0:09.500',2.62
'0:09.504',3.26
'0:09.508',3.58
'0:09.512',3.83
'0:09.516',3.93
'0:09.520',4.28
'0:09.523',4.55
'0:09.527',4.7
'0:09.531',4.88
'0:09.535',5.02
'0:09.539',5.16
'0:09.543',5.31
'0:09.547',5.18
'0:09.551',5
'0:09.555',4.64
'0:09.559',4.06
'0:09.563',3.53
'0:09.566',3.19
'0:09.570',3.01
'0:09.574',2.86
'0:09.578',2.6
'0:09.582',2.26
'0:09.586',1.89
'0:09.590',1.76
'0:09.594',1.98
'0:09.598',2.41
'0:09.602',2.78
'0:09.605',2.74
'0:09.609',2.45
'0:09.613',2.04
'0:09.617',1.53
'0:09.621',0.97
'0:09.625',0.45
'0:09.629',0.25
'0:09.633',0.16
'0:09.637',-0.12
'0:09.641',-0.75
'0:09.645',-1.58
'0:09.648',-2.13
'0:09.652',-2.44
'0:09.656',-2.72
'0:09.660',-2.84
'0:09.664',-2.73
'0:09.668',-2.54
'0:09.672',-2.48
'0:09.676',-2.57
'0:09.680',-2.84
'0:09.684',-3.04
'0:09.688',-2.71
'0:09.691',-1.52
'0:09.695',0.5
'0:09.699',3.33
'0:09.703',6.56
'0:09.707',9.78
'0:09.711',10.89
'0:09.715',7.29
'0:09.719',1.29
'0:09.723',-3.77
'0:09.727',-6.94
'0:09.730',-9.01
'0:09.734',-10.28
'0:09.738',-10.66
'0:09.742',-10.23
'0:09.746',-9.12
'0:09.750',-7.78
'0:09.754',-6.11
'0:09.758',-4.46
'0:09.762',-2.92
'0:09.766',-1.7
'0:09.770',-0.85
'0:09.773',-0.4
'0:09.777',0.02
'0:09.781',0.39
'0:09.785',0.89
'0:09.789',1.92
'0:09.793',3.03
'0:09.797',3.55
'0:09.801',3.62
'0:09.805',3.21
'0:09.809',2.99
'0:09.813',3.69
'0:09.816',4.34
'0:09.820',4.63
'0:09.824',4.73
'0:09.828',4.73
'0:09.832',4.67
'0:09.836',4.68
'0:09.840',4.54
'0:09.844',4.35
'0:09.848',4.18
'0:09.852',3.93
'0:09.855',3.4
'0:09.859',2.79
'0:09.863',2.54
'0:09.867',2.57
'0:09.871',2.42
'0:09.875',2.18
'0:09.879',1.79
'0:09.883',1.48
'0:09.887',1.33
'0:09.891',1.32
'0:09.895',1.34
'0:09.898',1.53
'0:09.902',2.04
'0:09.906',2.34
'0:09.910',2.28
'0:09.914',1.82
'0:09.918',1.31
'0:09.922',1.2
'0:09.926',1.16
'0:09.930',1
'0:09.934',0.96
'0:09.938',0.59
'0:09.941',-0.54
'0:09.945',-1.44
'0:09.949',-1.58
'0:09.953',-1.65
'0:09.957',-1.9
'0:09.961',-1.81
'0:09.965',-1.67
'0:09.969',-1.72
'0:09.973',-1.94
'0:09.977',-1.97
'0:09.980',-2.04
'0:09.984',-1.88
'0:09.988',-1.14
'0:09.992',0.37
'0:09.996',2.71
'0:10.000',5.8
'0:10.004',8.99
'0:10.008',10.67
'0:10.012',8.07
'0:10.016',2.7
'0:10.020',-2.08
'0:10.023',-5.31
'0:10.027',-7.73
'0:10.031',-9.2
'0:10.035',-9.83
'0:10.039',-9.96
'0:10.043',-9.68
'0:10.047',-8.66
'0:10.051',-6.84
'0:10.055',-5.33
'0:10.059',-3.81
'0:10.063',-2.3
'0:10.066',-1.73
'0:10.070',-2
'0:10.074',-1.58
'0:10.078',-0.55
'0:10.082',-0.3
'0:10.086',-0.86
'0:10.090',-0.54
'0:10.094',0.04
'0:10.098',0.26
'0:10.102',0.73
'0:10.105',1.21
'0:10.109',0.87
'0:10.113',1.21
'0:10.117',1.97
'0:10.121',1.98
'0:10.125',1.86
'0:10.129',2.07
'0:10.133',1.96
'0:10.137',1.6
'0:10.141',1.59
'0:10.145',1.63
'0:10.148',1.61
'0:10.152',1.42
'0:10.156',1.26
'0:10.160',0.94
'0:10.164',0.66
'0:10.168',0.69
'0:10.172',0.64
'0:10.176',0.24
'0:10.180',0.17
'0:10.184',0.51
'0:10.188',0.7
'0:10.191',0.94
'0:10.195',1.23
'0:10.199',1.63
'0:10.203',1.91
'0:10.207',2.13
'0:10.211',2.1
'0:10.215',1.84
'0:10.219',1.32
'0:10.223',0.58
'0:10.227',0.04
'0:10.230',-0.23
'0:10.234',-0.55
'0:10.238',-0.65
'0:10.242',-1.07
'0:10.246',-2.02
'0:10.250',-2.9
'0:10.254',-3.38
'0:10.258',-3.27
'0:10.262',-2.67
'0:10.266',-2.13
'0:10.270',-1.95
'0:10.273',-1.99
'0:10.277',-2.48
'0:10.281',-2.91
'0:10.285',-2.43
'0:10.289',-1.08
'0:10.293',0.82
'0:10.297',3.29
'0:10.301',6.37
'0:10.305',9.43
'0:10.309',10.57
'0:10.313',7.34
'0:10.316',2.09
'0:10.320',-2.49
'0:10.324',-5.67
'0:10.328',-8.08
'0:10.332',-9.66
'0:10.336',-10.46
'0:10.340',-10.53
'0:10.344',-10.07
'0:10.348',-9.26
'0:10.352',-7.98
'0:10.355',-6.54
'0:10.359',-4.99
'0:10.363',-3.64
'0:10.367',-2.82
'0:10.371',-1.97
'0:10.375',-1.18
'0:10.379',-0.9
'0:10.383',-0.56
'0:10.387',-0.15
'0:10.391',0.2
'0:10.395',0.11
'0:10.398',-0.28
'0:10.402',-0.24
'0:10.406',-0.15
'0:10.410',0.14
'0:10.414',0.84
'0:10.418',1.57
'0:10.422',2.23
'0:10.426',2.56
'0:10.430',2.78
'0:10.434',2.85
'0:10.438',2.61
'0:10.441',2.28
'0:10.445',2.24
'0:10.449',2.27
'0:10.453',2.1
'0:10.457',1.53
'0:10.461',0.92
'0:10.465',0.76
'0:10.469',0.97
'0:10.473',1.12
'0:10.477',1.05
'0:10.480',0.77
'0:10.484',0.5
'0:10.488',0.23
'0:10.492',0.05
'0:10.496',0.42
'0:10.500',1.13
'0:10.504',1.26
'0:10.508',0.8
'0:10.512',0.64
'0:10.516',0.69
'0:10.520',0.13
'0:10.523',-0.68
'0:10.527',-0.97
'0:10.531',-1.03
'0:10.535',-1.21
'0:10.539',-1.66
'0:10.543',-2.32
'0:10.547',-2.68
'0:10.551',-3.27
'0:10.555',-3.65
'0:10.559',-3.22
'0:10.563',-2.71
'0:10.566',-2.5
'0:10.570',-2.69
'0:10.574',-2.89
'0:10.578',-2.52
'0:10.582',-1.89
'0:10.586',-0.78
'0:10.590',0.76
'0:10.594',2.68
'0:10.598',5.05
'0:10.602',8.36
'0:10.605',10.62
'0:10.609',8.72
'0:10.613',3.9
'0:10.617',-0.81
'0:10.621',-4.09
'0:10.625',-5.97
'0:10.629',-7.11
'0:10.633',-7.26
'0:10.637',-6.61
'0:10.641',-5.52
'0:10.645',-4.23
'0:10.648',-2.81
'0:10.652',-1.63
'0:10.656',-0.56
'0:10.660',0.16
'0:10.664',0.39
'0:10.668',0.48
'0:10.672',0.38
'0:10.676',0.58
'0:10.680',1.03
'0:10.684',1.48
'0:10.688',1.92
'0:10.691',2.19
'0:10.695',2.35
'0:10.699',2.32
'0:10.703',2.37
'0:10.707',2.63
'0:10.711',3.05
'0:10.715',3.31
'0:10.719',3.3
'0:10.723',3.51
'0:10.727',3.76
'0:10.730',3.53
'0:10.734',3.25
'0:10.738',3.03
'0:10.742',2.53
'0:10.746',1.68
'0:10.750',1.06
'0:10.754',0.72
'0:10.758',0.38
'0:10.762',-0.05
'0:10.766',-0.48
'0:10.770',-0.75
'0:10.773',-0.85
'0:10.777',-0.73
'0:10.781',-0.38
'0:10.785',0.09
'0:10.789',0.37
'0:10.793',0.54
'0:10.797',0.71
'0:10.801',1
'0:10.805',1.07
'0:10.809',0.9
'0:10.813',0.52
'0:10.816',0.1
'0:10.820',-0.16
'0:10.824',-0.31
'0:10.828',-0.52
'0:10.832',-0.91
'0:10.836',-1.44
'0:10.840',-1.91
'0:10.844',-2.14
'0:10.848',-2.21
'0:10.852',-2.19
'0:10.855',-2.19
'0:10.859',-2.23
'0:10.863',-2.37
'0:10.867',-2.43
'0:10.871',-2.58
'0:10.875',-3.14
'0:10.879',-3.32
'0:10.883',-2.49
'0:10.887',-0.82
'0:10.891',1.28
'0:10.895',4.14
'0:10.898',7.54
'0:10.902',10.49
'0:10.906',10.15
'0:10.910',5.51
'0:10.914',-0.15
'0:10.918',-4.22
'0:10.922',-7.03
'0:10.926',-8.64
'0:10.930',-9.22
'0:10.934',-8.97
'0:10.938',-8.37
'0:10.941',-7.01
'0:10.945',-5.28
'0:10.949',-3.62
'0:10.953',-2.54
'0:10.957',-1.22
'0:10.961',0.07
'0:10.965',1.11
'0:10.969',1.84
'0:10.973',2.17
'0:10.977',2.2
'0:10.980',2.17
'0:10.984',2.79
'0:10.988',3.32
'0:10.992',3.56
'0:10.996',3.92
'0:11.000',4.33
'0:11.004',4.72
'0:11.008',4.9
'0:11.012',4.55
'0:11.016',3.87
'0:11.020',4.13
'0:11.023',4.58
'0:11.027',4.99
'0:11.031',5.48
'0:11.035',5.59
'0:11.039',4.85
'0:11.043',3.9
'0:11.047',3.14
'0:11.051',2.43
'0:11.055',2.08
'0:11.059',2.62
'0:11.063',2.91
'0:11.066',2.28
'0:11.070',1.49
'0:11.074',0.58
'0:11.078',0.38
'0:11.082',-0.35
'0:11.086',-0.21
'0:11.090',0.67
'0:11.094',1.09
'0:11.098',1.27
'0:11.102',0.7
'0:11.105',0.18
'0:11.109',-0.16
'0:11.113',-0.03
'0:11.117',-0.18
'0:11.121',-0.4
'0:11.125',-0.88
'0:11.129',-1.56
'0:11.133',-1.89
'0:11.137',-2.78
'0:11.141',-3.2
'0:11.145',-3.19
'0:11.148',-3.4
'0:11.152',-3.68
'0:11.156',-3.62
'0:11.160',-3.06
'0:11.164',-2.01
'0:11.168',-2.51
'0:11.172',-3.17
'0:11.176',-3.28
'0:11.180',-3.14
'0:11.184',-1.81
'0:11.188',0.31
'0:11.191',3.67
'0:11.195',7.77
'0:11.199',11.31
'0:11.203',10.64
'0:11.207',4.41
'0:11.211',-1.34
'0:11.215',-4.77
'0:11.219',-6.8
'0:11.223',-8.88
'0:11.227',-10.52
'0:11.230',-10.89
'0:11.234',-10.68
'0:11.238',-9.61
'0:11.242',-8.21
'0:11.246',-6.71
'0:11.250',-4.88
'0:11.254',-3.73
'0:11.258',-3.05
'0:11.262',-1.86
'0:11.266',-1.03
'0:11.270',-0.91
'0:11.273',-0.86
'0:11.277',-0.44
'0:11.281',-0.17
'0:11.285',0.12
'0:11.289',0.94
'0:11.293',1.41
'0:11.297',1.14
'0:11.301',0.57
'0:11.305',0.58
'0:11.309',1.18
'0:11.313',1.65
'0:11.316',2.08
'0:11.320',2.5
'0:11.324',2.73
'0:11.328',3.04
'0:11.332',3.2
'0:11.336',2.77
'0:11.340',2.25
'0:11.344',1.79
'0:11.348',1.65
'0:11.352',1.68
'0:11.355',1.43
'0:11.359',0.94
'0:11.363',0.47
'0:11.367',0.84
'0:11.371',1.24
'0:11.375',1.3
'0:11.379',0.94
'0:11.383',0.86
'0:11.387',1.85
'0:11.391',3.24
'0:11.395',4.18
'0:11.398',4.6
'0:11.402',4.88
'0:11.406',4.67
'0:11.410',4.5
'0:11.414',4.39
'0:11.418',3.99
'0:11.422',3.5
'0:11.426',2.83
'0:11.430',1.93
'0:11.434',0.93
'0:11.438',0.05
'0:11.441',-0.65
'0:11.445',-0.99
'0:11.449',-1.07
'0:11.453',-1.44
'0:11.457',-1.83
'0:11.461',-1.95
'0:11.465',-2
'0:11.469',-2.28
'0:11.473',-2.65
'0:11.477',-2.75
'0:11.480',-2.32
'0:11.484',-1.08
'0:11.488',1.34
'0:11.492',4.51
'0:11.496',8.04
'0:11.500',10.66
'0:11.504',8.82
'0:11.508',3.34
'0:11.512',-1.88
'0:11.516',-5.53
'0:11.520',-8.27
'0:11.523',-10.48
'0:11.527',-11.65
'0:11.531',-11.79
'0:11.535',-11.15
'0:11.539',-10.06
'0:11.543',-8.56
'0:11.547',-6.83
'0:11.551',-5.46
'0:11.555',-4.41
'0:11.559',-3.67
'0:11.563',-3.1
'0:11.566',-2.83
'0:11.570',-2.59
'0:11.574',-2.18
'0:11.578',-1.73
'0:11.582',-1.58
'0:11.586',-1.46
'0:11.590',-1.23
'0:11.594',-0.88
'0:11.598',-0.42
'0:11.602',-0.08
'0:11.605',0.17
'0:11.609',0.6
'0:11.613',1.11
'0:11.617',1.41
'0:11.621',1.61
'0:11.625',1.73
'0:11.629',1.87
'0:11.633',1.95
'0:11.637',2.08
'0:11.641',1.93
'0:11.645',1.67
'0:11.648',1.47
'0:11.652',1.18
'0:11.656',0.74
'0:11.660',0.42
'0:11.664',0.13
'0:11.668',0.1
'0:11.672',0.1
'0:11.676',0.2
'0:11.680',0.39
'0:11.684',0.65
'0:11.688',0.92
'0:11.691',0.95
'0:11.695',0.8
'0:11.699',0.7
'0:11.703',0.8
'0:11.707',0.66
'0:11.711',0.17
'0:11.715',-0.56
'0:11.719',-1.08
'0:11.723',-1.47
'0:11.727',-1.79
'0:11.730',-2.02
'0:11.734',-2.23
'0:11.738',-2.24
'0:11.742',-1.96
'0:11.746',-1.45
'0:11.750',-1.07
'0:11.754',-1.21
'0:11.758',-1.62
'0:11.762',-1.99
'0:11.766',-2.49
'0:11.770',-3
'0:11.773',-2.64
'0:11.777',-1.25
'0:11.781',0.92
'0:11.785',3.48
'0:11.789',6.11
'0:11.793',9.01
'0:11.797',10.57
'0:11.801',7.99
'0:11.805',2.88
'0:11.809',-1.82
'0:11.813',-5.33
'0:11.816',-7.58
'0:11.820',-8.65
'0:11.824',-8.65
'0:11.828',-7.73
'0:11.832',-6.41
'0:11.836',-4.97
'0:11.840',-3.61
'0:11.844',-2.22
'0:11.848',-1.02
'0:11.852',-0.1
'0:11.855',0.36
'0:11.859',0.79
'0:11.863',1.31
'0:11.867',1.68
'0:11.871',1.83
'0:11.875',1.98
'0:11.879',2.35
'0:11.883',2.73
'0:11.887',3.09
'0:11.891',3.36
'0:11.895',3.51
'0:11.898',3.7
'0:11.902',3.9
'0:11.906',4.14
'0:11.910',4.31
'0:11.914',4.56
'0:11.918',4.75
'0:11.922',4.87
'0:11.926',4.83
'0:11.930',4.46
'0:11.934',4.44
'0:11.938',4.34
'0:11.941',3.45
'0:11.945',3.15
'0:11.949',2.75
'0:11.953',2.54
'0:11.957',2.4
'0:11.961',2.32
'0:11.965',2.2
'0:11.969',2.01
'0:11.973',1.93
'0:11.977',2.12
'0:11.980',2.38
'0:11.984',2.42
'0:11.988',2.29
'0:11.992',2.2
'0:11.996',1.99
'0:12.000',1.93
'0:12.004',1.77
'0:12.008',1.28
'0:12.012',0.58
'0:12.016',-0.1
'0:12.020',-0.63
'0:12.023',-0.89
'0:12.027',-1.32
'0:12.031',-2.05
'0:12.035',-2.57
'0:12.039',-2.51
'0:12.043',-2.23
'0:12.047',-1.99
'0:12.051',-2.34
'0:12.055',-2.79
'0:12.059',-3.25
'0:12.063',-3.54
'0:12.066',-3.23
'0:12.070',-2.58
'0:12.074',-1.57
'0:12.078',0.48
'0:12.082',3.87
'0:12.086',7.31
'0:12.090',10.06
'0:12.094',10.62
'0:12.098',7.13
'0:12.102',1.71
'0:12.105',-2.76
'0:12.109',-5.69
'0:12.113',-8.08
'0:12.117',-10.05
'0:12.121',-10.8
'0:12.125',-10.51
'0:12.129',-8.95
'0:12.133',-7.46
'0:12.137',-6.43
'0:12.141',-5.64
'0:12.145',-4.13
'0:12.148',-2.58
'0:12.152',-1.31
'0:12.156',0
'0:12.160',0.75
'0:12.164',0.76
'0:12.168',0.83
'0:12.172',0.49
'0:12.176',0.58
'0:12.180',0.78
'0:12.184',0.99
'0:12.188',1.38
'0:12.191',1.96
'0:12.195',2.38
'0:12.199',2.97
'0:12.203',3.31
'0:12.207',3.6
'0:12.211',3.64
'0:12.215',3.42
'0:12.219',3.13
'0:12.223',3.33
'0:12.227',4.01
'0:12.230',4.3
'0:12.234',3.63
'0:12.238',3.03
'0:12.242',2.97
'0:12.246',2.69
'0:12.250',2.54
'0:12.254',1.99
'0:12.258',1.35
'0:12.262',1.15
'0:12.266',1.28
'0:12.270',1.37
'0:12.273',1.35
'0:12.277',1.49
'0:12.281',1.2
'0:12.285',1.34
'0:12.289',2.27
'0:12.293',2.55
'0:12.297',1.75
'0:12.301',0.9
'0:12.305',0.43
'0:12.309',-0.15
'0:12.313',-1.07
'0:12.316',-1.84
'0:12.320',-1.81
'0:12.324',-1.31
'0:12.328',-1.45
'0:12.332',-2.36
'0:12.336',-3.1
'0:12.340',-3.67
'0:12.344',-3.67
'0:12.348',-3.2
'0:12.352',-3.12
'0:12.355',-3.17
'0:12.359',-3.34
'0:12.363',-3.58
'0:12.367',-3.18
'0:12.371',-1.88
'0:12.375',0.22
'0:12.379',2.99
'0:12.383',6.39
'0:12.387',9.63
'0:12.391',11.25
'0:12.395',8.37
'0:12.398',2.67
'0:12.402',-2.35
'0:12.406',-5.66
'0:12.410',-7.76
'0:12.414',-9.2
'0:12.418',-10.08
'0:12.422',-10.18
'0:12.426',-9.49
'0:12.430',-8.23
'0:12.434',-6.75
'0:12.438',-5.26
'0:12.441',-3.78
'0:12.445',-2.43
'0:12.449',-1.52
'0:12.453',-0.89
'0:12.457',-0.54
'0:12.461',-0.46
'0:12.465',-0.37
'0:12.469',-0.33
'0:12.473',-0.23
'0:12.477',-0.07
'0:12.480',0.33
'0:12.484',0.87
'0:12.488',1.39
'0:12.492',1.75
'0:12.496',1.97
'0:12.500',2.1
'0:12.504',2.09
'0:12.508',2
'0:12.512',1.94
'0:12.516',2.05
'0:12.520',2.25
'0:12.523',2.11
'0:12.527',1.96
'0:12.531',1.75
'0:12.535',1.24
'0:12.539',0.7
'0:12.543',0.18
'0:12.547',-0.26
'0:12.551',-0.14
'0:12.555',0.24
'0:12.559',0.35
'0:12.563',0.21
'0:12.566',0.13
'0:12.570',0.08
'0:12.574',0.03
'0:12.578',0.38
'0:12.582',0.73
'0:12.586',0.41
'0:12.590',-0.18
'0:12.594',-0.69
'0:12.598',-1.16
'0:12.602',-1
'0:12.605',-0.89
'0:12.609',-1.09
'0:12.613',-1.52
'0:12.617',-2.18
'0:12.621',-2.84
'0:12.625',-3.21
'0:12.629',-3.33
'0:12.633',-3.45
'0:12.637',-3.53
'0:12.641',-3.48
'0:12.645',-3.26
'0:12.648',-3.09
'0:12.652',-3.12
'0:12.656',-3.42
'0:12.660',-3.84
'0:12.664',-3.97
'0:12.668',-3.23
'0:12.672',-1.53
'0:12.676',1.05
'0:12.680',4.17
'0:12.684',7.33
'0:12.688',9.6
'0:12.691',8.23
'0:12.695',3.15
'0:12.699',-1.83
'0:12.703',-5.34
'0:12.707',-7.7
'0:12.711',-9.39
'0:12.715',-10.49
'0:12.719',-10.84
'0:12.723',-9.99
'0:12.727',-8.36
'0:12.730',-6.4
'0:12.734',-4.5
'0:12.738',-2.86
'0:12.742',-1.55
'0:12.746',-0.57
'0:12.750',0.23
'0:12.754',0.94
'0:12.758',1.46
'0:12.762',1.75
'0:12.766',1.81
'0:12.770',1.99
'0:12.773',2.34
'0:12.777',2.67
'0:12.781',3.14
'0:12.785',3.24
'0:12.789',3.18
'0:12.793',3.21
'0:12.797',3.47
'0:12.801',4.13
'0:12.805',4.89
'0:12.809',5.17
'0:12.813',4.91
'0:12.816',4.88
'0:12.820',4.85
'0:12.824',4.42
'0:12.828',3.87
'0:12.832',3.4
'0:12.836',3.11
'0:12.840',2.96
'0:12.844',2.87
'0:12.848',2.6
'0:12.852',2.38
'0:12.855',2.32
'0:12.859',2.37
'0:12.863',2.32
'0:12.867',2.15
'0:12.871',1.94
'0:12.875',1.61
'0:12.879',1.59
'0:12.883',1.8
'0:12.887',1.81
'0:12.891',1.5
'0:12.895',1.44
'0:12.898',1.33
'0:12.902',0.84
'0:12.906',0.27
'0:12.910',-0.26
'0:12.914',-0.91
'0:12.918',-1.45
'0:12.922',-1.97
'0:12.926',-2.24
'0:12.930',-2.48
'0:12.934',-2.56
'0:12.938',-2.51
'0:12.941',-2.58
'0:12.945',-2.73
'0:12.949',-2.51
'0:12.953',-2.15
'0:12.957',-2.07
'0:12.961',-2.12
'0:12.965',-2.04
'0:12.969',-1.24
'0:12.973',0.54
'0:12.977',3.04
'0:12.980',5.82
'0:12.984',8.6
'0:12.988',8.9
'0:12.992',5.14
'0:12.996',-0.09
'0:13.000',-4.42
'0:13.004',-7.64
'0:13.008',-9.85
'0:13.012',-10.8
'0:13.016',-10.65
'0:13.020',-9.96
'0:13.023',-8.82
'0:13.027',-7.19
'0:13.031',-5.35
'0:13.035',-3.56
'0:13.039',-2.24
'0:13.043',-1.4
'0:13.047',-0.72
'0:13.051',-0.07
'0:13.055',0.6
'0:13.059',0.9
'0:13.063',0.64
'0:13.066',0.69
'0:13.070',1
'0:13.074',1.27
'0:13.078',1.62
'0:13.082',1.82
'0:13.086',2.04
'0:13.090',2.04
'0:13.094',2.2
'0:13.098',2.81
'0:13.102',3.57
'0:13.105',4.02
'0:13.109',4.34
'0:13.113',4.44
'0:13.117',4.01
'0:13.121',3.69
'0:13.125',3.63
'0:13.129',3.52
'0:13.133',2.93
'0:13.137',1.96
'0:13.141',1.12
'0:13.145',0.9
'0:13.148',0.88
'0:13.152',1
'0:13.156',1.09
'0:13.160',1.06
'0:13.164',0.9
'0:13.168',0.76
'0:13.172',0.71
'0:13.176',0.47
'0:13.180',0.4
'0:13.184',0.25
'0:13.188',0.04
'0:13.191',-0.23
'0:13.195',-0.27
'0:13.199',-0.43
'0:13.203',-0.81
'0:13.207',-1.19
'0:13.211',-1.63
'0:13.215',-1.96
'0:13.219',-2.49
'0:13.223',-2.82
'0:13.227',-3.13
'0:13.230',-3.4
'0:13.234',-3.45
'0:13.238',-3.15
'0:13.242',-2.84
'0:13.246',-3.02
'0:13.250',-3.48
'0:13.254',-3.5
'0:13.258',-3.29
'0:13.262',-2.81
'0:13.266',-1.87
'0:13.270',0.2
'0:13.273',3.3
'0:13.277',6.4
'0:13.281',9.12
'0:13.285',9.65
'0:13.289',5.82
'0:13.293',0.38
'0:13.297',-3.37
'0:13.301',-5.42
'0:13.305',-7.08
'0:13.309',-8.66
'0:13.313',-9.02
'0:13.316',-8.49
'0:13.320',-7.43
'0:13.324',-6.02
'0:13.328',-4.31
'0:13.332',-2.89
'0:13.336',-1.96
'0:13.340',-1.14
'0:13.344',0.04
'0:13.348',1.32
'0:13.352',2.61
'0:13.355',2.86
'0:13.359',2.79
'0:13.363',2.86
'0:13.367',2.52
'0:13.371',2.39
'0:13.375',2.58
'0:13.379',2.94
'0:13.383',3.55
'0:13.387',3.94
'0:13.391',4.55
'0:13.395',4.42
'0:13.398',4.27
'0:13.402',4.25
'0:13.406',4.67
'0:13.410',4.76
'0:13.414',4.95
'0:13.418',5.01
'0:13.422',4.07
'0:13.426',3.4
'0:13.430',2.96
'0:13.434',2.97
'0:13.438',2.8
'0:13.441',2.75
'0:13.445',2.96
'0:13.449',2.46
'0:13.453',2.08
'0:13.457',1.19
'0:13.461',1.26
'0:13.465',1.73
'0:13.469',2.04
'0:13.473',2.41
'0:13.477',2.9
'0:13.480',2.72
'0:13.484',1.88
'0:13.488',0.73
'0:13.492',0.23
'0:13.496',0.31
'0:13.500',1.09
'0:13.504',1.06
'0:13.508',0.25
'0:13.512',-0.34
'0:13.516',-1
'0:13.520',-1.67
'0:13.523',-1.85
'0:13.527',-1.45
'0:13.531',-1.69
'0:13.535',-2.8
'0:13.539',-3.69
'0:13.543',-3.37
'0:13.547',-3.14
'0:13.551',-3.13
'0:13.555',-2.83
'0:13.559',-2.78
'0:13.563',-2.91
'0:13.566',-2.37
'0:13.570',-0.45
'0:13.574',2.46
'0:13.578',6.29
'0:13.582',10.5
'0:13.586',13.23
'0:13.590',11.16
'0:13.594',5
'0:13.598',-0.8
'0:13.602',-4.52
'0:13.605',-7.05
'0:13.609',-8.88
'0:13.613',-10.26
'0:13.617',-10.95
'0:13.621',-10.68
'0:13.625',-9.81
'0:13.629',-8.4
'0:13.633',-6.84
'0:13.637',-5.38
'0:13.641',-4.09
'0:13.645',-2.82
'0:13.648',-1.69
'0:13.652',-0.79
'0:13.656',-0.12
'0:13.660',0.31
'0:13.664',0.61
'0:13.668',0.7
'0:13.672',0.76
'0:13.676',1.16
'0:13.680',1.7
'0:13.684',2
'0:13.688',2.4
'0:13.691',2.87
'0:13.695',3.19
'0:13.699',3.11
'0:13.703',2.88
'0:13.707',2.89
'0:13.711',2.81
'0:13.715',2.98
'0:13.719',3.08
'0:13.723',3.15
'0:13.727',3.14
'0:13.730',2.91
'0:13.734',2.78
'0:13.738',2.88
'0:13.742',3.26
'0:13.746',3.52
'0:13.750',3.12
'0:13.754',2.69
'0:13.758',2.6
'0:13.762',2.64
'0:13.766',2.83
'0:13.770',2.59
'0:13.773',2.13
'0:13.777',2.38
'0:13.781',2.69
'0:13.785',2.48
'0:13.789',2.08
'0:13.793',1.5
'0:13.797',0.91
'0:13.801',0.6
'0:13.805',0.09
'0:13.809',-0.67
'0:13.813',-1.02
'0:13.816',-1.04
'0:13.820',-1.34
'0:13.824',-2.17
'0:13.828',-2.82
'0:13.832',-3.09
'0:13.836',-3.29
'0:13.840',-3.55
'0:13.844',-3.8
'0:13.848',-3.89
'0:13.852',-3.93
'0:13.855',-3.76
'0:13.859',-3.39
'0:13.863',-2.93
'0:13.867',-2.12
'0:13.871',-0.46
'0:13.875',2.43
'0:13.879',5.98
'0:13.883',9.46
'0:13.887',10.41
'0:13.891',6.58
'0:13.895',1.19
'0:13.898',-3.31
'0:13.902',-6.67
'0:13.906',-9.06
'0:13.910',-10.34
'0:13.914',-10.75
'0:13.918',-10.29
'0:13.922',-9.08
'0:13.926',-7.75
'0:13.930',-6.22
'0:13.934',-4.55
'0:13.938',-3.27
'0:13.941',-2.29
'0:13.945',-1.37
'0:13.949',-0.71
'0:13.953',-0.27
'0:13.957',-0.18
'0:13.961',-0.07
'0:13.965',-0.02
'0:13.969',0.08
'0:13.973',0.23
'0:13.977',0.3
'0:13.980',0.4
'0:13.984',0.68
'0:13.988',1.22
'0:13.992',1.92
'0:13.996',2.39
'0:14.000',2.66
'0:14.004',2.85
'0:14.008',3.12
'0:14.012',3.3
'0:14.016',3.32
'0:14.020',3.27
'0:14.023',3.15
'0:14.027',2.67
'0:14.031',2.15
'0:14.035',1.79
'0:14.039',1.66
'0:14.043',1.64
'0:14.047',1.66
'0:14.051',1.49
'0:14.055',1.23
'0:14.059',1.17
'0:14.063',1.19
'0:14.066',1.34
'0:14.070',1.73
'0:14.074',2.04
'0:14.078',1.86
'0:14.082',1.5
'0:14.086',1.2
'0:14.090',0.83
'0:14.094',0.18
'0:14.098',-0.19
'0:14.102',-0.43
'0:14.105',-0.79
'0:14.109',-1.58
'0:14.113',-2.26
'0:14.117',-2.67
'0:14.121',-2.83
'0:14.125',-2.63
'0:14.129',-2.36
'0:14.133',-2.53
'0:14.137',-2.61
'0:14.141',-2.65
'0:14.145',-2.75
'0:14.148',-2.91
'0:14.152',-2.89
'0:14.156',-2.66
'0:14.160',-2.12
'0:14.164',-0.91
'0:14.168',1.25
'0:14.172',4.08
'0:14.176',7.07
'0:14.180',9.53
'0:14.184',8.64
'0:14.188',3.94
'0:14.191',-1.28
'0:14.195',-5.32
'0:14.199',-8.04
'0:14.203',-9.88
'0:14.207',-10.75
'0:14.211',-10.52
'0:14.215',-9.41
'0:14.219',-7.85
'0:14.223',-5.93
'0:14.227',-4.11
'0:14.230',-2.61
'0:14.234',-1.54
'0:14.238',-0.78
'0:14.242',-0.02
'0:14.246',0.66
'0:14.250',1.06
'0:14.254',1.36
'0:14.258',1.61
'0:14.262',2
'0:14.266',2.24
'0:14.270',2.54
'0:14.273',2.9
'0:14.277',3.1
'0:14.281',3.42
'0:14.285',3.78
'0:14.289',4.26
'0:14.293',4.78
'0:14.297',5.12
'0:14.301',5.51
'0:14.305',5.68
'0:14.309',5.63
'0:14.313',5.27
'0:14.316',4.75
'0:14.320',4.49
'0:14.324',4.7
'0:14.328',4.61
'0:14.332',4.34
'0:14.336',4.03
'0:14.340',3.3
'0:14.344',2.52
'0:14.348',1.9
'0:14.352',1.42
'0:14.355',1.76
'0:14.359',2.63
'0:14.363',3.1
'0:14.367',3.18
'0:14.371',3.24
'0:14.375',3.51
'0:14.379',3.47
'0:14.383',3.1
'0:14.387',2.54
'0:14.391',2.01
'0:14.395',1.85
'0:14.398',1.52
'0:14.402',0.88
'0:14.406',0.01
'0:14.410',-0.55
'0:14.414',-0.92
'0:14.418',-1.36
'0:14.422',-1.75
'0:14.426',-2.21
'0:14.430',-2.46
'0:14.434',-2.32
'0:14.438',-2.21
'0:14.441',-2.17
'0:14.445',-2.48
'0:14.449',-3.13
'0:14.453',-3.35
'0:14.457',-2.82
'0:14.461',-1.7
'0:14.465',-0.02
'0:14.469',2.37
'0:14.473',4.85
'0:14.477',7.3
'0:14.480',7.82
'0:14.484',4.19
'0:14.488',-0.71
'0:14.492',-4.32
'0:14.496',-6.49
'0:14.500',-8.04
'0:14.504',-9.34
'0:14.508',-10.59
'0:14.512',-11.58
'0:14.516',-10.93
'0:14.520',-8.65
'0:14.523',-6.6
'0:14.527',-5.09
'0:14.531',-3.91
'0:14.535',-2.75
'0:14.539',-1.8
'0:14.543',-1.1
'0:14.547',-0.58
'0:14.551',-0.12
'0:14.555',0.25
'0:14.559',0.27
'0:14.563',0.16
'0:14.566',0.13
'0:14.570',0.66
'0:14.574',1.21
'0:14.578',1.54
'0:14.582',1.9
'0:14.586',2.24
'0:14.590',2.57
'0:14.594',2.95
'0:14.598',3.27
'0:14.602',3.41
'0:14.605',3.43
'0:14.609',2.81
'0:14.613',2.15
'0:14.617',2.22
'0:14.621',2.38
'0:14.625',2.4
'0:14.629',2.25
'0:14.633',1.93
'0:14.637',1.54
'0:14.641',1.39
'0:14.645',1.39
'0:14.648',1.42
'0:14.652',1.34
'0:14.656',1.3
'0:14.660',1.3
'0:14.664',1.36
'0:14.668',1.45
'0:14.672',1.49
'0:14.676',1.63
'0:14.680',1.76
'0:14.684',1.61
'0:14.688',1.29
'0:14.691',1.03
'0:14.695',0.81
'0:14.699',0.29
'0:14.703',-0.63
'0:14.707',-1.8
'0:14.711',-2.65
'0:14.715',-3.19
'0:14.719',-3.18
'0:14.723',-2.95
'0:14.727',-3
'0:14.730',-3.38
'0:14.734',-3.55
'0:14.738',-3.26
'0:14.742',-3.17
'0:14.746',-3.88
'0:14.750',-4.03
'0:14.754',-3.25
'0:14.758',-2.38
'0:14.762',-1.21
'0:14.766',0.85
'0:14.770',3.87
'0:14.773',7.33
'0:14.777',10.33
'0:14.781',9.91
'0:14.785',5.34
'0:14.789',0.29
'0:14.793',-2.92
'0:14.797',-4.95
'0:14.801',-6.7
'0:14.805',-7.96
'0:14.809',-8.45
'0:14.813',-8
'0:14.816',-6.93
'0:14.820',-5.48
'0:14.824',-4.1
'0:14.828',-3.43
'0:14.832',-1.28
'0:14.836',-0.38
'0:14.840',0.25
'0:14.844',0.61
'0:14.848',0.98
'0:14.852',1.3
'0:14.855',1.34
'0:14.859',1.27
'0:14.863',1.29
'0:14.867',1.42
'0:14.871',1.61
'0:14.875',2.05
'0:14.879',2.71
'0:14.883',3.33
'0:14.887',3.86
'0:14.891',4.09
'0:14.895',3.97
'0:14.898',3.62
'0:14.902',3
'0:14.906',2.56
'0:14.910',2.61
'0:14.914',2.93
'0:14.918',2.95
'0:14.922',2.56
'0:14.926',2.27
'0:14.930',2.44
'0:14.934',2.39
'0:14.938',2.2
'0:14.941',2.13
'0:14.945',2.14
'0:14.949',1.85
'0:14.953',1.52
'0:14.957',1.4
'0:14.961',1.63
'0:14.965',1.87
'0:14.969',1.8
'0:14.973',1.16
'0:14.977',0.22
'0:14.980',-0.31
'0:14.984',-0.61
'0:14.988',-0.82
'0:14.992',-1
'0:14.996',-1.03
'0:15.000',-1.2
'0:15.004',-1.61
'0:15.008',-2
'0:15.012',-2.49
'0:15.016',-3.27
'0:15.020',-3.83
'0:15.023',-4.09
'0:15.027',-3.84
'0:15.031',-3.45
'0:15.035',-2.92
'0:15.039',-2.96
'0:15.043',-3.58
'0:15.047',-4.09
'0:15.051',-4.26
'0:15.055',-3.54
'0:15.059',-1.71
'0:15.063',0.88
'0:15.066',3.88
'0:15.070',6.98
'0:15.074',8.71
'0:15.078',6.39
'0:15.082',1.57
'0:15.086',-3.1
'0:15.090',-6.47
'0:15.094',-8.71
'0:15.098',-10.01
'0:15.102',-10.24
'0:15.105',-9.46
'0:15.109',-7.97
'0:15.113',-6.46
'0:15.117',-4.78
'0:15.121',-3.15
'0:15.125',-1.99
'0:15.129',-1.16
'0:15.133',-0.56
'0:15.137',-0.01
'0:15.141',0.52
'0:15.145',0.95
'0:15.148',1.2
'0:15.152',1.43
'0:15.156',1.77
'0:15.160',2.13
'0:15.164',2.44
'0:15.168',2.66
'0:15.172',2.78
'0:15.176',2.73
'0:15.180',2.86
'0:15.184',3.22
'0:15.188',3.52
'0:15.191',3.93
'0:15.195',4.19
'0:15.199',4.27
'0:15.203',4.09
'0:15.207',3.77
'0:15.211',3.54
'0:15.215',3.36
'0:15.219',3.02
'0:15.223',2.63
'0:15.227',2.46
'0:15.230',2.1
'0:15.234',1.82
'0:15.238',1.83
'0:15.242',1.78
'0:15.246',1.7
'0:15.250',1.61
'0:15.254',1.64
'0:15.258',2.06
'0:15.262',2.52
'0:15.266',2.56
'0:15.270',2.46
'0:15.273',2.5
'0:15.277',2.19
'0:15.281',1.58
'0:15.285',0.9
'0:15.289',0.15
'0:15.293',-0.07
'0:15.297',0.05
'0:15.301',-0.36
'0:15.305',-1.3
'0:15.309',-2.11
'0:15.313',-2.5
'0:15.316',-2.71
'0:15.320',-2.72
'0:15.324',-2.58
'0:15.328',-2.48
'0:15.332',-2.61
'0:15.336',-2.62
'0:15.340',-2.68
'0:15.344',-3.05
'0:15.348',-3.19
'0:15.352',-2.86
'0:15.355',-1.61
'0:15.359',0.67
'0:15.363',3.76
'0:15.367',7.29
'0:15.371',10.23
'0:15.375',9.86
'0:15.379',5.04
'0:15.383',-0.41
'0:15.387',-4.33
'0:15.391',-7.39
'0:15.395',-9.88
'0:15.398',-11.15
'0:15.402',-11.37
'0:15.406',-10.94
'0:15.410',-9.52
'0:15.414',-7.22
'0:15.418',-5.01
'0:15.422',-3.64
'0:15.426',-3.01
'0:15.430',-2.4
'0:15.434',-1.62
'0:15.438',-0.91
'0:15.441',-0.38
'0:15.445',-0.03
'0:15.449',0.01
'0:15.453',-0.11
'0:15.457',-0.03
'0:15.461',0.51
'0:15.465',1.24
'0:15.469',1.54
'0:15.473',1.13
'0:15.477',1.14
'0:15.480',1.75
'0:15.484',2.62
'0:15.488',3.11
'0:15.492',3.16
'0:15.496',3.11
'0:15.500',2.85
'0:15.504',2.43
'0:15.508',2.14
'0:15.512',2.08
'0:15.516',2.08
'0:15.520',1.8
'0:15.523',1.54
'0:15.527',1.38
'0:15.531',1.23
'0:15.535',1.24
'0:15.539',1.23
'0:15.543',1.32
'0:15.547',1.3
'0:15.551',1.34
'0:15.555',1.08
'0:15.559',1.23
'0:15.563',1.84
'0:15.566',2.25
'0:15.570',2.05
'0:15.574',1.89
'0:15.578',1.97
'0:15.582',1.69
'0:15.586',1.65
'0:15.590',0.99
'0:15.594',0.28
'0:15.598',0.18
'0:15.602',-0.18
'0:15.605',-0.98
'0:15.609',-1.29
'0:15.613',-1.5
'0:15.617',-1.51
'0:15.621',-1.49
'0:15.625',-1.85
'0:15.629',-1.98
'0:15.633',-1.58
'0:15.637',-1.84
'0:15.641',-2.25
'0:15.645',-2.36
'0:15.648',-1.8
'0:15.652',-0.35
'0:15.656',1.48
'0:15.660',3.71
'0:15.664',6.61
'0:15.668',9.65
'0:15.672',10.68
'0:15.676',6.99
'0:15.680',1.34
'0:15.684',-3.36
'0:15.688',-6.22
'0:15.691',-7.84
'0:15.695',-9
'0:15.699',-9.82
'0:15.703',-9.84
'0:15.707',-9.08
'0:15.711',-7.76
'0:15.715',-6.25
'0:15.719',-4.73
'0:15.723',-3.24
'0:15.727',-1.84
'0:15.730',-0.88
'0:15.734',-0.27
'0:15.738',0.33
'0:15.742',0.81
'0:15.746',1.32
'0:15.750',1.66
'0:15.754',1.6
'0:15.758',1.4
'0:15.762',1.49
'0:15.766',1.86
'0:15.770',2.33
'0:15.773',2.44
'0:15.777',2.62
'0:15.781',3.06
'0:15.785',3.11
'0:15.789',2.68
'0:15.793',2.31
'0:15.797',2.4
'0:15.801',2.84
'0:15.805',3.27
'0:15.809',3.73
'0:15.813',3.73
'0:15.816',3.37
'0:15.820',2.73
'0:15.824',2.22
'0:15.828',2.22
'0:15.832',2.28
'0:15.836',1.96
'0:15.840',1.16
'0:15.844',0.61
'0:15.848',0.61
'0:15.852',0.77
'0:15.855',1.11
'0:15.859',1.52
'0:15.863',1.74
'0:15.867',1.78
'0:15.871',1.42
'0:15.875',0.67
'0:15.879',-0.08
'0:15.883',-0.48
'0:15.887',-0.45
'0:15.891',-0.4
'0:15.895',-0.42
'0:15.898',-0.81
'0:15.902',-1.47
'0:15.906',-1.93
'0:15.910',-2.35
'0:15.914',-2.78
'0:15.918',-2.99
'0:15.922',-2.87
'0:15.926',-2.39
'0:15.930',-2.12
'0:15.934',-2.24
'0:15.938',-2.82
'0:15.941',-3.52
'0:15.945',-3.87
'0:15.949',-3.66
'0:15.953',-2.48
'0:15.957',-0.35
'0:15.961',2.58
'0:15.965',5.95
'0:15.969',9
'0:15.973',8.62
'0:15.977',3.99
'0:15.980',-1.44
'0:15.984',-5.47
'0:15.988',-8.09
'0:15.992',-9.77
'0:15.996',-10.8
'0:16.000',-11.4
'0:16.004',-11.18
'0:16.008',-10.33
'0:16.012',-6.29
'0:16.016',-4.3
'0:16.020',-2.79
'0:16.023',-1.83
'0:16.027',-1.2
'0:16.031',-0.87
'0:16.035',-0.77
'0:16.039',-0.52
'0:16.043',-0.07
'0:16.047',0.45
'0:16.051',0.85
'0:16.055',1.12
'0:16.059',1.33
'0:16.063',1.56
'0:16.066',1.7
'0:16.070',1.58
'0:16.074',1.48
'0:16.078',1.99
'0:16.082',2.65
'0:16.086',3.09
'0:16.090',2.82
'0:16.094',2.34
'0:16.098',2.63
'0:16.102',2.85
'0:16.105',2.79
'0:16.109',2.44
'0:16.113',2.45
'0:16.117',2.56
'0:16.121',2.38
'0:16.125',2.05
'0:16.129',2.06
'0:16.133',2.22
'0:16.137',2.14
'0:16.141',2.3
'0:16.145',2.41
'0:16.148',2.14
'0:16.152',1.87
'0:16.156',1.81
'0:16.160',1.75
'0:16.164',1.66
'0:16.168',1.51
'0:16.172',1.5
'0:16.176',1.66
'0:16.180',1.7
'0:16.184',1.48
'0:16.188',1.02
'0:16.191',0.71
'0:16.195',0.4
'0:16.199',0.05
'0:16.203',-0.32
'0:16.207',-0.69
'0:16.211',-0.97
'0:16.215',-1.21
'0:16.219',-1.54
'0:16.223',-1.74
'0:16.227',-1.68
'0:16.230',-1.92
'0:16.234',-2.45
'0:16.238',-2.54
'0:16.242',-1.81
'0:16.246',-0.23
'0:16.250',2.27
'0:16.254',5.55
'0:16.258',8.97
'0:16.262',10.92
'0:16.266',8.3
'0:16.270',2.57
'0:16.273',-2.48
'0:16.277',-5.98
'0:16.281',-8.13
'0:16.285',-9.39
'0:16.289',-9.64
'0:16.293',-9.01
'0:16.297',-7.79
'0:16.301',-6.43
'0:16.305',-5.13
'0:16.309',-3.57
'0:16.313',-1.97
'0:16.316',-0.78
'0:16.320',-0.04
'0:16.324',0.37
'0:16.328',0.85
'0:16.332',1.39
'0:16.336',1.64
'0:16.340',1.77
'0:16.344',1.84
'0:16.348',1.97
'0:16.352',1.97
'0:16.355',1.72
'0:16.359',1.46
'0:16.363',1.9
'0:16.367',2.77
'0:16.371',3.5
'0:16.375',3.94
'0:16.379',4.32
'0:16.383',4.57
'0:16.387',4.96
'0:16.391',5.15
'0:16.395',4.72
'0:16.398',4.26
'0:16.402',3.83
'0:16.406',3.56
'0:16.410',3.18
'0:16.414',2.49
'0:16.418',2.02
'0:16.422',1.8
'0:16.426',1.26
'0:16.430',0.95
'0:16.434',0.93
'0:16.438',1.18
'0:16.441',1.4
'0:16.445',1.48
'0:16.449',1.82
'0:16.453',2.32
'0:16.457',2.23
'0:16.461',2.19
'0:16.465',1.91
'0:16.469',1.02
'0:16.473',0.06
'0:16.477',-0.61
'0:16.480',-1.03
'0:16.484',-1.16
'0:16.488',-1.54
'0:16.492',-2.73
'0:16.496',-3.86
'0:16.500',-4.39
'0:16.504',-4.05
'0:16.508',-3.44
'0:16.512',-2.97
'0:16.516',-3.18
'0:16.520',-3.78
'0:16.523',-3.82
'0:16.527',-3
'0:16.531',-2.4
'0:16.535',-1.92
'0:16.539',-1.12
'0:16.543',0.8
'0:16.547',3.42
'0:16.551',6.62
'0:16.555',9.69
'0:16.559',11.44
'0:16.563',10.05
'0:16.566',5.08
'0:16.570',0.07
'0:16.574',-3.62
'0:16.578',-5.92
'0:16.582',-7.19
'0:16.586',-8.35
'0:16.590',-9.11
'0:16.594',-8.97
'0:16.598',-7.95
'0:16.602',-6.79
'0:16.605',-5.47
'0:16.609',-4.31
'0:16.613',-3.2
'0:16.617',-2.54
'0:16.621',-1.77
'0:16.625',-0.68
'0:16.629',-0.03
'0:16.633',0.81
'0:16.637',1
'0:16.641',0.08
'0:16.645',-0.33
'0:16.648',0.18
'0:16.652',0.79
'0:16.656',1.34
'0:16.660',1.54
'0:16.664',1.62
'0:16.668',1.88
'0:16.672',2.14
'0:16.676',2.57
'0:16.680',2.97
'0:16.684',3.39
'0:16.688',3.53
'0:16.691',3.53
'0:16.695',3.4
'0:16.699',3.26
'0:16.703',3.26
'0:16.707',3.29
'0:16.711',3.25
'0:16.715',3.2
'0:16.719',3.1
'0:16.723',3.13
'0:16.727',3.05
'0:16.730',2.73
'0:16.734',2.57
'0:16.738',2.59
'0:16.742',2.47
'0:16.746',2.42
'0:16.750',2.32
'0:16.754',1.99
'0:16.758',1.78
'0:16.762',1.6
'0:16.766',0.94
'0:16.770',0.34
'0:16.773',0.26
'0:16.777',0.3
'0:16.781',0.35
'0:16.785',0.41
'0:16.789',0.47
'0:16.793',0.39
'0:16.797',0.17
'0:16.801',0.04
'0:16.805',0.23
'0:16.809',0.19
'0:16.813',-0.09
'0:16.816',-0.2
'0:16.820',-0.2
'0:16.824',-0.79
'0:16.828',-1.89
'0:16.832',-2.5
'0:16.836',-2.02
'0:16.840',-0.37
'0:16.844',2.25
'0:16.848',5.49
'0:16.852',8.78
'0:16.855',11.72
'0:16.859',12.04
'0:16.863',7.74
'0:16.867',2.04
'0:16.871',-2.7
'0:16.875',-6.14
'0:16.879',-8.8
'0:16.883',-10.45
'0:16.887',-11.26
'0:16.891',-11.32
'0:16.895',-10.19
'0:16.898',-8.25
'0:16.902',-6.42
'0:16.906',-5.14
'0:16.910',-4.02
'0:16.914',-3.46
'0:16.918',-3.36
'0:16.922',-3.31
'0:16.926',-2.68
'0:16.930',-1.67
'0:16.934',-0.6
'0:16.938',0.07
'0:16.941',0.58
'0:16.945',1.09
'0:16.949',1.42
'0:16.953',1.99
'0:16.957',2.52
'0:16.961',2.7
'0:16.965',2.49
'0:16.969',2.47
'0:16.973',2.9
'0:16.977',3.38
'0:16.980',3.45
'0:16.984',3.09
'0:16.988',2.73
'0:16.992',2.53
'0:16.996',2.5
'0:17.000',2.63
'0:17.004',2.77
'0:17.008',2.97
'0:17.012',2.85
'0:17.016',2.51
'0:17.020',1.97
'0:17.023',1.53
'0:17.027',1.17
'0:17.031',1.13
'0:17.035',1.33
'0:17.039',1.31
'0:17.043',0.99
'0:17.047',1.07
'0:17.051',1.82
'0:17.055',2.44
'0:17.059',2.18
'0:17.063',1.6
'0:17.066',0.96
'0:17.070',0.46
'0:17.074',0.16
'0:17.078',-0.08
'0:17.082',-0.71
'0:17.086',-1.63
'0:17.090',-2.19
'0:17.094',-2.29
'0:17.098',-2.24
'0:17.102',-2.57
'0:17.105',-3.12
'0:17.109',-3.43
'0:17.113',-3.25
'0:17.117',-2.93
'0:17.121',-3.1
'0:17.125',-3.54
'0:17.129',-3.8
'0:17.133',-3.76
'0:17.137',-2.98
'0:17.141',-1.03
'0:17.145',1.82
'0:17.148',4.99
'0:17.152',7.77
'0:17.156',7.55
'0:17.160',3.8
'0:17.164',-0.79
'0:17.168',-4.56
'0:17.172',-7.24
'0:17.176',-9.19
'0:17.180',-10.13
'0:17.184',-10.35
'0:17.188',-9.79
'0:17.191',-8.56
'0:17.195',-7.06
'0:17.199',-5.21
'0:17.203',-3.52
'0:17.207',-2.24
'0:17.211',-1.45
'0:17.215',-1.22
'0:17.219',-1.14
'0:17.223',-0.84
'0:17.227',-0.51
'0:17.230',-0.23
'0:17.234',-0.1
'0:17.238',0.04
'0:17.242',0.34
'0:17.246',0.72
'0:17.250',1.05
'0:17.254',1.28
'0:17.258',1.64
'0:17.262',1.99
'0:17.266',2.33
'0:17.270',2.76
'0:17.273',3.26
'0:17.277',3.58
'0:17.281',3.49
'0:17.285',3.47
'0:17.289',3.75
'0:17.293',3.73
'0:17.297',3.1
'0:17.301',2.35
'0:17.305',1.57
'0:17.309',0.84
'0:17.313',0.51
'0:17.316',0.57
'0:17.320',0.81
'0:17.324',0.84
'0:17.328',0.63
'0:17.332',0.63
'0:17.336',1.2
'0:17.340',1.89
'0:17.344',2.13
'0:17.348',2.15
'0:17.352',2.13
'0:17.355',1.75
'0:17.359',0.97
'0:17.363',0.32
'0:17.367',0.55
'0:17.371',0.59
'0:17.375',0.11
'0:17.379',-0.77
'0:17.383',-1.63
'0:17.387',-2.72
'0:17.391',-3.98
'0:17.395',-5.12
'0:17.398',-5.59
'0:17.402',-5.13
'0:17.406',-4.77
'0:17.410',-4.52
'0:17.414',-4.05
'0:17.418',-4.24
'0:17.422',-4.86
'0:17.426',-5.06
'0:17.430',-4.5
'0:17.434',-2.94
'0:17.438',-0.4
'0:17.441',2.79
'0:17.445',5.94
'0:17.449',8.46
'0:17.453',7.79
'0:17.457',3.53
'0:17.461',-1.23
'0:17.465',-4.94
'0:17.469',-7.38
'0:17.473',-9.02
'0:17.477',-10.01
'0:17.480',-10.01
'0:17.484',-9.07
'0:17.488',-7.58
'0:17.492',-5.71
'0:17.496',-3.68
'0:17.500',-2.03
'0:17.504',-0.72
'0:17.508',0.25
'0:17.512',0.95
'0:17.516',1.27
'0:17.520',1.55
'0:17.523',1.99
'0:17.527',2.3
'0:17.531',2.47
'0:17.535',2.64
'0:17.539',2.79
'0:17.543',2.84
'0:17.547',2.8
'0:17.551',3.09
'0:17.555',3.45
'0:17.559',3.94
'0:17.563',4.17
'0:17.566',3.86
'0:17.570',3.33
'0:17.574',2.69
'0:17.578',2.34
'0:17.582',2.33
'0:17.586',2.44
'0:17.590',2.38
'0:17.594',2.01
'0:17.598',1.7
'0:17.602',1.43
'0:17.605',1.17
'0:17.609',0.75
'0:17.613',0.28
'0:17.617',0.25
'0:17.621',0.5
'0:17.625',0.77
'0:17.629',1.03
'0:17.633',1.09
'0:17.637',1.33
'0:17.641',1.74
'0:17.645',1.95
'0:17.648',1.9
'0:17.652',1.63
'0:17.656',1.37
'0:17.660',1.07
'0:17.664',0.6
'0:17.668',-0.12
'0:17.672',-0.96
'0:17.676',-1.47
'0:17.680',-1.6
'0:17.684',-1.76
'0:17.688',-2.45
'0:17.691',-3.32
'0:17.695',-3.82
'0:17.699',-3.69
'0:17.703',-3.64
'0:17.707',-3.6
'0:17.711',-3.66
'0:17.715',-3.85
'0:17.719',-3.93
'0:17.723',-3.87
'0:17.727',-3.81
'0:17.730',-2.92
'0:17.734',-0.69
'0:17.738',2.77
'0:17.742',6.58
'0:17.746',9.97
'0:17.750',11.9
'0:17.754',9.72
'0:17.758',4.69
'0:17.762',0.28
'0:17.766',-2.72
'0:17.770',-5.2
'0:17.773',-7.32
'0:17.777',-8.64
'0:17.781',-8.8
'0:17.785',-7.93
'0:17.789',-6.45
'0:17.793',-4.87
'0:17.797',-3.15
'0:17.801',-1.62
'0:17.805',-0.48
'0:17.809',0.36
'0:17.813',0.76
'0:17.816',1.04
'0:17.820',1.27
'0:17.824',1.27
'0:17.828',1.35
'0:17.832',1.58
'0:17.836',1.64
'0:17.840',1.36
'0:17.844',1.01
'0:17.848',0.52
'0:17.852',0.05
'0:17.855',0.35
'0:17.859',1.22
'0:17.863',1.74
'0:17.867',2.21
'0:17.871',2.45
'0:17.875',2.67
'0:17.879',2.38
'0:17.883',1.79
'0:17.887',1.47
'0:17.891',1.69
'0:17.895',1.63
'0:17.898',1.14
'0:17.902',0.74
'0:17.906',0.69
'0:17.910',0.64
'0:17.914',0.71
'0:17.918',0.61
'0:17.922',0.48
'0:17.926',0
'0:17.930',-0.38
'0:17.934',-0.11
'0:17.938',0.72
'0:17.941',1.64
'0:17.945',2.25
'0:17.949',2.22
'0:17.953',1.91
'0:17.957',1.55
'0:17.961',1.01
'0:17.965',0.35
'0:17.969',-0.1
'0:17.973',-0.47
'0:17.977',-1.02
'0:17.980',-1.77
'0:17.984',-2.42
'0:17.988',-2.72
'0:17.992',-2.6
'0:17.996',-2.47
'0:18.000',-2.29
'0:18.004',-2.24
'0:18.008',-2.3
'0:18.012',-2.36
'0:18.016',-2.48
'0:18.020',-2.6
'0:18.023',-2.31
'0:18.027',-1.33
'0:18.031',0.31
'0:18.035',2.61
'0:18.039',5.25
'0:18.043',7.78
'0:18.047',8.66
'0:18.051',5.61
'0:18.055',0.47
'0:18.059',-3.94
'0:18.063',-6.94
'0:18.066',-8.92
'0:18.070',-10.18
'0:18.074',-10.49
'0:18.078',-10.01
'0:18.082',-8.97
'0:18.086',-7.48
'0:18.090',-5.88
'0:18.094',-4.37
'0:18.098',-3.08
'0:18.102',-2.09
'0:18.105',-1.18
'0:18.109',-0.36
'0:18.113',0.25
'0:18.117',0.54
'0:18.121',0.76
'0:18.125',1.03
'0:18.129',1.38
'0:18.133',1.67
'0:18.137',1.93
'0:18.141',2.13
'0:18.145',2.43
'0:18.148',2.99
'0:18.152',3.62
'0:18.156',4.29
'0:18.160',4.75
'0:18.164',4.98
'0:18.168',5.27
'0:18.172',5.44
'0:18.176',5.48
'0:18.180',5.21
'0:18.184',4.69
'0:18.188',4.2
'0:18.191',3.67
'0:18.195',3.34
'0:18.199',3.14
'0:18.203',3.02
'0:18.207',2.75
'0:18.211',2.2
'0:18.215',1.58
'0:18.219',1.54
'0:18.223',2.22
'0:18.227',2.87
'0:18.230',3.22
'0:18.234',3.29
'0:18.238',3.4
'0:18.242',3.62
'0:18.246',3.45
'0:18.250',2.84
'0:18.254',2.27
'0:18.258',1.52
'0:18.262',1.2
'0:18.266',1.17
'0:18.270',0.77
'0:18.273',0.43
'0:18.277',-0.11
'0:18.281',-0.66
'0:18.285',-1.03
'0:18.289',-1.28
'0:18.293',-1.59
'0:18.297',-1.77
'0:18.301',-1.65
'0:18.305',-1.63
'0:18.309',-1.57
'0:18.313',-1.78
'0:18.316',-2.02
'0:18.320',-2.17
'0:18.324',-1.5
'0:18.328',0.33
'0:18.332',3.46
'0:18.336',6.53
'0:18.340',9.73
'0:18.344',11.04
'0:18.348',8.07
'0:18.352',2.82
'0:18.355',-1.77
'0:18.359',-4.71
'0:18.363',-6.94
'0:18.367',-8.78
'0:18.371',-9.92
'0:18.375',-10.25
'0:18.379',-9.6
'0:18.383',-7.86
'0:18.387',-5.91
'0:18.391',-4.34
'0:18.395',-3.08
'0:18.398',-1.99
'0:18.402',-1.08
'0:18.406',-0.55
'0:18.410',-0.08
'0:18.414',0.19
'0:18.418',0.58
'0:18.422',1.03
'0:18.426',1.46
'0:18.430',1.56
'0:18.434',0.76
'0:18.438',0.88
'0:18.441',1.89
'0:18.445',2.8
'0:18.449',3.37
'0:18.453',2.89
'0:18.457',2.73
'0:18.461',3.22
'0:18.465',3.78
'0:18.469',3.47
'0:18.473',2.84
'0:18.477',3.25
'0:18.480',3.41
'0:18.484',2.66
'0:18.488',2.26
'0:18.492',3.03
'0:18.496',2.66
'0:18.500',1.79
'0:18.504',1.1
'0:18.508',1.11
'0:18.512',1.18
'0:18.516',0.7
'0:18.520',0.55
'0:18.523',1.12
'0:18.527',1.58
'0:18.531',1.23
'0:18.535',1.21
'0:18.539',1.7
'0:18.543',2.29
'0:18.547',2.49
'0:18.551',2.11
'0:18.555',0.57
'0:18.559',0.79
'0:18.563',1.32
'0:18.566',0.97
'0:18.570',-0.07
'0:18.574',-0.41
'0:18.578',-0.34
'0:18.582',-0.95
'0:18.586',-1.86
'0:18.590',-2.3
'0:18.594',-2.43
'0:18.598',-3.09
'0:18.602',-3.18
'0:18.605',-3.2
'0:18.609',-2.7
'0:18.613',-2.22
'0:18.617',-2.54
'0:18.621',-2.11
'0:18.625',0.41
'0:18.629',3.62
'0:18.633',7.19
'0:18.637',10.68
'0:18.641',13.06
'0:18.645',11.42
'0:18.648',6.81
'0:18.652',0.43
'0:18.656',-5.33
'0:18.660',-7.72
'0:18.664',-9.27
'0:18.668',-11.7
'0:18.672',-12.76
'0:18.676',-11.5
'0:18.680',-9.62
'0:18.684',-9.3
'0:18.688',-8.72
'0:18.691',-6.92
'0:18.695',-5.31
'0:18.699',-3.74
'0:18.703',-2.73
'0:18.707',-3.02
'0:18.711',-3.63
'0:18.715',-2.51
'0:18.719',-1.46
'0:18.723',-1.68
'0:18.727',-1.64
'0:18.730',-1.35
'0:18.734',-0.78
'0:18.738',-0.29
'0:18.742',0.27
'0:18.746',0.63
'0:18.750',0.76
'0:18.754',1.3
'0:18.758',2.07
'0:18.762',2.5
'0:18.766',2.47
'0:18.770',2.27
'0:18.773',2.15
'0:18.777',2.02
'0:18.781',1.91
'0:18.785',1.84
'0:18.789',1.72
'0:18.793',1.45
'0:18.797',0.99
'0:18.801',0.43
'0:18.805',-0.08
'0:18.809',-0.33
'0:18.813',-0.32
'0:18.816',-0.16
'0:18.820',0.05
'0:18.824',0.41
'0:18.828',0.74
'0:18.832',0.91
'0:18.836',1
'0:18.840',1.1
'0:18.844',1.02
'0:18.848',0.81
'0:18.852',0.53
'0:18.855',0.49
'0:18.859',0.47
'0:18.863',0.21
'0:18.867',-0.32
'0:18.871',-0.77
'0:18.875',-1.37
'0:18.879',-1.86
'0:18.883',-2.08
'0:18.887',-2.1
'0:18.891',-2.28
'0:18.895',-2.51
'0:18.898',-2.73
'0:18.902',-2.92
'0:18.906',-3.16
'0:18.910',-3.33
'0:18.914',-3.33
'0:18.918',-3.18
'0:18.922',-2.63
'0:18.926',-1.08
'0:18.930',1.72
'0:18.934',5.48
'0:18.938',9.45
'0:18.941',11.94
'0:18.945',10.02
'0:18.949',4.74
'0:18.953',-0.33
'0:18.957',-4.11
'0:18.961',-6.92
'0:18.965',-8.58
'0:18.969',-9.3
'0:18.973',-9.22
'0:18.977',-8.47
'0:18.980',-7.37
'0:18.984',-6.19
'0:18.988',-4.8
'0:18.992',-3.36
'0:18.996',-1.94
'0:19.000',-0.99
'0:19.004',-0.55
'0:19.008',-0.27
'0:19.012',0
'0:19.016',-0.02
'0:19.020',-0.14
'0:19.023',0.04
'0:19.027',0.61
'0:19.031',1.23
'0:19.035',1.7
'0:19.039',1.75
'0:19.043',1.7
'0:19.047',1.93
'0:19.051',2.13
'0:19.055',2.43
'0:19.059',2.84
'0:19.063',2.93
'0:19.066',2.88
'0:19.070',2.99
'0:19.074',3.11
'0:19.078',3
'0:19.082',2.87
'0:19.086',2.8
'0:19.090',2.76
'0:19.094',2.42
'0:19.098',1.88
'0:19.102',1.58
'0:19.105',1.38
'0:19.109',1.28
'0:19.113',1
'0:19.117',0.61
'0:19.121',0.4
'0:19.125',0.53
'0:19.129',0.79
'0:19.133',1.1
'0:19.137',1.3
'0:19.141',1.41
'0:19.145',1.16
'0:19.148',0.95
'0:19.152',0.66
'0:19.156',0.32
'0:19.160',-0.28
'0:19.164',-1.16
'0:19.168',-1.96
'0:19.172',-2.46
'0:19.176',-2.78
'0:19.180',-2.97
'0:19.184',-2.73
'0:19.188',-2.54
'0:19.191',-2.7
'0:19.195',-2.62
'0:19.199',-2.58
'0:19.203',-2.66
'0:19.207',-3.16
'0:19.211',-3.81
'0:19.215',-3.82
'0:19.219',-2.69
'0:19.223',-0.58
'0:19.227',2.39
'0:19.230',5.78
'0:19.234',9.13
'0:19.238',10.65
'0:19.242',7.83
'0:19.246',2.73
'0:19.250',-1.51
'0:19.254',-4.41
'0:19.258',-6.53
'0:19.262',-8.21
'0:19.266',-8.91
'0:19.270',-8.29
'0:19.273',-6.94
'0:19.277',-5.25
'0:19.281',-3.68
'0:19.285',-2.2
'0:19.289',-1.04
'0:19.293',-0.32
'0:19.297',0.19
'0:19.301',0.4
'0:19.305',0.24
'0:19.309',0.14
'0:19.313',0.21
'0:19.316',0.38
'0:19.320',0.67
'0:19.324',0.93
'0:19.328',1.18
'0:19.332',1.76
'0:19.336',2.57
'0:19.340',3.22
'0:19.344',3.4
'0:19.348',3.43
'0:19.352',3.05
'0:19.355',3.11
'0:19.359',3.8
'0:19.363',4.37
'0:19.367',4.26
'0:19.371',3.78
'0:19.375',3.38
'0:19.379',3.15
'0:19.383',3.28
'0:19.387',3.2
'0:19.391',2.77
'0:19.395',2.46
'0:19.398',2.26
'0:19.402',2.07
'0:19.406',2.13
'0:19.410',2.4
'0:19.414',2.5
'0:19.418',2.66
'0:19.422',2.75
'0:19.426',2.84
'0:19.430',2.84
'0:19.434',2.91
'0:19.438',2.53
'0:19.441',1.87
'0:19.445',1.39
'0:19.449',0.97
'0:19.453',0.56
'0:19.457',-0.22
'0:19.461',-0.99
'0:19.465',-1.57
'0:19.469',-2.1
'0:19.473',-2.37
'0:19.477',-2.41
'0:19.480',-2.64
'0:19.484',-2.82
'0:19.488',-2.78
'0:19.492',-2.6
'0:19.496',-2.81
'0:19.500',-3.51
'0:19.504',-4.43
'0:19.508',-5.08
'0:19.512',-4.82
'0:19.516',-3.29
'0:19.520',-1.16
'0:19.523',1.31
'0:19.527',4.12
