'0:00.000',2.67
'0:00.004',3.22
'0:00.008',3.79
'0:00.012',4.31
'0:00.016',4.63
'0:00.020',4.63
'0:00.023',4.37
'0:00.027',4
'0:00.031',3.5
'0:00.035',2.84
'0:00.039',2.06
'0:00.043',1.35
'0:00.047',0.65
'0:00.051',-0.06
'0:00.055',-0.69
'0:00.059',-1.26
'0:00.063',-1.72
'0:00.066',-2.14
'0:00.070',-2.5
'0:00.074',-2.77
'0:00.078',-2.78
'0:00.082',-2.61
'0:00.086',-2.41
'0:00.090',-2.15
'0:00.094',-1.82
'0:00.098',-1.58
'0:00.102',-1.41
'0:00.105',-1.51
'0:00.109',-1.51
'0:00.113',-1.34
'0:00.117',-1.14
'0:00.121',-0.98
'0:00.125',-0.87
'0:00.129',-0.85
'0:00.133',-0.92
'0:00.137',-1.09
'0:00.141',-0.98
'0:00.145',-0.78
'0:00.148',-0.59
'0:00.152',-0.66
'0:00.156',-0.99
'0:00.160',-1.24
'0:00.164',-1.35
'0:00.168',-1.57
'0:00.172',-1.78
'0:00.176',-2.15
'0:00.180',-2.56
'0:00.184',-2.85
'0:00.188',-3.06
'0:00.191',-3.23
'0:00.195',-3.26
'0:00.199',-3.21
'0:00.203',-2.9
'0:00.207',-2.73
'0:00.211',-2.53
'0:00.215',-2.64
'0:00.219',-2.99
'0:00.223',-3.35
'0:00.227',-3.59
'0:00.230',-3.37
'0:00.234',-2.6
'0:00.238',-0.82
'0:00.242',3.31
'0:00.246',9.29
'0:00.250',15.32
'0:00.254',20.14
'0:00.258',23.77
'0:00.262',24.69
'0:00.266',24.65
'0:00.270',24.65
'0:00.273',2.21
'0:00.277',-3.83
'0:00.281',-6.81
'0:00.285',-7.88
'0:00.289',-8.11
'0:00.293',-8.02
'0:00.297',-7.84
'0:00.301',-7.6
'0:00.305',-7.17
'0:00.309',-7.04
'0:00.313',-7.04
'0:00.316',-5.37
'0:00.320',-4.83
'0:00.324',-4.34
'0:00.328',-3.82
'0:00.332',-3.8
'0:00.336',-2.57
'0:00.340',-2.11
'0:00.344',-1.64
'0:00.348',-1.16
'0:00.352',-1.14
'0:00.355',-0.2
'0:00.359',0.08
'0:00.363',0.08
'0:00.367',0.08
'0:00.371',2.12
'0:00.375',3.01
'0:00.379',3.84
'0:00.383',4.53
'0:00.387',4.71
'0:00.391',5.58
'0:00.395',5.7
'0:00.398',5.47
'0:00.402',5.07
'0:00.406',4.62
'0:00.410',4.01
'0:00.414',3.18
'0:00.418',2.25
'0:00.422',1.33
'0:00.426',0.48
'0:00.430',-0.28
'0:00.434',-0.94
'0:00.438',-1.48
'0:00.441',-1.89
'0:00.445',-2.23
'0:00.449',-2.52
'0:00.453',-2.73
'0:00.457',-2.82
'0:00.461',-2.91
'0:00.465',-2.94
'0:00.469',-2.97
'0:00.473',-2.97
'0:00.477',-2.83
'0:00.480',-2.56
'0:00.484',-2.24
'0:00.488',-1.95
'0:00.492',-1.7
'0:00.496',-1.58
'0:00.500',-1.51
'0:00.504',-1.53
'0:00.508',-1.46
'0:00.512',-1.42
'0:00.516',-1.35
'0:00.520',-1.19
'0:00.523',-1.02
'0:00.527',-0.88
'0:00.531',-0.83
'0:00.535',-0.94
'0:00.539',-1.11
'0:00.543',-1.17
'0:00.547',-1.23
'0:00.551',-1.43
'0:00.555',-1.82
'0:00.559',-2.16
'0:00.563',-2.46
'0:00.566',-2.74
'0:00.570',-2.82
'0:00.574',-2.72
'0:00.578',-2.63
'0:00.582',-2.65
'0:00.586',-2.68
'0:00.590',-2.61
'0:00.594',-2.35
'0:00.598',-2.14
'0:00.602',-2.19
'0:00.605',-2.33
'0:00.609',-2.03
'0:00.613',-1.16
'0:00.617',0.5
'0:00.621',4.03
'0:00.625',9.73
'0:00.629',14.97
'0:00.633',24.84
'0:00.637',28.14
'0:00.641',27.95
'0:00.645',22.15
'0:00.648',12.17
'0:00.652',2.7
'0:00.656',-3.51
'0:00.660',-6.71
'0:00.664',-7.91
'0:00.668',-8.5
'0:00.672',-8.55
'0:00.676',-8.26
'0:00.680',-7.82
'0:00.684',-7.35
'0:00.688',-6.95
'0:00.691',-6.61
'0:00.695',-6.23
'0:00.699',-5.78
'0:00.703',-5.46
'0:00.707',-5.03
'0:00.711',-4.37
'0:00.715',-3.71
'0:00.719',-3.13
'0:00.723',-2.55
'0:00.727',-1.93
'0:00.730',-1.37
'0:00.734',-0.69
'0:00.738',-0.03
'0:00.742',0.67
'0:00.746',1.38
'0:00.750',2.2
'0:00.754',3.18
'0:00.758',4.03
'0:00.762',4.74
'0:00.766',5.16
'0:00.770',5.26
'0:00.773',5.15
'0:00.777',4.85
'0:00.781',4.61
'0:00.785',4.18
'0:00.789',3.7
'0:00.793',3.18
'0:00.797',2.53
'0:00.801',1.7
'0:00.805',0.87
'0:00.809',0.04
'0:00.813',-0.76
'0:00.816',-1.35
'0:00.820',-1.81
'0:00.824',-2.23
'0:00.828',-2.5
'0:00.832',-2.63
'0:00.836',-2.66
'0:00.840',-2.56
'0:00.844',-2.39
'0:00.848',-2.13
'0:00.852',-2.06
'0:00.855',-1.66
'0:00.859',-1.53
'0:00.863',-1.63
'0:00.867',-1.93
'0:00.871',-1.89
'0:00.875',-1.72
'0:00.879',-1.39
'0:00.883',-1.1
'0:00.887',-0.92
'0:00.891',-0.67
'0:00.895',-0.48
'0:00.898',-0.33
'0:00.902',-0.14
'0:00.906',-0.02
'0:00.910',0
'0:00.914',-0.1
'0:00.918',-0.34
'0:00.922',-0.43
'0:00.926',-0.55
'0:00.930',-0.78
'0:00.934',-1.16
'0:00.938',-1.65
'0:00.941',-2.09
'0:00.945',-2.47
'0:00.949',-2.68
'0:00.953',-2.71
'0:00.957',-2.73
'0:00.961',-2.75
'0:00.965',-2.7
'0:00.969',-2.6
'0:00.973',-2.63
'0:00.977',-2.64
'0:00.980',-2.49
'0:00.984',-2.46
'0:00.988',-2.53
'0:00.992',-2.43
'0:00.996',-1.79
'0:01.000',-0.23
'0:01.004',1.95
'0:01.008',7.05
'0:01.012',13.66
'0:01.016',19.59
'0:01.020',23.9
'0:01.023',26.3
'0:01.027',24.53
'0:01.031',17.12
'0:01.035',6.68
'0:01.039',-1.77
'0:01.043',-6.61
'0:01.047',-8.6
'0:01.051',-8.98
'0:01.055',-8.72
'0:01.059',-8.35
'0:01.063',-8
'0:01.066',-7.5
'0:01.070',-6.92
'0:01.074',-6.34
'0:01.078',-5.78
'0:01.082',-5.34
'0:01.086',-4.97
'0:01.090',-4.54
'0:01.094',-3.99
'0:01.098',-3.61
'0:01.102',-3.1
'0:01.105',-2.54
'0:01.109',-2.01
'0:01.113',-1.59
'0:01.117',-1.16
'0:01.121',-0.55
'0:01.125',0.14
'0:01.129',0.82
'0:01.133',1.43
'0:01.137',2.02
'0:01.141',2.65
'0:01.145',3.35
'0:01.148',4.04
'0:01.152',4.51
'0:01.156',4.7
'0:01.160',4.56
'0:01.164',4.28
'0:01.168',3.98
'0:01.172',3.52
'0:01.176',2.91
'0:01.180',2.24
'0:01.184',1.39
'0:01.188',0.57
'0:01.191',-0.08
'0:01.195',-0.69
'0:01.199',-1.23
'0:01.203',-1.77
'0:01.207',-2.19
'0:01.211',-2.4
'0:01.215',-2.6
'0:01.219',-2.7
'0:01.223',-2.72
'0:01.227',-2.51
'0:01.230',-2.15
'0:01.234',-2.02
'0:01.238',-2.1
'0:01.242',-2.15
'0:01.246',-2.24
'0:01.250',-2.17
'0:01.254',-1.97
'0:01.258',-1.81
'0:01.262',-1.61
'0:01.266',-1.44
'0:01.270',-1.41
'0:01.273',-1.53
'0:01.277',-1.7
'0:01.281',-1.75
'0:01.285',-1.57
'0:01.289',-1.39
'0:01.293',-1.19
'0:01.297',-1.03
'0:01.301',-0.9
'0:01.305',-0.78
'0:01.309',-0.71
'0:01.313',-0.83
'0:01.316',-1.4
'0:01.320',-1.82
'0:01.324',-2.21
'0:01.328',-2.48
'0:01.332',-2.73
'0:01.336',-2.85
'0:01.340',-2.82
'0:01.344',-2.81
'0:01.348',-2.85
'0:01.352',-2.77
'0:01.355',-2.63
'0:01.359',-2.49
'0:01.363',-2.47
'0:01.367',-2.67
'0:01.371',-2.85
'0:01.375',-2.75
'0:01.379',-1.98
'0:01.383',-0.1
'0:01.387',3.83
'0:01.391',9.54
'0:01.395',15.77
'0:01.398',21
'0:01.402',24.57
'0:01.406',26.27
'0:01.410',24.65
'0:01.414',17.39
'0:01.418',7.52
'0:01.422',-0.39
'0:01.426',-5
'0:01.430',-7.11
'0:01.434',-7.84
'0:01.438',-7.94
'0:01.441',-7.69
'0:01.445',-7.39
'0:01.449',-7.16
'0:01.453',-6.86
'0:01.457',-6.42
'0:01.461',-5.99
'0:01.465',-5.66
'0:01.469',-5.22
'0:01.473',-4.66
'0:01.477',-4.03
'0:01.480',-3.54
'0:01.484',-3
'0:01.488',-2.46
'0:01.492',-2
'0:01.496',-1.63
'0:01.500',-1.18
'0:01.504',-0.52
'0:01.508',0.26
'0:01.512',0.91
'0:01.516',1.59
'0:01.520',2.33
'0:01.523',3.09
'0:01.527',3.77
'0:01.531',4.33
'0:01.535',4.81
'0:01.539',5.21
'0:01.543',5.31
'0:01.547',5.15
'0:01.551',4.8
'0:01.555',4.32
'0:01.559',3.81
'0:01.563',3.28
'0:01.566',2.4
'0:01.570',1.46
'0:01.574',0.47
'0:01.578',-0.4
'0:01.582',-1.08
'0:01.586',-1.62
'0:01.590',-2.17
'0:01.594',-2.55
'0:01.598',-2.8
'0:01.602',-2.95
'0:01.605',-3.08
'0:01.609',-3.11
'0:01.613',-3.07
'0:01.617',-3.04
'0:01.621',-3.12
'0:01.625',-3.18
'0:01.629',-3.02
'0:01.633',-2.72
'0:01.637',-2.46
'0:01.641',-2.26
'0:01.645',-2.15
'0:01.648',-2.09
'0:01.652',-1.93
'0:01.656',-1.75
'0:01.660',-1.58
'0:01.664',-1.41
'0:01.668',-1.36
'0:01.672',-1.29
'0:01.676',-1.15
'0:01.680',-1.09
'0:01.684',-1.05
'0:01.688',-0.99
'0:01.691',-0.95
'0:01.695',-0.95
'0:01.699',-0.97
'0:01.703',-1.05
'0:01.707',-1.29
'0:01.711',-1.63
'0:01.715',-1.98
'0:01.719',-2.28
'0:01.723',-2.59
'0:01.727',-2.82
'0:01.730',-2.87
'0:01.734',-2.72
'0:01.738',-2.58
'0:01.742',-2.45
'0:01.746',-2.38
'0:01.750',-2.22
'0:01.754',-2.14
'0:01.758',-2.29
'0:01.762',-2.42
'0:01.766',-2.08
'0:01.770',-1.23
'0:01.773',0.77
'0:01.777',5
'0:01.781',11.31
'0:01.785',18.31
'0:01.789',24.23
'0:01.793',28.38
'0:01.797',29.3
'0:01.801',27.06
'0:01.805',9.23
'0:01.809',0.4
'0:01.813',-4.9
'0:01.816',-7.54
'0:01.820',-8.64
'0:01.824',-9
'0:01.828',-8.94
'0:01.832',-8.55
'0:01.836',-8.12
'0:01.840',-7.65
'0:01.844',-7.11
'0:01.848',-6.53
'0:01.852',-5.98
'0:01.855',-5.51
'0:01.859',-5.12
'0:01.863',-4.7
'0:01.867',-4.03
'0:01.871',-3.4
'0:01.875',-2.95
'0:01.879',-2.61
'0:01.883',-2.05
'0:01.887',-1.35
'0:01.891',-0.61
'0:01.895',0.16
'0:01.898',0.65
'0:01.902',1.14
'0:01.906',1.62
'0:01.910',2.33
'0:01.914',3.11
'0:01.918',3.87
'0:01.922',4.55
'0:01.926',5.04
'0:01.930',5.31
'0:01.934',5.29
'0:01.938',5
'0:01.941',4.52
'0:01.945',3.78
'0:01.949',2.95
'0:01.953',2.18
'0:01.957',1.4
'0:01.961',0.62
'0:01.965',-0.25
'0:01.969',-0.96
'0:01.973',-1.71
'0:01.977',-2.31
'0:01.980',-2.77
'0:01.984',-3.09
'0:01.988',-3.15
'0:01.992',-3.07
'0:01.996',-2.95
'0:02.000',-2.68
'0:02.004',-2.6
'0:02.008',-2.6
'0:02.012',-2.53
'0:02.016',-2.46
'0:02.020',-2.43
'0:02.023',-2.19
'0:02.027',-1.87
'0:02.031',-1.68
'0:02.035',-1.58
'0:02.039',-1.46
'0:02.043',-1.24
'0:02.047',-1.16
'0:02.051',-1.1
'0:02.055',-0.95
'0:02.059',-0.87
'0:02.063',-0.82
'0:02.066',-0.73
'0:02.070',-0.68
'0:02.074',-0.8
'0:02.078',-0.91
'0:02.082',-0.85
'0:02.086',-0.68
'0:02.090',-0.78
'0:02.094',-1.21
'0:02.098',-1.81
'0:02.102',-2.25
'0:02.105',-2.34
'0:02.109',-2.46
'0:02.113',-2.6
'0:02.117',-2.73
'0:02.121',-2.85
'0:02.125',-2.78
'0:02.129',-2.61
'0:02.133',-2.39
'0:02.137',-2.23
'0:02.141',-2.19
'0:02.145',-2.33
'0:02.148',-2.53
'0:02.152',-2.63
'0:02.156',-2.42
'0:02.160',-1.57
'0:02.164',0.76
'0:02.168',5.4
'0:02.172',11.55
'0:02.176',17.51
'0:02.180',22.16
'0:02.184',25.06
'0:02.188',24.57
'0:02.191',18.43
'0:02.195',8.42
'0:02.199',-0.25
'0:02.203',-5.3
'0:02.207',-7.45
'0:02.211',-8.03
'0:02.215',-8.03
'0:02.219',-7.78
'0:02.223',-7.29
'0:02.227',-6.73
'0:02.230',-6.26
'0:02.234',-5.78
'0:02.238',-5.27
'0:02.242',-4.8
'0:02.246',-4.32
'0:02.250',-3.85
'0:02.254',-3.34
'0:02.258',-2.86
'0:02.262',-2.39
'0:02.266',-1.98
'0:02.270',-1.56
'0:02.273',-1.05
'0:02.277',-0.4
'0:02.281',0.22
'0:02.285',0.94
'0:02.289',1.63
'0:02.293',2.1
'0:02.297',2.65
'0:02.301',3.19
'0:02.305',3.81
'0:02.309',4.41
'0:02.313',4.84
'0:02.316',5.19
'0:02.320',5.34
'0:02.324',5.22
'0:02.328',4.79
'0:02.332',4.32
'0:02.336',3.79
'0:02.340',3.22
'0:02.344',2.49
'0:02.348',1.74
'0:02.352',0.92
'0:02.355',0.09
'0:02.359',-0.61
'0:02.363',-1.16
'0:02.367',-1.74
'0:02.371',-2.11
'0:02.375',-2.31
'0:02.379',-2.36
'0:02.383',-2.36
'0:02.387',-2.27
'0:02.391',-2.1
'0:02.395',-1.86
'0:02.398',-1.67
'0:02.402',-1.61
'0:02.406',-1.75
'0:02.410',-1.87
'0:02.414',-1.87
'0:02.418',-1.8
'0:02.422',-1.75
'0:02.426',-1.7
'0:02.430',-1.65
'0:02.434',-1.49
'0:02.438',-1.32
'0:02.441',-1.29
'0:02.445',-1.31
'0:02.449',-1.29
'0:02.453',-1.19
'0:02.457',-1.02
'0:02.461',-0.88
'0:02.465',-0.89
'0:02.469',-0.9
'0:02.473',-0.96
'0:02.477',-1.12
'0:02.480',-1.29
'0:02.484',-1.7
'0:02.488',-2.26
'0:02.492',-2.71
'0:02.496',-2.94
'0:02.500',-3.16
'0:02.504',-3.25
'0:02.508',-3.26
'0:02.512',-3.22
'0:02.516',-3.04
'0:02.520',-2.89
'0:02.523',-2.73
'0:02.527',-2.56
'0:02.531',-2.53
'0:02.535',-2.74
'0:02.539',-3.09
'0:02.543',-3.26
'0:02.547',-3
'0:02.551',-2.04
'0:02.555',0.28
'0:02.559',4.81
'0:02.563',11.1
'0:02.566',17.65
'0:02.570',23.01
'0:02.574',26.89
'0:02.578',27.55
'0:02.582',22.65
'0:02.586',13.01
'0:02.590',3.4
'0:02.594',-2.99
'0:02.598',-6.41
'0:02.602',-8
'0:02.605',-8.56
'0:02.609',-8.53
'0:02.613',-8.27
'0:02.617',-7.96
'0:02.621',-7.63
'0:02.625',-7.29
'0:02.629',-6.85
'0:02.633',-6.27
'0:02.637',-5.71
'0:02.641',-5.27
'0:02.645',-4.82
'0:02.648',-4.32
'0:02.652',-3.66
'0:02.656',-3.03
'0:02.660',-2.49
'0:02.664',-1.98
'0:02.668',-1.41
'0:02.672',-0.77
'0:02.676',-0.17
'0:02.680',0.43
'0:02.684',1.09
'0:02.688',1.79
'0:02.691',2.67
'0:02.695',3.55
'0:02.699',4.21
'0:02.703',4.7
'0:02.707',5.09
'0:02.711',5.3
'0:02.715',5.25
'0:02.719',5
'0:02.723',4.54
'0:02.727',3.98
'0:02.730',3.35
'0:02.734',2.54
'0:02.738',1.65
'0:02.742',0.74
'0:02.746',-0.13
'0:02.750',-0.94
'0:02.754',-1.6
'0:02.758',-2.14
'0:02.762',-2.6
'0:02.766',-2.94
'0:02.770',-3.06
'0:02.773',-3.09
'0:02.777',-3.09
'0:02.781',-3.09
'0:02.785',-3.09
'0:02.789',-3.03
'0:02.793',-2.93
'0:02.797',-2.81
'0:02.801',-2.72
'0:02.805',-2.58
'0:02.809',-2.36
'0:02.813',-2.31
'0:02.816',-2.36
'0:02.820',-2.34
'0:02.824',-2.27
'0:02.828',-2.05
'0:02.832',-1.8
'0:02.836',-1.68
'0:02.840',-1.51
'0:02.844',-1.32
'0:02.848',-1.17
'0:02.852',-0.92
'0:02.855',-0.75
'0:02.859',-0.82
'0:02.863',-0.82
'0:02.867',-0.78
'0:02.871',-0.87
'0:02.875',-0.83
'0:02.879',-0.88
'0:02.883',-1.28
'0:02.887',-1.77
'0:02.891',-2.12
'0:02.895',-2.41
'0:02.898',-2.74
'0:02.902',-2.93
'0:02.906',-2.87
'0:02.910',-2.59
'0:02.914',-2.51
'0:02.918',-2.49
'0:02.922',-2.34
'0:02.926',-2.3
'0:02.930',-2.33
'0:02.934',-2.48
'0:02.938',-2.6
'0:02.941',-2.48
'0:02.945',-1.85
'0:02.949',-0.5
'0:02.953',2.71
'0:02.957',8.4
'0:02.961',15.49
'0:02.965',21.84
'0:02.969',26.38
'0:02.973',28.85
'0:02.977',27.06
'0:02.980',19.4
'0:02.984',8.54
'0:02.988',-0.4
'0:02.992',-5.71
'0:02.996',-8.35
'0:03.000',-9.39
'0:03.004',-9.45
'0:03.008',-9.11
'0:03.012',-8.62
'0:03.016',-8.09
'0:03.020',-7.42
'0:03.023',-6.73
'0:03.027',-6.1
'0:03.031',-5.56
'0:03.035',-5.19
'0:03.039',-4.83
'0:03.043',-4.21
'0:03.047',-3.45
'0:03.051',-2.85
'0:03.055',-2.56
'0:03.059',-1.98
'0:03.063',-1.23
'0:03.066',-0.64
'0:03.070',-0.05
'0:03.074',0.53
'0:03.078',1.09
'0:03.082',1.78
'0:03.086',2.46
'0:03.090',3.21
'0:03.094',3.95
'0:03.098',4.6
'0:03.102',5.24
'0:03.105',5.66
'0:03.109',5.75
'0:03.113',5.51
'0:03.117',5.07
'0:03.121',4.88
'0:03.125',4.45
'0:03.129',3.69
'0:03.133',2.96
'0:03.137',2.14
'0:03.141',1.11
'0:03.145',0.14
'0:03.148',-0.91
'0:03.152',-1.91
'0:03.156',-2.62
'0:03.160',-3.07
'0:03.164',-3.28
'0:03.168',-3.36
'0:03.172',-3.25
'0:03.176',-3.14
'0:03.180',-2.95
'0:03.184',-2.9
'0:03.188',-2.99
'0:03.191',-3.02
'0:03.195',-2.95
'0:03.199',-2.66
'0:03.203',-2.3
'0:03.207',-2.26
'0:03.211',-2.27
'0:03.215',-2.17
'0:03.219',-1.97
'0:03.223',-1.83
'0:03.227',-1.58
'0:03.230',-1.46
'0:03.234',-1.41
'0:03.238',-1.44
'0:03.242',-1.35
'0:03.246',-1.22
'0:03.250',-1.07
'0:03.254',-1.24
'0:03.258',-1.45
'0:03.262',-1.48
'0:03.266',-1.29
'0:03.270',-1.19
'0:03.273',-1.6
'0:03.277',-2.21
'0:03.281',-2.81
'0:03.285',-3.16
'0:03.289',-3.38
'0:03.293',-3.58
'0:03.297',-3.5
'0:03.301',-3.43
'0:03.305',-3.18
'0:03.309',-3.01
'0:03.313',-3.03
'0:03.316',-2.85
'0:03.320',-2.62
'0:03.324',-2.63
'0:03.328',-2.82
'0:03.332',-2.94
'0:03.336',-2.51
'0:03.340',-1.69
'0:03.344',0.45
'0:03.348',4.76
'0:03.352',10.62
'0:03.355',16.78
'0:03.359',21.52
'0:03.363',23.65
'0:03.367',20.09
'0:03.371',10.66
'0:03.375',1.19
'0:03.379',-5.04
'0:03.383',-8.1
'0:03.387',-9.07
'0:03.391',-8.99
'0:03.395',-8.44
'0:03.398',-7.63
'0:03.402',-6.76
'0:03.406',-6.24
'0:03.410',-5.73
'0:03.414',-5.1
'0:03.418',-4.55
'0:03.422',-4.07
'0:03.426',-3.66
'0:03.430',-3.38
'0:03.434',-2.93
'0:03.438',-2.41
'0:03.441',-2.02
'0:03.445',-1.64
'0:03.449',-1.32
'0:03.453',-0.9
'0:03.457',-0.36
'0:03.461',0.21
'0:03.465',1.08
'0:03.469',1.68
'0:03.473',2.27
'0:03.477',2.85
'0:03.480',3.2
'0:03.484',3.73
'0:03.488',4.28
'0:03.492',4.79
'0:03.496',5.12
'0:03.500',5.37
'0:03.504',5.06
'0:03.508',4.59
'0:03.512',4.14
'0:03.516',3.47
'0:03.520',2.61
'0:03.523',1.81
'0:03.527',1.3
'0:03.531',0.89
'0:03.535',0.22
'0:03.539',-0.74
'0:03.543',-1.41
'0:03.547',-1.65
'0:03.551',-1.65
'0:03.555',-1.75
'0:03.559',-2.09
'0:03.563',-2.28
'0:03.566',-2.16
'0:03.570',-1.88
'0:03.574',-1.65
'0:03.578',-1.53
'0:03.582',-1.51
'0:03.586',-1.42
'0:03.590',-1.41
'0:03.594',-1.51
'0:03.598',-1.65
'0:03.602',-1.51
'0:03.605',-1.32
'0:03.609',-1.19
'0:03.613',-1.14
'0:03.617',-1.17
'0:03.621',-1.17
'0:03.625',-0.97
'0:03.629',-0.8
'0:03.633',-0.7
'0:03.637',-0.53
'0:03.641',-0.47
'0:03.645',-0.44
'0:03.648',-0.38
'0:03.652',-0.41
'0:03.656',-0.46
'0:03.660',-0.8
'0:03.664',-1.11
'0:03.668',-1.54
'0:03.672',-1.85
'0:03.676',-2.16
'0:03.680',-2.37
'0:03.684',-2.35
'0:03.688',-2.31
'0:03.691',-2.36
'0:03.695',-2.43
'0:03.699',-2.41
'0:03.703',-2.37
'0:03.707',-2.36
'0:03.711',-2.63
'0:03.715',-2.94
'0:03.719',-2.99
'0:03.723',-2.87
'0:03.727',-2.35
'0:03.730',-1.42
'0:03.734',0.83
'0:03.738',4.51
'0:03.742',10.04
'0:03.746',15.7
'0:03.750',20.31
'0:03.754',23.42
'0:03.758',23.61
'0:03.762',18.49
'0:03.766',9.14
'0:03.770',0.61
'0:03.773',-4.67
'0:03.777',-7.2
'0:03.781',-8.04
'0:03.785',-7.94
'0:03.789',-7.58
'0:03.793',-7.23
'0:03.797',-6.92
'0:03.801',-6.57
'0:03.805',-6.12
'0:03.809',-5.69
'0:03.813',-5.17
'0:03.816',-4.69
'0:03.820',-4.25
'0:03.824',-3.83
'0:03.828',-3.37
'0:03.832',-2.83
'0:03.836',-2.31
'0:03.840',-1.85
'0:03.844',-1.44
'0:03.848',-0.96
'0:03.852',-0.29
'0:03.855',0.34
'0:03.859',1
'0:03.863',1.68
'0:03.867',2.38
'0:03.871',2.85
'0:03.875',3.48
'0:03.879',4
'0:03.883',4.32
'0:03.887',4.59
'0:03.891',4.86
'0:03.895',4.83
'0:03.898',4.6
'0:03.902',4.32
'0:03.906',3.93
'0:03.910',3.29
'0:03.914',2.62
'0:03.918',1.91
'0:03.922',1.18
'0:03.926',0.45
'0:03.930',-0.18
'0:03.934',-0.67
'0:03.938',-1.16
'0:03.941',-1.57
'0:03.945',-1.89
'0:03.949',-2.12
'0:03.953',-2.38
'0:03.957',-2.5
'0:03.961',-2.6
'0:03.965',-2.5
'0:03.969',-2.41
'0:03.973',-2.34
'0:03.977',-2.24
'0:03.980',-2.31
'0:03.984',-2.31
'0:03.988',-2.27
'0:03.992',-2.22
'0:03.996',-1.95
'0:04.000',-1.59
'0:04.004',-1.36
'0:04.008',-1.24
'0:04.012',-1.26
'0:04.016',-1.21
'0:04.020',-1.07
'0:04.023',-0.97
'0:04.027',-0.78
'0:04.031',-0.64
'0:04.035',-0.53
'0:04.039',-0.58
'0:04.043',-0.72
'0:04.047',-0.89
'0:04.051',-1.09
'0:04.055',-1.35
'0:04.059',-1.68
'0:04.063',-2.08
'0:04.066',-2.38
'0:04.070',-2.71
'0:04.074',-2.84
'0:04.078',-2.78
'0:04.082',-2.8
'0:04.086',-2.77
'0:04.090',-2.82
'0:04.094',-2.87
'0:04.098',-2.87
'0:04.102',-2.78
'0:04.105',-2.69
'0:04.109',-2.73
'0:04.113',-2.92
'0:04.117',-2.9
'0:04.121',-2.5
'0:04.125',-1.5
'0:04.129',1.08
'0:04.133',5.91
'0:04.137',12.37
'0:04.141',18.83
'0:04.145',23.93
'0:04.148',27.16
'0:04.152',26.79
'0:04.156',21.11
'0:04.160',11.38
'0:04.164',7.55
'0:04.168',7.56
'0:04.172',-7.47
'0:04.176',-8.33
'0:04.180',-8.58
'0:04.184',-8.57
'0:04.188',-8.31
'0:04.191',-7.94
'0:04.195',-7.55
'0:04.199',-7.12
'0:04.203',-6.61
'0:04.207',-6.05
'0:04.211',-5.49
'0:04.215',-4.94
'0:04.219',-4.44
'0:04.223',-3.94
'0:04.227',-3.43
'0:04.230',-2.94
'0:04.234',-2.39
'0:04.238',-1.76
'0:04.242',-1.25
'0:04.246',-0.73
'0:04.250',0.05
'0:04.254',0.96
'0:04.258',1.89
'0:04.262',2.8
'0:04.266',3.49
'0:04.270',4.09
'0:04.273',4.61
'0:04.277',5
'0:04.281',5.04
'0:04.285',4.8
'0:04.289',4.54
'0:04.293',4.27
'0:04.297',3.86
'0:04.301',3.4
'0:04.305',2.78
'0:04.309',2.1
'0:04.313',1.35
'0:04.316',0.53
'0:04.320',-0.32
'0:04.324',-1.11
'0:04.328',-1.74
'0:04.332',-2.11
'0:04.336',-2.38
'0:04.340',-2.58
'0:04.344',-2.82
'0:04.348',-2.9
'0:04.352',-2.85
'0:04.355',-2.85
'0:04.359',-2.82
'0:04.363',-2.87
'0:04.367',-2.92
'0:04.371',-2.8
'0:04.375',-2.7
'0:04.379',-2.62
'0:04.383',-2.48
'0:04.387',-2.45
'0:04.391',-2.29
'0:04.395',-2.09
'0:04.398',-1.97
'0:04.402',-1.85
'0:04.406',-1.75
'0:04.410',-1.65
'0:04.414',-1.51
'0:04.418',-1.42
'0:04.422',-1.36
'0:04.426',-1.14
'0:04.430',-0.76
'0:04.434',-0.53
'0:04.438',-0.54
'0:04.441',-0.67
'0:04.445',-0.72
'0:04.449',-0.68
'0:04.453',-0.79
'0:04.457',-1.06
'0:04.461',-1.43
'0:04.465',-1.84
'0:04.469',-2.14
'0:04.473',-2.41
'0:04.477',-2.71
'0:04.480',-2.82
'0:04.484',-2.66
'0:04.488',-2.56
'0:04.492',-2.43
'0:04.496',-2.27
'0:04.500',-2.15
'0:04.504',-2.12
'0:04.508',-2.15
'0:04.512',-2.31
'0:04.516',-2.29
'0:04.520',-1.78
'0:04.523',-0.71
'0:04.527',1.52
'0:04.531',5.78
'0:04.535',11.46
'0:04.539',18.3
'0:04.543',23.92
'0:04.547',27.78
'0:04.551',29.01
'0:04.555',25.02
'0:04.559',15.66
'0:04.563',4.99
'0:04.566',-2.58
'0:04.570',-6.69
'0:04.574',-8.49
'0:04.578',-9.06
'0:04.582',-9.01
'0:04.586',-8.63
'0:04.590',-8.24
'0:04.594',-7.84
'0:04.598',-7.5
'0:04.602',-7.02
'0:04.605',-6.44
'0:04.609',-5.89
'0:04.613',-5.29
'0:04.617',-4.8
'0:04.621',-4.34
'0:04.625',-3.78
'0:04.629',-3.22
'0:04.633',-2.69
'0:04.637',-2.12
'0:04.641',-1.51
'0:04.645',-0.8
'0:04.648',-0.12
'0:04.652',0.63
'0:04.656',1.22
'0:04.660',1.78
'0:04.664',2.53
'0:04.668',3.33
'0:04.672',4.09
'0:04.676',4.67
'0:04.680',5.14
'0:04.684',5.48
'0:04.688',5.56
'0:04.691',5.29
'0:04.695',4.68
'0:04.699',4.1
'0:04.703',3.54
'0:04.707',2.86
'0:04.711',2.03
'0:04.715',1.21
'0:04.719',0.35
'0:04.723',-0.33
'0:04.727',-0.91
'0:04.730',-1.45
'0:04.734',-1.99
'0:04.738',-2.31
'0:04.742',-2.41
'0:04.746',-2.39
'0:04.750',-2.29
'0:04.754',-2.26
'0:04.758',-2.24
'0:04.762',-2.17
'0:04.766',-2.14
'0:04.770',-2.09
'0:04.773',-2.04
'0:04.777',-2.04
'0:04.781',-2.01
'0:04.785',-1.93
'0:04.789',-1.89
'0:04.793',-1.8
'0:04.797',-1.73
'0:04.801',-1.64
'0:04.805',-1.65
'0:04.809',-1.58
'0:04.813',-1.41
'0:04.816',-1.25
'0:04.820',-1.12
'0:04.824',-0.97
'0:04.828',-0.8
'0:04.832',-0.68
'0:04.836',-0.68
'0:04.840',-0.73
'0:04.844',-0.87
'0:04.848',-1.18
'0:04.852',-1.56
'0:04.855',-1.87
'0:04.859',-2.21
'0:04.863',-2.58
'0:04.867',-2.91
'0:04.871',-3.23
'0:04.875',-3.43
'0:04.879',-3.39
'0:04.883',-3.29
'0:04.887',-3.17
'0:04.891',-3.14
'0:04.895',-3.14
'0:04.898',-3.04
'0:04.902',-3.08
'0:04.906',-3.24
'0:04.910',-3.43
'0:04.914',-3.39
'0:04.918',-2.9
'0:04.922',-1.64
'0:04.926',1.54
'0:04.930',6.92
'0:04.934',13.33
'0:04.938',19.19
'0:04.941',23.83
'0:04.945',26.62
'0:04.949',24.87
'0:04.953',17.09
'0:04.957',6.74
'0:04.961',-1.36
'0:04.965',-6.03
'0:04.969',-8.24
'0:04.973',-8.9
'0:04.977',-8.84
'0:04.980',-8.53
'0:04.984',-8.13
'0:04.988',-7.66
'0:04.992',-7.17
'0:04.996',-6.72
'0:05.000',-6.24
'0:05.004',-5.78
'0:05.008',-5.31
'0:05.012',-4.81
'0:05.016',-4.31
'0:05.020',-3.69
'0:05.023',-3.15
'0:05.027',-2.78
'0:05.031',-2.31
'0:05.035',-1.83
'0:05.039',-1.39
'0:05.043',-0.85
'0:05.047',-0.2
'0:05.051',0.51
'0:05.055',1.33
'0:05.059',2.14
'0:05.063',2.92
'0:05.066',3.66
'0:05.070',4.37
'0:05.074',4.99
'0:05.078',5.35
'0:05.082',5.6
'0:05.086',5.52
'0:05.090',5.15
'0:05.094',4.64
'0:05.098',3.98
'0:05.102',3.21
'0:05.105',2.28
'0:05.109',1.43
'0:05.113',0.48
'0:05.117',-0.3
'0:05.121',-0.94
'0:05.125',-1.41
'0:05.129',-1.9
'0:05.133',-2.38
'0:05.137',-2.7
'0:05.141',-2.89
'0:05.145',-3.11
'0:05.148',-3.26
'0:05.152',-3.14
'0:05.156',-2.9
'0:05.160',-2.7
'0:05.164',-2.56
'0:05.168',-2.6
'0:05.172',-2.72
'0:05.176',-2.75
'0:05.180',-2.72
'0:05.184',-2.68
'0:05.188',-2.58
'0:05.191',-2.33
'0:05.195',-2.06
'0:05.199',-1.78
'0:05.203',-1.63
'0:05.207',-1.42
'0:05.211',-1.21
'0:05.215',-1.09
'0:05.219',-0.97
'0:05.223',-0.78
'0:05.227',-0.75
'0:05.230',-0.73
'0:05.234',-0.77
'0:05.238',-0.88
'0:05.242',-1.07
'0:05.246',-1.31
'0:05.250',-1.58
'0:05.254',-1.84
'0:05.258',-2.14
'0:05.262',-2.49
'0:05.266',-2.7
'0:05.270',-2.78
'0:05.273',-2.77
'0:05.277',-2.78
'0:05.281',-2.78
'0:05.285',-2.71
'0:05.289',-2.6
'0:05.293',-2.46
'0:05.297',-2.35
'0:05.301',-2.33
'0:05.305',-2.47
'0:05.309',-2.53
'0:05.313',-2.19
'0:05.316',-1.37
'0:05.320',0.45
'0:05.324',4.48
'0:05.328',10.7
'0:05.332',17.59
'0:05.336',23.17
'0:05.340',27.02
'0:05.344',28.15
'0:05.348',24.4
'0:05.352',15.61
'0:05.355',5.77
'0:05.359',-1.52
'0:05.363',-5.75
'0:05.367',-7.88
'0:05.371',-8.71
'0:05.375',-8.85
'0:05.379',-8.72
'0:05.383',-8.5
'0:05.387',-8.16
'0:05.391',-7.68
'0:05.395',-7.14
'0:05.398',-6.65
'0:05.402',-6.02
'0:05.406',-5.29
'0:05.410',-4.73
'0:05.414',-4.34
'0:05.418',-4
'0:05.422',-3.7
'0:05.426',-3.14
'0:05.430',-2.41
'0:05.434',-1.65
'0:05.438',-1.03
'0:05.441',-0.51
'0:05.445',0.12
'0:05.449',0.77
'0:05.453',1.5
'0:05.457',2.29
'0:05.461',3.14
'0:05.465',4.03
'0:05.469',4.77
'0:05.473',5.29
'0:05.477',5.48
'0:05.480',5.46
'0:05.484',5.22
'0:05.488',4.91
'0:05.492',4.54
'0:05.496',3.96
'0:05.500',3.22
'0:05.504',2.49
'0:05.508',1.72
'0:05.512',0.96
'0:05.516',0.27
'0:05.520',-0.36
'0:05.523',-0.84
'0:05.527',-1.21
'0:05.531',-1.54
'0:05.535',-1.84
'0:05.539',-2.07
'0:05.543',-2.1
'0:05.547',-1.97
'0:05.551',-1.87
'0:05.555',-1.82
'0:05.559',-1.75
'0:05.563',-1.65
'0:05.566',-1.61
'0:05.570',-1.51
'0:05.574',-1.37
'0:05.578',-1.19
'0:05.582',-0.93
'0:05.586',-0.85
'0:05.590',-0.88
'0:05.594',-0.97
'0:05.598',-0.95
'0:05.602',-0.92
'0:05.605',-0.83
'0:05.609',-0.64
'0:05.613',-0.5
'0:05.617',-0.44
'0:05.621',-0.29
'0:05.625',-0.17
'0:05.629',-0.19
'0:05.633',-0.24
'0:05.637',-0.25
'0:05.641',-0.34
'0:05.645',-0.52
'0:05.648',-0.77
'0:05.652',-1.28
'0:05.656',-1.9
'0:05.660',-2.33
'0:05.664',-2.58
'0:05.668',-2.75
'0:05.672',-2.77
'0:05.676',-2.74
'0:05.680',-2.63
'0:05.684',-2.6
'0:05.688',-2.5
'0:05.691',-2.28
'0:05.695',-2.27
'0:05.699',-2.36
'0:05.703',-2.48
'0:05.707',-2.65
'0:05.711',-2.65
'0:05.715',-2.24
'0:05.719',-1.08
'0:05.723',1.91
'0:05.727',7.31
'0:05.730',14.03
'0:05.734',20.2
'0:05.738',25
'0:05.742',27.87
'0:05.746',26.57
'0:05.750',19.15
'0:05.754',8.18
'0:05.758',-0.77
'0:05.762',-5.87
'0:05.766',-8.13
'0:05.770',-8.91
'0:05.773',-8.93
'0:05.777',-8.62
'0:05.781',-8.06
'0:05.785',-7.53
'0:05.789',-6.97
'0:05.793',-6.36
'0:05.797',-5.73
'0:05.801',-5.22
'0:05.805',-4.83
'0:05.809',-4.53
'0:05.813',-4.11
'0:05.816',-3.61
'0:05.820',-3.05
'0:05.824',-2.44
'0:05.828',-2
'0:05.832',-1.63
'0:05.836',-1.17
'0:05.840',-0.56
'0:05.844',0.12
'0:05.848',0.73
'0:05.852',1.38
'0:05.855',2.11
'0:05.859',2.83
'0:05.863',3.53
'0:05.867',4.22
'0:05.871',4.82
'0:05.875',5.24
'0:05.879',5.39
'0:05.883',5.27
'0:05.887',4.95
'0:05.891',4.49
'0:05.895',3.98
'0:05.898',3.3
'0:05.902',2.56
'0:05.906',1.64
'0:05.910',0.77
'0:05.914',-0.01
'0:05.918',-0.77
'0:05.922',-1.38
'0:05.926',-1.87
'0:05.930',-2.23
'0:05.934',-2.38
'0:05.938',-2.51
'0:05.941',-2.6
'0:05.945',-2.68
'0:05.949',-2.82
'0:05.953',-2.83
'0:05.957',-2.58
'0:05.961',-2.43
'0:05.965',-2.51
'0:05.969',-2.51
'0:05.973',-2.44
'0:05.977',-2.27
'0:05.980',-2.09
'0:05.984',-2.04
'0:05.988',-2.07
'0:05.992',-2.02
'0:05.996',-1.87
'0:06.000',-1.75
'0:06.004',-1.65
'0:06.008',-1.54
'0:06.012',-1.48
'0:06.016',-1.5
'0:06.020',-1.34
'0:06.023',-1.26
'0:06.027',-1.29
'0:06.031',-1.24
'0:06.035',-1.21
'0:06.039',-1.19
'0:06.043',-1.26
'0:06.047',-1.51
'0:06.051',-1.8
'0:06.055',-2.19
'0:06.059',-2.66
'0:06.063',-3.03
'0:06.066',-3.14
'0:06.070',-3.05
'0:06.074',-3.02
'0:06.078',-2.95
'0:06.082',-2.92
'0:06.086',-2.85
'0:06.090',-2.68
'0:06.094',-2.55
'0:06.098',-2.63
'0:06.102',-3.01
'0:06.105',-3.23
'0:06.109',-3.04
'0:06.113',-2.51
'0:06.117',-1.12
'0:06.121',2.37
'0:06.125',8
'0:06.129',14.73
'0:06.133',20.86
'0:06.137',25.58
'0:06.141',27.98
'0:06.145',25.65
'0:06.148',17.64
'0:06.152',7.32
'0:06.156',-0.74
'0:06.160',-5.43
'0:06.164',-7.82
'0:06.168',-8.69
'0:06.172',-8.82
'0:06.176',-8.85
'0:06.180',-8.62
'0:06.184',-8.18
'0:06.188',-7.56
'0:06.191',-6.96
'0:06.195',-6.46
'0:06.199',-5.9
'0:06.203',-5.37
'0:06.207',-4.99
'0:06.211',-4.58
'0:06.215',-4.12
'0:06.219',-3.59
'0:06.223',-3
'0:06.227',-2.71
'0:06.230',-2.28
'0:06.234',-1.52
'0:06.238',-0.9
'0:06.242',-0.25
'0:06.246',0.33
'0:06.250',1.04
'0:06.254',1.85
'0:06.258',2.65
'0:06.262',3.6
'0:06.266',4.56
'0:06.270',5.29
'0:06.273',5.68
'0:06.277',5.7
'0:06.281',5.51
'0:06.285',5.12
'0:06.289',4.58
'0:06.293',3.88
'0:06.297',3.15
'0:06.301',2.44
'0:06.305',1.73
'0:06.309',0.92
'0:06.313',0.09
'0:06.316',-0.65
'0:06.320',-1.28
'0:06.324',-1.72
'0:06.328',-2.09
'0:06.332',-2.41
'0:06.336',-2.74
'0:06.340',-3.02
'0:06.344',-3.06
'0:06.348',-2.99
'0:06.352',-2.88
'0:06.355',-2.82
'0:06.359',-2.8
'0:06.363',-2.82
'0:06.367',-2.8
'0:06.371',-2.75
'0:06.375',-2.66
'0:06.379',-2.54
'0:06.383',-2.31
'0:06.387',-2.1
'0:06.391',-1.95
'0:06.395',-1.8
'0:06.398',-1.64
'0:06.402',-1.49
'0:06.406',-1.31
'0:06.410',-1.21
'0:06.414',-1.12
'0:06.418',-0.88
'0:06.422',-0.66
'0:06.426',-0.58
'0:06.430',-0.58
'0:06.434',-0.73
'0:06.438',-0.87
'0:06.441',-0.95
'0:06.445',-1.09
'0:06.449',-1.38
'0:06.453',-1.82
'0:06.457',-2.19
'0:06.461',-2.29
'0:06.465',-2.34
'0:06.469',-2.44
'0:06.473',-2.48
'0:06.477',-2.44
'0:06.480',-2.38
'0:06.484',-2.29
'0:06.488',-2.17
'0:06.492',-2.04
'0:06.496',-1.9
'0:06.500',-1.78
'0:06.504',-1.78
'0:06.508',-1.95
'0:06.512',-1.8
'0:06.516',-1.15
'0:06.520',0.5
'0:06.523',4.36
'0:06.527',10.44
'0:06.531',17.4
'0:06.535',23.48
'0:06.539',28.07
'0:06.543',30.11
'0:06.547',27.11
'0:06.551',18.31
'0:06.555',7.52
'0:06.559',-0.82
'0:06.563',-5.6
'0:06.566',-7.95
'0:06.570',-8.84
'0:06.574',-8.96
'0:06.578',-8.87
'0:06.582',-8.64
'0:06.586',-8.23
'0:06.590',-7.58
'0:06.594',-7.02
'0:06.598',-6.48
'0:06.602',-5.92
'0:06.605',-5.37
'0:06.609',-4.82
'0:06.613',-4.14
'0:06.617',-3.51
'0:06.621',-3
'0:06.625',-2.48
'0:06.629',-1.92
'0:06.633',-1.22
'0:06.637',-0.46
'0:06.641',0.17
'0:06.645',0.96
'0:06.648',2.37
'0:06.652',3.58
'0:06.656',3.58
'0:06.660',3.37
'0:06.664',3.49
'0:06.668',3.85
'0:06.672',4.43
'0:06.676',4.94
'0:06.680',5.07
'0:06.684',4.97
'0:06.688',4.65
'0:06.691',4.15
'0:06.695',3.69
'0:06.699',3.18
'0:06.703',2.53
'0:06.707',1.74
'0:06.711',0.93
'0:06.715',0.15
'0:06.719',-0.67
'0:06.723',-1.48
'0:06.727',-2.19
'0:06.730',-2.75
'0:06.734',-2.99
'0:06.738',-3.02
'0:06.742',-3
'0:06.746',-2.99
'0:06.750',-3.02
'0:06.754',-3.07
'0:06.758',-3.04
'0:06.762',-2.92
'0:06.766',-2.85
'0:06.770',-2.82
'0:06.773',-2.68
'0:06.777',-2.43
'0:06.781',-2.15
'0:06.785',-1.9
'0:06.789',-1.7
'0:06.793',-1.51
'0:06.797',-1.31
'0:06.801',-1.21
'0:06.805',-1.31
'0:06.809',-1.43
'0:06.813',-1.46
'0:06.816',-1.31
'0:06.820',-1.09
'0:06.824',-1.14
'0:06.828',-1.27
'0:06.832',-1.34
'0:06.836',-1.34
'0:06.840',-1.23
'0:06.844',-1.23
'0:06.848',-1.31
'0:06.852',-1.6
'0:06.855',-1.94
'0:06.859',-2.24
'0:06.863',-2.43
'0:06.867',-2.5
'0:06.871',-2.53
'0:06.875',-2.6
'0:06.879',-2.82
'0:06.883',-3.01
'0:06.887',-3
'0:06.891',-2.73
'0:06.895',-2.41
'0:06.898',-2.33
'0:06.902',-2.48
'0:06.906',-2.78
'0:06.910',-2.85
'0:06.914',-2.34
'0:06.918',-0.98
'0:06.922',2.52
'0:06.926',8.3
'0:06.930',14.85
'0:06.934',20.55
'0:06.938',24.72
'0:06.941',26.55
'0:06.945',23.83
'0:06.949',15.55
'0:06.953',5.29
'0:06.957',-2.4
'0:06.961',-6.72
'0:06.965',-8.56
'0:06.969',-8.98
'0:06.973',-8.7
'0:06.977',-8.24
'0:06.980',-7.72
'0:06.984',-7.19
'0:06.988',-6.6
'0:06.992',-6.11
'0:06.996',-5.62
'0:07.000',-5.17
'0:07.004',-4.75
'0:07.008',-4.32
'0:07.012',-3.81
'0:07.016',-3.31
'0:07.020',-2.85
'0:07.023',-2.34
'0:07.027',-1.8
'0:07.031',-1.27
'0:07.035',-0.73
'0:07.039',-0.14
'0:07.043',0.46
'0:07.047',1.14
'0:07.051',1.87
'0:07.055',2.63
'0:07.059',3.34
'0:07.063',4.04
'0:07.066',4.59
'0:07.070',5.02
'0:07.074',5.29
'0:07.078',5.44
'0:07.082',5.17
'0:07.086',4.73
'0:07.090',4.34
'0:07.094',3.86
'0:07.098',3.23
'0:07.102',2.52
'0:07.105',1.69
'0:07.109',0.91
'0:07.113',0.3
'0:07.117',-0.31
'0:07.121',-1.04
'0:07.125',-1.58
'0:07.129',-1.89
'0:07.133',-2.09
'0:07.137',-2.14
'0:07.141',-2.26
'0:07.145',-2.48
'0:07.148',-2.51
'0:07.152',-2.41
'0:07.156',-2.36
'0:07.160',-2.34
'0:07.164',-2.31
'0:07.168',-2.24
'0:07.172',-2.19
'0:07.176',-2.26
'0:07.180',-2.32
'0:07.184',-2.22
'0:07.188',-2.16
'0:07.191',-2.04
'0:07.195',-1.82
'0:07.199',-1.63
'0:07.203',-1.46
'0:07.207',-1.33
'0:07.211',-1.29
'0:07.215',-1.36
'0:07.219',-1.15
'0:07.223',-0.91
'0:07.227',-0.85
'0:07.230',-0.89
'0:07.234',-1.02
'0:07.238',-1.07
'0:07.242',-1.17
'0:07.246',-1.48
'0:07.250',-1.99
'0:07.254',-2.48
'0:07.258',-2.84
'0:07.262',-2.85
'0:07.266',-2.73
'0:07.270',-2.75
'0:07.273',-2.85
'0:07.277',-2.85
'0:07.281',-2.8
'0:07.285',-2.62
'0:07.289',-2.34
'0:07.293',-2.17
'0:07.297',-2.24
'0:07.301',-2.6
'0:07.305',-2.91
'0:07.309',-3.11
'0:07.313',-2.68
'0:07.316',-1.24
'0:07.320',2.19
'0:07.324',7.91
'0:07.328',14.72
'0:07.332',20.69
'0:07.336',25.23
'0:07.340',27.64
'0:07.344',25.46
'0:07.348',17.64
'0:07.352',7.57
'0:07.355',-0.29
'0:07.359',-4.84
'0:07.363',-7.13
'0:07.367',-8.15
'0:07.371',-8.4
'0:07.375',-8.24
'0:07.379',-8.04
'0:07.383',-7.92
'0:07.387',-7.65
'0:07.391',-7.21
'0:07.395',-6.63
'0:07.398',-5.9
'0:07.402',-5.15
'0:07.406',-4.58
'0:07.410',-4.08
'0:07.414',-3.58
'0:07.418',-2.95
'0:07.422',-2.34
'0:07.426',-1.73
'0:07.430',-1.17
'0:07.434',-0.59
'0:07.438',0.08
'0:07.441',0.86
'0:07.445',1.73
'0:07.449',2.44
'0:07.453',3.12
'0:07.457',3.82
'0:07.461',4.6
'0:07.465',5.58
'0:07.469',5.85
'0:07.473',5.92
'0:07.477',5.97
'0:07.480',5.8
'0:07.484',5.31
'0:07.488',4.52
'0:07.492',3.73
'0:07.496',2.85
'0:07.500',1.91
'0:07.504',0.94
'0:07.508',0.01
'0:07.512',-0.6
'0:07.516',-1.07
'0:07.520',-1.56
'0:07.523',-2
'0:07.527',-2.38
'0:07.531',-2.6
'0:07.535',-2.77
'0:07.539',-2.99
'0:07.543',-3.17
'0:07.547',-3.25
'0:07.551',-3.22
'0:07.555',-3.14
'0:07.559',-3.06
'0:07.563',-3
'0:07.566',-2.95
'0:07.570',-2.94
'0:07.574',-2.85
'0:07.578',-2.68
'0:07.582',-2.61
'0:07.586',-2.48
'0:07.590',-2.27
'0:07.594',-2.02
'0:07.598',-1.83
'0:07.602',-1.72
'0:07.605',-1.58
'0:07.609',-1.39
'0:07.613',-1.11
'0:07.617',-0.87
'0:07.621',-0.75
'0:07.625',-0.68
'0:07.629',-0.63
'0:07.633',-0.58
'0:07.637',-0.58
'0:07.641',-0.68
'0:07.645',-0.87
'0:07.648',-1.06
'0:07.652',-1.33
'0:07.656',-1.67
'0:07.660',-1.87
'0:07.664',-2.11
'0:07.668',-2.39
'0:07.672',-2.57
'0:07.676',-2.63
'0:07.680',-2.67
'0:07.684',-2.6
'0:07.688',-2.37
'0:07.691',-2.1
'0:07.695',-1.94
'0:07.699',-1.89
'0:07.703',-2.02
'0:07.707',-2.21
'0:07.711',-2.06
'0:07.715',-1.34
'0:07.719',0.12
'0:07.723',3.31
'0:07.727',8.78
'0:07.730',15.66
'0:07.734',22.09
'0:07.738',26.87
'0:07.742',29.48
'0:07.746',27.99
'0:07.750',20.72
'0:07.754',10.08
'0:07.758',0.89
'0:07.762',-4.84
'0:07.766',-7.73
'0:07.770',-8.91
'0:07.773',-9.12
'0:07.777',-8.87
'0:07.781',-8.48
'0:07.785',-8
'0:07.789',-7.57
'0:07.793',-7.07
'0:07.797',-6.68
'0:07.801',-6.31
'0:07.805',-5.82
'0:07.809',-5.16
'0:07.813',-4.3
'0:07.816',-3.56
'0:07.820',-3.07
'0:07.824',-2.59
'0:07.828',-2.02
'0:07.832',-1.46
'0:07.836',-0.92
'0:07.840',-0.36
'0:07.844',0.25
'0:07.848',0.88
'0:07.852',1.51
'0:07.855',2.22
'0:07.859',3.1
'0:07.863',4.02
'0:07.867',4.96
'0:07.871',5.7
'0:07.875',6.14
'0:07.879',6.29
'0:07.883',6.2
'0:07.887',5.85
'0:07.891',5.42
'0:07.895',4.78
'0:07.898',3.97
'0:07.902',3.2
'0:07.906',2.44
'0:07.910',1.59
'0:07.914',0.59
'0:07.918',-0.26
'0:07.922',-0.9
'0:07.926',-1.46
'0:07.930',-1.94
'0:07.934',-2.28
'0:07.938',-2.48
'0:07.941',-2.55
'0:07.945',-2.53
'0:07.949',-2.46
'0:07.953',-2.52
'0:07.957',-2.63
'0:07.961',-2.6
'0:07.965',-2.45
'0:07.969',-2.38
'0:07.973',-2.24
'0:07.977',-2.12
'0:07.980',-2.02
'0:07.984',-2.12
'0:07.988',-2.26
'0:07.992',-2.4
'0:07.996',-2.41
'0:08.000',-2.29
'0:08.004',-1.92
'0:08.008',-1.43
'0:08.012',-1.24
'0:08.016',-1.28
'0:08.020',-1.19
'0:08.023',-0.92
'0:08.027',-0.79
'0:08.031',-0.81
'0:08.035',-0.92
'0:08.039',-1.07
'0:08.043',-1.29
'0:08.047',-1.53
'0:08.051',-1.85
'0:08.055',-2.29
'0:08.059',-2.62
'0:08.063',-2.87
'0:08.066',-3.12
'0:08.070',-3.21
'0:08.074',-3.14
'0:08.078',-2.95
'0:08.082',-2.92
'0:08.086',-2.88
'0:08.090',-2.82
'0:08.094',-2.87
'0:08.098',-2.75
'0:08.102',-2.65
'0:08.105',-2.72
'0:08.109',-2.77
'0:08.113',-2.55
'0:08.117',-1.82
'0:08.121',0.44
'0:08.125',5.12
'0:08.129',11.38
'0:08.133',17.59
'0:08.137',22.63
'0:08.141',25.97
'0:08.145',25.95
'0:08.148',20.23
'0:08.152',10.02
'0:08.156',0.46
'0:08.160',-5.55
'0:08.164',-8.22
'0:08.168',-9
'0:08.172',-8.89
'0:08.176',-8.39
'0:08.180',-7.72
'0:08.184',-7.01
'0:08.188',-6.38
'0:08.191',-5.86
'0:08.195',-5.43
'0:08.199',-5.11
'0:08.203',-4.8
'0:08.207',-4.46
'0:08.211',-3.92
'0:08.215',-3.31
'0:08.219',-2.82
'0:08.223',-2.44
'0:08.227',-2.14
'0:08.230',-1.76
'0:08.234',-1.29
'0:08.238',-0.71
'0:08.242',0
'0:08.246',0.68
'0:08.250',1.17
'0:08.254',1.7
'0:08.258',2.44
'0:08.262',3.27
'0:08.266',3.93
'0:08.270',4.39
'0:08.273',4.63
'0:08.277',4.78
'0:08.281',4.88
'0:08.285',4.75
'0:08.289',4.39
'0:08.293',3.87
'0:08.297',3.22
'0:08.301',2.52
'0:08.305',1.81
'0:08.309',0.96
'0:08.313',0.18
'0:08.316',-0.6
'0:08.320',-1.24
'0:08.324',-1.75
'0:08.328',-2.24
'0:08.332',-2.58
'0:08.336',-2.75
'0:08.340',-2.67
'0:08.344',-2.6
'0:08.348',-2.6
'0:08.352',-2.6
'0:08.355',-2.58
'0:08.359',-2.55
'0:08.363',-2.51
'0:08.367',-2.48
'0:08.371',-2.46
'0:08.375',-2.34
'0:08.379',-2.15
'0:08.383',-2
'0:08.387',-1.99
'0:08.391',-1.97
'0:08.395',-1.85
'0:08.398',-1.55
'0:08.402',-1.29
'0:08.406',-1.18
'0:08.410',-1.21
'0:08.414',-1.33
'0:08.418',-1.16
'0:08.422',-0.95
'0:08.426',-0.84
'0:08.430',-0.83
'0:08.434',-0.84
'0:08.438',-0.88
'0:08.441',-0.95
'0:08.445',-1.06
'0:08.449',-1.43
'0:08.453',-1.87
'0:08.457',-2.31
'0:08.461',-2.61
'0:08.465',-2.7
'0:08.469',-2.7
'0:08.473',-2.7
'0:08.477',-2.68
'0:08.480',-2.75
'0:08.484',-2.85
'0:08.488',-2.97
'0:08.492',-3.06
'0:08.496',-2.8
'0:08.500',-2.53
'0:08.504',-2.8
'0:08.508',-3.04
'0:08.512',-2.87
'0:08.516',-1.99
'0:08.520',-0.02
'0:08.523',3.85
'0:08.527',9.7
'0:08.531',16.37
'0:08.535',22.05
'0:08.539',26.27
'0:08.543',28.03
'0:08.547',24.99
'0:08.551',16.51
'0:08.555',6.27
'0:08.559',-1.49
'0:08.563',-5.94
'0:08.566',-8.02
'0:08.570',-8.76
'0:08.574',-8.84
'0:08.578',-8.74
'0:08.582',-8.5
'0:08.586',-8.07
'0:08.590',-7.5
'0:08.594',-6.94
'0:08.598',-6.45
'0:08.602',-6.01
'0:08.605',-5.4
'0:08.609',-4.66
'0:08.613',-4.16
'0:08.617',-3.87
'0:08.621',-3.36
'0:08.625',-2.7
'0:08.629',-2.09
'0:08.633',-1.58
'0:08.637',-1.16
'0:08.641',-0.63
'0:08.645',-0.06
'0:08.648',0.61
'0:08.652',1.41
'0:08.656',2.24
'0:08.660',2.96
'0:08.664',3.63
'0:08.668',4.43
'0:08.672',5.12
'0:08.676',5.46
'0:08.680',5.53
'0:08.684',5.39
'0:08.688',5.05
'0:08.691',4.57
'0:08.695',3.95
'0:08.699',3.17
'0:08.703',2.42
'0:08.707',1.66
'0:08.711',0.93
'0:08.715',0.2
'0:08.719',-0.45
'0:08.723',-1.02
'0:08.727',-1.51
'0:08.730',-1.85
'0:08.734',-2.17
'0:08.738',-2.42
'0:08.742',-2.66
'0:08.746',-2.85
'0:08.750',-2.94
'0:08.754',-2.94
'0:08.758',-2.95
'0:08.762',-2.88
'0:08.766',-2.85
'0:08.770',-2.82
'0:08.773',-2.77
'0:08.777',-2.65
'0:08.781',-2.46
'0:08.785',-2.26
'0:08.789',-2.05
'0:08.793',-1.92
'0:08.797',-1.83
'0:08.801',-1.65
'0:08.805',-1.5
'0:08.809',-1.38
'0:08.813',-1.31
'0:08.816',-1.39
'0:08.820',-1.44
'0:08.824',-1.22
'0:08.828',-0.82
'0:08.832',-0.51
'0:08.836',-0.41
'0:08.840',-0.53
'0:08.844',-0.77
'0:08.848',-0.9
'0:08.852',-1.04
'0:08.855',-1.27
'0:08.859',-1.68
'0:08.863',-2.1
'0:08.867',-2.38
'0:08.871',-2.57
'0:08.875',-2.62
'0:08.879',-2.63
'0:08.883',-2.57
'0:08.887',-2.41
'0:08.891',-2.27
'0:08.895',-2.14
'0:08.898',-2
'0:08.902',-1.92
'0:08.906',-1.93
'0:08.910',-2.15
'0:08.914',-2.38
'0:08.918',-2.19
'0:08.922',-1.31
'0:08.926',0.68
'0:08.930',4.95
'0:08.934',11.34
'0:08.938',18.35
'0:08.941',24.19
'0:08.945',28.48
'0:08.949',30.07
'0:08.953',26.2
'0:08.957',16.67
'0:08.961',5.82
'0:08.965',-2.08
'0:08.969',-6.41
'0:08.973',-8.37
'0:08.977',-9.03
'0:08.980',-9.05
'0:08.984',-8.81
'0:08.988',-8.4
'0:08.992',-7.99
'0:08.996',-7.55
'0:09.000',-7.01
'0:09.004',-6.52
'0:09.008',-6.11
'0:09.012',-5.62
'0:09.016',-5.14
'0:09.020',-4.63
'0:09.023',-4.04
'0:09.027',-3.46
'0:09.031',-2.87
'0:09.035',-2.33
'0:09.039',-1.85
'0:09.043',-1.27
'0:09.047',-0.58
'0:09.051',0.13
'0:09.055',0.86
'0:09.059',1.54
'0:09.063',2.24
'0:09.066',3.05
'0:09.070',3.9
'0:09.074',4.61
'0:09.078',5.15
'0:09.082',5.46
'0:09.086',5.49
'0:09.090',5.32
'0:09.094',4.83
'0:09.098',4.22
'0:09.102',3.64
'0:09.105',3.1
'0:09.109',2.5
'0:09.113',1.74
'0:09.117',0.83
'0:09.121',-0.12
'0:09.125',-0.95
'0:09.129',-1.63
'0:09.133',-2.07
'0:09.137',-2.34
'0:09.141',-2.48
'0:09.145',-2.76
'0:09.148',-3.02
'0:09.152',-3.16
'0:09.156',-3.06
'0:09.160',-2.82
'0:09.164',-2.72
'0:09.168',-2.66
'0:09.172',-2.63
'0:09.176',-2.55
'0:09.180',-2.51
'0:09.184',-2.49
'0:09.188',-2.31
'0:09.191',-2.14
'0:09.195',-1.97
'0:09.199',-1.75
'0:09.203',-1.6
'0:09.207',-1.51
'0:09.211',-1.44
'0:09.215',-1.41
'0:09.219',-1.32
'0:09.223',-1.24
'0:09.227',-1.01
'0:09.230',-0.87
'0:09.234',-0.78
'0:09.238',-0.77
'0:09.242',-0.92
'0:09.246',-0.99
'0:09.250',-1.02
'0:09.254',-1.16
'0:09.258',-1.49
'0:09.262',-1.92
'0:09.266',-2.31
'0:09.270',-2.7
'0:09.273',-2.77
'0:09.277',-2.83
'0:09.281',-2.87
'0:09.285',-2.88
'0:09.289',-2.68
'0:09.293',-2.48
'0:09.297',-2.44
'0:09.301',-2.54
'0:09.305',-2.46
'0:09.309',-2.41
'0:09.313',-2.51
'0:09.316',-2.51
'0:09.320',-2.38
'0:09.324',-1.7
'0:09.328',0.45
'0:09.332',4.8
'0:09.336',10.85
'0:09.340',16.96
'0:09.344',21.98
'0:09.348',25.22
'0:09.352',25.23
'0:09.355',19.87
'0:09.359',10.04
'0:09.363',0.85
'0:09.367',-4.72
'0:09.371',-7.18
'0:09.375',-7.95
'0:09.379',-8.04
'0:09.383',-7.89
'0:09.387',-7.53
'0:09.391',-7.06
'0:09.395',-6.52
'0:09.398',-6.03
'0:09.402',-5.6
'0:09.406',-5.15
'0:09.410',-4.75
'0:09.414',-4.34
'0:09.418',-3.97
'0:09.422',-3.51
'0:09.426',-2.9
'0:09.430',-2.29
'0:09.434',-1.71
'0:09.438',-1.23
'0:09.441',-0.63
'0:09.445',-0.04
'0:09.449',0.44
'0:09.453',0.95
'0:09.457',1.56
'0:09.461',2.25
'0:09.465',2.88
'0:09.469',3.44
'0:09.473',4.03
'0:09.477',4.59
'0:09.480',4.92
'0:09.484',5.05
'0:09.488',4.99
'0:09.492',4.91
'0:09.496',4.7
'0:09.500',4.21
'0:09.504',3.56
'0:09.508',3
'0:09.512',2.39
'0:09.516',1.62
'0:09.520',0.81
'0:09.523',0.01
'0:09.527',-0.67
'0:09.531',-1.25
'0:09.535',-1.68
'0:09.539',-1.91
'0:09.543',-2.04
'0:09.547',-2.22
'0:09.551',-2.2
'0:09.555',-2.19
'0:09.559',-2.31
'0:09.563',-2.48
'0:09.566',-2.58
'0:09.570',-2.57
'0:09.574',-2.53
'0:09.578',-2.51
'0:09.582',-2.46
'0:09.586',-2.34
'0:09.590',-2.24
'0:09.594',-2.15
'0:09.598',-1.94
'0:09.602',-1.68
'0:09.605',-1.39
'0:09.609',-1.21
'0:09.613',-1.27
'0:09.617',-1.38
'0:09.621',-1.36
'0:09.625',-1.24
'0:09.629',-1.02
'0:09.633',-1.05
'0:09.637',-1.19
'0:09.641',-1.1
'0:09.645',-1.02
'0:09.648',-1.12
'0:09.652',-1.29
'0:09.656',-1.58
'0:09.660',-1.99
'0:09.664',-2.31
'0:09.668',-2.44
'0:09.672',-2.58
'0:09.676',-2.82
'0:09.680',-3.06
'0:09.684',-3.14
'0:09.688',-2.99
'0:09.691',-2.78
'0:09.695',-2.58
'0:09.699',-2.47
'0:09.703',-2.38
'0:09.707',-2.31
'0:09.711',-2.53
'0:09.715',-2.68
'0:09.719',-2.6
'0:09.723',-1.89
'0:09.727',0.47
'0:09.730',5
'0:09.734',10.86
'0:09.738',16.63
'0:09.742',21.57
'0:09.746',25.08
'0:09.750',25.26
'0:09.754',19.84
'0:09.758',10.01
'0:09.762',0.86
'0:09.766',-4.29
'0:09.770',-7.22
'0:09.773',-8.12
'0:09.777',-8.11
'0:09.781',-7.74
'0:09.785',-7.31
'0:09.789',-7.01
'0:09.793',-6.67
'0:09.797',-6.26
'0:09.801',-5.75
'0:09.805',-5.09
'0:09.809',-4.58
'0:09.813',-4.26
'0:09.816',-3.94
'0:09.820',-3.36
'0:09.824',-2.72
'0:09.828',-2.24
'0:09.832',-1.85
'0:09.836',-1.45
'0:09.840',-1.14
'0:09.844',-0.63
'0:09.848',-0.12
'0:09.852',0.34
'0:09.855',0.85
'0:09.859',1.49
'0:09.863',2.11
'0:09.867',2.78
'0:09.871',3.44
'0:09.875',4.06
'0:09.879',4.52
'0:09.883',4.88
'0:09.887',4.9
'0:09.891',4.63
'0:09.895',4.25
'0:09.898',4
'0:09.902',3.78
'0:09.906',3.27
'0:09.910',2.56
'0:09.914',1.83
'0:09.918',1.1
'0:09.922',0.32
'0:09.926',-0.53
'0:09.930',-1.21
'0:09.934',-1.65
'0:09.938',-1.94
'0:09.941',-2.14
'0:09.945',-2.26
'0:09.949',-2.26
'0:09.953',-2.27
'0:09.957',-2.23
'0:09.961',-2.14
'0:09.965',-2.14
'0:09.969',-2.24
'0:09.973',-2.43
'0:09.977',-2.42
'0:09.980',-2.26
'0:09.984',-2.09
'0:09.988',-2.06
'0:09.992',-2.1
'0:09.996',-2.05
'0:10.000',-1.99
'0:10.004',-1.81
'0:10.008',-1.64
'0:10.012',-1.46
'0:10.016',-1.24
'0:10.020',-1.14
'0:10.023',-1.14
'0:10.027',-1.02
'0:10.031',-0.85
'0:10.035',-0.66
'0:10.039',-0.48
'0:10.043',-0.46
'0:10.047',-0.53
'0:10.051',-0.7
'0:10.055',-0.92
'0:10.059',-1.42
'0:10.063',-1.95
'0:10.066',-2.36
'0:10.070',-2.56
'0:10.074',-2.67
'0:10.078',-2.7
'0:10.082',-2.58
'0:10.086',-2.53
'0:10.090',-2.51
'0:10.094',-2.48
'0:10.098',-2.41
'0:10.102',-2.24
'0:10.105',-2.08
'0:10.109',-2.15
'0:10.113',-2.39
'0:10.117',-2.6
'0:10.121',-2.43
'0:10.125',-1.65
'0:10.129',0.23
'0:10.133',4.06
'0:10.137',9.65
'0:10.141',15.76
'0:10.145',20.99
'0:10.148',24.81
'0:10.152',26.1
'0:10.156',22.71
'0:10.160',14.11
'0:10.164',4.31
'0:10.168',-2.61
'0:10.172',-6.22
'0:10.176',-7.76
'0:10.180',-8.26
'0:10.184',-8.26
'0:10.188',-7.94
'0:10.191',-7.38
'0:10.195',-6.92
'0:10.199',-6.43
'0:10.203',-5.96
'0:10.207',-5.43
'0:10.211',-4.82
'0:10.215',-4.34
'0:10.219',-3.96
'0:10.223',-3.5
'0:10.227',-2.99
'0:10.230',-2.55
'0:10.234',-2.11
'0:10.238',-1.73
'0:10.242',-1.3
'0:10.246',-0.84
'0:10.250',-0.36
'0:10.254',0.18
'0:10.258',0.78
'0:10.262',1.44
'0:10.266',2.05
'0:10.270',2.73
'0:10.273',3.44
'0:10.277',4.24
'0:10.281',4.85
'0:10.285',5.12
'0:10.289',5.19
'0:10.293',5.12
'0:10.297',4.85
'0:10.301',4.32
'0:10.305',3.63
'0:10.309',2.98
'0:10.313',2.42
'0:10.316',1.82
'0:10.320',1.05
'0:10.324',0.21
'0:10.328',-0.55
'0:10.332',-1.19
'0:10.336',-1.68
'0:10.340',-2.02
'0:10.344',-2.22
'0:10.348',-2.24
'0:10.352',-2.37
'0:10.355',-2.51
'0:10.359',-2.41
'0:10.363',-2.22
'0:10.367',-2.1
'0:10.371',-2.09
'0:10.375',-2.1
'0:10.379',-2.19
'0:10.383',-2.12
'0:10.387',-2.1
'0:10.391',-2.14
'0:10.395',-2.1
'0:10.398',-2.09
'0:10.402',-1.99
'0:10.406',-1.87
'0:10.410',-1.73
'0:10.414',-1.47
'0:10.418',-1.17
'0:10.422',-1.07
'0:10.426',-1.17
'0:10.430',-1.31
'0:10.434',-1.33
'0:10.438',-1.14
'0:10.441',-1.01
'0:10.445',-0.95
'0:10.449',-0.94
'0:10.453',-1.05
'0:10.457',-1.26
'0:10.461',-1.53
'0:10.465',-2
'0:10.469',-2.43
'0:10.473',-2.68
'0:10.477',-2.82
'0:10.480',-2.97
'0:10.484',-3.04
'0:10.488',-2.97
'0:10.492',-2.99
'0:10.496',-2.97
'0:10.500',-2.87
'0:10.504',-2.72
'0:10.508',-2.51
'0:10.512',-2.38
'0:10.516',-2.46
'0:10.520',-2.66
'0:10.523',-2.62
'0:10.527',-2.18
'0:10.531',-1.13
'0:10.535',1.52
'0:10.539',6.47
'0:10.543',12.87
'0:10.547',18.97
'0:10.551',23.58
'0:10.555',26.43
'0:10.559',25.61
'0:10.563',19.08
'0:10.566',8.76
'0:10.570',-0.05
'0:10.574',-5.3
'0:10.578',-7.69
'0:10.582',-8.52
'0:10.586',-8.59
'0:10.590',-8.38
'0:10.594',-8.09
'0:10.598',-7.68
'0:10.602',-7.16
'0:10.605',-6.65
'0:10.609',-6.11
'0:10.613',-5.55
'0:10.617',-5.04
'0:10.621',-4.56
'0:10.625',-3.99
'0:10.629',-3.41
'0:10.633',-2.94
'0:10.637',-2.58
'0:10.641',-2.19
'0:10.645',-1.56
'0:10.648',-0.9
'0:10.652',-0.45
'0:10.656',-0.19
'0:10.660',0.09
'0:10.664',0.56
'0:10.668',1.24
'0:10.672',2.12
'0:10.676',2.98
'0:10.680',3.71
'0:10.684',4.22
'0:10.688',4.51
'0:10.691',4.63
'0:10.695',4.61
'0:10.699',4.43
'0:10.703',4.09
'0:10.707',3.58
'0:10.711',2.92
'0:10.715',2.19
'0:10.719',1.46
'0:10.723',0.75
'0:10.727',0.08
'0:10.730',-0.6
'0:10.734',-1.26
'0:10.738',-1.8
'0:10.742',-2.12
'0:10.746',-2.31
'0:10.750',-2.44
'0:10.754',-2.53
'0:10.758',-2.5
'0:10.762',-2.36
'0:10.766',-2.22
'0:10.770',-2.06
'0:10.773',-1.96
'0:10.777',-1.92
'0:10.781',-1.87
'0:10.785',-1.84
'0:10.789',-1.85
'0:10.793',-1.82
'0:10.797',-1.7
'0:10.801',-1.49
'0:10.805',-1.27
'0:10.809',-1.19
'0:10.813',-1.23
'0:10.816',-1.17
'0:10.820',-0.95
'0:10.824',-0.76
'0:10.828',-0.65
'0:10.832',-0.6
'0:10.836',-0.5
'0:10.840',-0.38
'0:10.844',-0.34
'0:10.848',-0.44
'0:10.852',-0.6
'0:10.855',-0.75
'0:10.859',-0.8
'0:10.863',-0.9
'0:10.867',-1.27
'0:10.871',-1.73
'0:10.875',-2.11
'0:10.879',-2.28
'0:10.883',-2.29
'0:10.887',-2.43
'0:10.891',-2.61
'0:10.895',-2.56
'0:10.898',-2.38
'0:10.902',-2.21
'0:10.906',-2.26
'0:10.910',-2.34
'0:10.914',-2.37
'0:10.918',-2.38
'0:10.922',-2.45
'0:10.926',-2.51
'0:10.930',-2.48
'0:10.934',-1.89
'0:10.938',-0.06
'0:10.941',3.94
'0:10.945',10.03
'0:10.949',16.51
'0:10.953',21.67
'0:10.957',25.33
'0:10.961',26.47
'0:10.965',22.66
'0:10.969',13.86
'0:10.973',4.02
'0:10.977',-2.81
'0:10.980',-6.38
'0:10.984',-7.88
'0:10.988',-8.33
'0:10.992',-8.31
'0:10.996',-8.04
'0:11.000',-7.69
'0:11.004',-7.26
'0:11.008',-6.72
'0:11.012',-6.18
'0:11.016',-5.61
'0:11.020',-5.04
'0:11.023',-4.53
'0:11.027',-4.05
'0:11.031',-3.53
'0:11.035',-3.02
'0:11.039',-2.4
'0:11.043',-1.94
'0:11.047',-1.68
'0:11.051',-1.48
'0:11.055',-1.05
'0:11.059',-0.53
'0:11.063',0.01
'0:11.066',0.64
'0:11.070',1.3
'0:11.074',2.07
'0:11.078',2.78
'0:11.082',3.41
'0:11.086',3.96
'0:11.090',4.41
'0:11.094',4.82
'0:11.098',5.03
'0:11.102',4.95
'0:11.105',4.61
'0:11.109',4.12
'0:11.113',3.56
'0:11.117',2.92
'0:11.121',2.17
'0:11.125',1.32
'0:11.129',0.54
'0:11.133',-0.21
'0:11.137',-0.79
'0:11.141',-1.26
'0:11.145',-1.67
'0:11.148',-1.9
'0:11.152',-2.06
'0:11.156',-2.22
'0:11.160',-2.34
'0:11.164',-2.36
'0:11.168',-2.34
'0:11.172',-2.19
'0:11.176',-1.95
'0:11.180',-1.72
'0:11.184',-1.65
'0:11.188',-1.68
'0:11.191',-1.87
'0:11.195',-2.04
'0:11.199',-2.15
'0:11.203',-2.17
'0:11.207',-2.09
'0:11.211',-1.84
'0:11.215',-1.64
'0:11.219',-1.48
'0:11.223',-1.34
'0:11.227',-1.17
'0:11.230',-0.9
'0:11.234',-0.82
'0:11.238',-0.78
'0:11.242',-0.68
'0:11.246',-0.51
'0:11.250',-0.38
'0:11.254',-0.38
'0:11.258',-0.43
'0:11.262',-0.41
'0:11.266',-0.56
'0:11.270',-0.9
'0:11.273',-1.39
'0:11.277',-2
'0:11.281',-2.43
'0:11.285',-2.53
'0:11.289',-2.63
'0:11.293',-2.75
'0:11.297',-2.96
'0:11.301',-3.04
'0:11.305',-2.97
'0:11.309',-2.67
'0:11.313',-2.36
'0:11.316',-2.24
'0:11.320',-2.25
'0:11.324',-2.32
'0:11.328',-2.46
'0:11.332',-2.46
'0:11.336',-2.26
'0:11.340',-1.67
'0:11.344',0.19
'0:11.348',4.23
'0:11.352',10.43
'0:11.355',17.28
'0:11.359',22.87
'0:11.363',26.87
'0:11.367',28.02
'0:11.371',23.94
'0:11.375',14.87
'0:11.379',4.93
'0:11.383',-2.21
'0:11.387',-6.2
'0:11.391',-8.15
'0:11.395',-8.89
'0:11.398',-9.06
'0:11.402',-8.77
'0:11.406',-8.33
'0:11.410',-8.04
'0:11.414',-7.69
'0:11.418',-7.23
'0:11.422',-6.74
'0:11.426',-6.19
'0:11.430',-5.6
'0:11.434',-5.07
'0:11.438',-4.58
'0:11.441',-4.02
'0:11.445',-3.36
'0:11.449',-2.75
'0:11.453',-2.29
'0:11.457',-1.92
'0:11.461',-1.41
'0:11.465',-0.92
'0:11.469',0.46
'0:11.473',1.1
'0:11.477',1.69
'0:11.480',2.29
'0:11.484',3.02
'0:11.488',3.78
'0:11.492',4.29
'0:11.496',4.61
'0:11.500',4.83
'0:11.504',4.88
'0:11.508',4.7
'0:11.512',4.31
'0:11.516',3.78
'0:11.520',3.17
'0:11.523',2.54
'0:11.527',1.85
'0:11.531',0.9
'0:11.535',0.07
'0:11.539',-0.54
'0:11.543',-1.04
'0:11.547',-1.61
'0:11.551',-2.07
'0:11.555',-2.42
'0:11.559',-2.58
'0:11.563',-2.58
'0:11.566',-2.5
'0:11.570',-2.43
'0:11.574',-2.51
'0:11.578',-2.53
'0:11.582',-2.54
'0:11.586',-2.62
'0:11.590',-2.72
'0:11.594',-2.85
'0:11.598',-2.95
'0:11.602',-2.82
'0:11.605',-2.67
'0:11.609',-2.46
'0:11.613',-2.34
'0:11.617',-2.28
'0:11.621',-2.19
'0:11.625',-2.07
'0:11.629',-1.82
'0:11.633',-1.61
'0:11.637',-1.38
'0:11.641',-1.19
'0:11.645',-0.9
'0:11.648',-0.63
'0:11.652',-0.5
'0:11.656',-0.44
'0:11.660',-0.38
'0:11.664',-0.41
'0:11.668',-0.53
'0:11.672',-0.77
'0:11.676',-0.99
'0:11.680',-1.16
'0:11.684',-1.43
'0:11.688',-1.78
'0:11.691',-2.13
'0:11.695',-2.36
'0:11.699',-2.4
'0:11.703',-2.37
'0:11.707',-2.31
'0:11.711',-2.24
'0:11.715',-2.11
'0:11.719',-1.92
'0:11.723',-1.77
'0:11.727',-1.7
'0:11.730',-1.7
'0:11.734',-1.95
'0:11.738',-2.28
'0:11.742',-2.26
'0:11.746',-1.8
'0:11.750',-0.72
'0:11.754',2.19
'0:11.758',7.5
'0:11.762',14.29
'0:11.766',20.66
'0:11.770',25.65
'0:11.773',28.55
'0:11.777',27.08
'0:11.781',19.7
'0:11.785',9.44
'0:11.789',0.93
'0:11.793',-4.41
'0:11.797',-7.13
'0:11.801',-8.3
'0:11.805',-8.62
'0:11.809',-8.51
'0:11.813',-8.26
'0:11.816',-7.96
'0:11.820',-7.54
'0:11.824',-6.92
'0:11.828',-6.27
'0:11.832',-5.63
'0:11.836',-5.01
'0:11.840',-4.55
'0:11.844',-4.19
'0:11.848',-3.79
'0:11.852',-3.29
'0:11.855',-2.77
'0:11.859',-2.21
'0:11.863',-1.66
'0:11.867',-1.12
'0:11.871',-0.48
'0:11.875',0.08
'0:11.879',0.67
'0:11.883',1.36
'0:11.887',2.1
'0:11.891',2.95
'0:11.895',3.79
'0:11.898',4.63
'0:11.902',5.25
'0:11.906',5.56
'0:11.910',5.78
'0:11.914',5.95
'0:11.918',5.94
'0:11.922',5.68
'0:11.926',5.21
'0:11.930',4.58
'0:11.934',3.89
'0:11.938',3.24
'0:11.941',2.51
'0:11.945',1.65
'0:11.949',0.66
'0:11.953',-0.01
'0:11.957',-0.66
'0:11.961',-1.09
'0:11.965',-1.43
'0:11.969',-1.7
'0:11.973',-1.86
'0:11.977',-2.02
'0:11.980',-2.19
'0:11.984',-2.38
'0:11.988',-2.5
'0:11.992',-2.58
'0:11.996',-2.53
'0:12.000',-2.41
'0:12.004',-2.39
'0:12.008',-2.41
'0:12.012',-2.4
'0:12.016',-2.34
'0:12.020',-2.21
'0:12.023',-1.99
'0:12.027',-1.78
'0:12.031',-1.58
'0:12.035',-1.39
'0:12.039',-1.21
'0:12.043',-1.05
'0:12.047',-1.09
'0:12.051',-1.24
'0:12.055',-1.17
'0:12.059',-1
'0:12.063',-0.94
'0:12.066',-1
'0:12.070',-1.09
'0:12.074',-1.13
'0:12.078',-1.22
'0:12.082',-1.53
'0:12.086',-2
'0:12.090',-2.39
'0:12.094',-2.59
'0:12.098',-2.62
'0:12.102',-2.78
'0:12.105',-2.99
'0:12.109',-3.07
'0:12.113',-3.07
'0:12.117',-3.09
'0:12.121',-2.98
'0:12.125',-2.84
'0:12.129',-2.72
'0:12.133',-2.69
'0:12.137',-2.89
'0:12.141',-3.19
'0:12.145',-3.31
'0:12.148',-3.03
'0:12.152',-1.88
'0:12.156',0.64
'0:12.160',5.28
'0:12.164',11.3
'0:12.168',17.15
'0:12.172',21.96
'0:12.176',25.24
'0:12.180',25.37
'0:12.184',19.78
'0:12.188',9.71
'0:12.191',0.58
'0:12.195',-5.12
'0:12.199',-7.77
'0:12.203',-8.63
'0:12.207',-8.72
'0:12.211',-8.47
'0:12.215',-8.13
'0:12.219',-7.61
'0:12.223',-7.02
'0:12.227',-6.52
'0:12.230',-5.98
'0:12.234',-5.36
'0:12.238',-4.83
'0:12.242',-4.41
'0:12.246',-4.14
'0:12.250',-3.91
'0:12.254',-3.41
'0:12.258',-2.85
'0:12.262',-2.41
'0:12.266',-2.02
'0:12.270',-1.48
'0:12.273',-0.82
'0:12.277',-0.24
'0:12.281',0.23
'0:12.285',0.91
'0:12.289',1.66
'0:12.293',2.47
'0:12.297',3.16
'0:12.301',3.79
'0:12.305',4.37
'0:12.309',4.98
'0:12.313',5.36
'0:12.316',5.32
'0:12.320',5.14
'0:12.324',4.92
'0:12.328',4.52
'0:12.332',4.03
'0:12.336',3.46
'0:12.340',2.72
'0:12.344',1.97
'0:12.348',1.07
'0:12.352',0.28
'0:12.355',-0.97
'0:12.359',-1.56
'0:12.363',-1.88
'0:12.367',-2.1
'0:12.371',-2.37
'0:12.375',-2.7
'0:12.379',-2.82
'0:12.383',-2.91
'0:12.387',-2.95
'0:12.391',-3
'0:12.395',-3.09
'0:12.398',-3.09
'0:12.402',-3.07
'0:12.406',-2.96
'0:12.410',-2.65
'0:12.414',-2.44
'0:12.418',-2.36
'0:12.422',-2.21
'0:12.426',-2.07
'0:12.430',-1.9
'0:12.434',-1.8
'0:12.438',-1.67
'0:12.441',-1.51
'0:12.445',-1.37
'0:12.449',-1.23
'0:12.453',-1.02
'0:12.457',-0.79
'0:12.461',-0.8
'0:12.465',-0.97
'0:12.469',-1.11
'0:12.473',-1.12
'0:12.477',-1.19
'0:12.480',-1.42
'0:12.484',-1.74
'0:12.488',-2.22
'0:12.492',-2.65
'0:12.496',-2.87
'0:12.500',-3.05
'0:12.504',-3.16
'0:12.508',-3.16
'0:12.512',-3.13
'0:12.516',-3.04
'0:12.520',-2.87
'0:12.523',-2.65
'0:12.527',-2.45
'0:12.531',-2.24
'0:12.535',-2.17
'0:12.539',-2.3
'0:12.543',-2.53
'0:12.547',-2.48
'0:12.551',-1.73
'0:12.555',0.6
'0:12.559',5.15
'0:12.563',11
'0:12.566',16.73
'0:12.570',21.43
'0:12.574',24.73
'0:12.578',24.83
'0:12.582',19.45
'0:12.586',10.08
'0:12.590',1.49
'0:12.594',-3.96
'0:12.598',-6.64
'0:12.602',-7.65
'0:12.605',-7.93
'0:12.609',-7.85
'0:12.613',-7.57
'0:12.617',-7.18
'0:12.621',-6.71
'0:12.625',-6.14
'0:12.629',-5.67
'0:12.633',-5.11
'0:12.637',-4.62
'0:12.641',-4.38
'0:12.645',-4.13
'0:12.648',-3.82
'0:12.652',-3.36
'0:12.656',-2.75
'0:12.660',-2.13
'0:12.664',-1.6
'0:12.668',-1.1
'0:12.672',-0.51
'0:12.676',0.22
'0:12.680',0.93
'0:12.684',1.6
'0:12.688',2.39
'0:12.691',3.2
'0:12.695',3.99
'0:12.699',4.64
'0:12.703',5.19
'0:12.707',5.41
'0:12.711',5.63
'0:12.715',5.76
'0:12.719',5.73
'0:12.723',5.38
'0:12.727',4.8
'0:12.730',4.26
'0:12.734',3.67
'0:12.738',2.95
'0:12.742',2.04
'0:12.746',1.09
'0:12.750',0.29
'0:12.754',-0.41
'0:12.758',-1.1
'0:12.762',-1.65
'0:12.766',-2.05
'0:12.770',-2.36
'0:12.773',-2.46
'0:12.777',-2.55
'0:12.781',-2.6
'0:12.785',-2.68
'0:12.789',-2.85
'0:12.793',-2.9
'0:12.797',-2.94
'0:12.801',-2.95
'0:12.805',-3.04
'0:12.809',-3
'0:12.813',-2.82
'0:12.816',-2.69
'0:12.820',-2.67
'0:12.824',-2.62
'0:12.828',-2.48
'0:12.832',-2.19
'0:12.836',-1.8
'0:12.840',-1.53
'0:12.844',-1.39
'0:12.848',-1.42
'0:12.852',-1.31
'0:12.855',-1.16
'0:12.859',-1.1
'0:12.863',-1.07
'0:12.867',-1.02
'0:12.871',-1.02
'0:12.875',-1.02
'0:12.879',-1.02
'0:12.883',-1.13
'0:12.887',-1.36
'0:12.891',-1.74
'0:12.895',-2.12
'0:12.898',-2.34
'0:12.902',-2.55
'0:12.906',-2.68
'0:12.910',-2.66
'0:12.914',-2.63
'0:12.918',-2.56
'0:12.922',-2.46
'0:12.926',-2.45
'0:12.930',-2.38
'0:12.934',-2.24
'0:12.938',-2.19
'0:12.941',-2.29
'0:12.945',-2.29
'0:12.949',-1.77
'0:12.953',-0.84
'0:12.957',0.99
'0:12.961',4.86
'0:12.965',11.02
'0:12.969',18.13
'0:12.973',24.01
'0:12.977',27.91
'0:12.980',29.08
'0:12.984',25.4
'0:12.988',16.44
'0:12.992',6.12
'0:12.996',-1.71
'0:13.000',-6.33
'0:13.004',-8.51
'0:13.008',-9.28
'0:13.012',-9.37
'0:13.016',-9.18
'0:13.020',-8.91
'0:13.023',-8.47
'0:13.027',-7.89
'0:13.031',-7.34
'0:13.035',-6.79
'0:13.039',-6.16
'0:13.043',-5.6
'0:13.047',-5
'0:13.051',-4.5
'0:13.055',-4.05
'0:13.059',-3.62
'0:13.063',-3.15
'0:13.066',-2.58
'0:13.070',-2.01
'0:13.074',-1.36
'0:13.078',-0.67
'0:13.082',0.08
'0:13.086',0.73
'0:13.090',1.35
'0:13.094',2
'0:13.098',2.72
'0:13.102',3.52
'0:13.105',4.35
'0:13.109',5
'0:13.113',5.36
'0:13.117',5.35
'0:13.121',5.22
'0:13.125',5.01
'0:13.129',4.67
'0:13.133',4.12
'0:13.137',3.47
'0:13.141',2.77
'0:13.145',2.02
'0:13.148',1.23
'0:13.152',0.39
'0:13.156',-0.47
'0:13.160',-1.18
'0:13.164',-1.73
'0:13.168',-2.1
'0:13.172',-2.48
'0:13.176',-2.75
'0:13.180',-2.84
'0:13.184',-2.7
'0:13.188',-2.5
'0:13.191',-2.46
'0:13.195',-2.55
'0:13.199',-2.53
'0:13.203',-2.27
'0:13.207',-2.1
'0:13.211',-2.24
'0:13.215',-2.39
'0:13.219',-2.36
'0:13.223',-2.09
'0:13.227',-1.86
'0:13.230',-1.7
'0:13.234',-1.57
'0:13.238',-1.46
'0:13.242',-1.21
'0:13.246',-1.05
'0:13.250',-1
'0:13.254',-0.97
'0:13.258',-0.95
'0:13.262',-0.95
'0:13.266',-0.76
'0:13.270',-0.63
'0:13.273',-0.71
'0:13.277',-0.82
'0:13.281',-0.8
'0:13.285',-0.73
'0:13.289',-0.76
'0:13.293',-1.08
'0:13.297',-1.61
'0:13.301',-2.05
'0:13.305',-2.24
'0:13.309',-2.38
'0:13.313',-2.56
'0:13.316',-2.73
'0:13.320',-2.75
'0:13.324',-2.62
'0:13.328',-2.48
'0:13.332',-2.31
'0:13.336',-2.04
'0:13.340',-1.87
'0:13.344',-1.85
'0:13.348',-2.22
'0:13.352',-2.8
'0:13.355',-2.89
'0:13.359',-2.29
'0:13.363',-1.08
'0:13.367',1.71
'0:13.371',6.85
'0:13.375',13.52
'0:13.379',19.88
'0:13.383',24.84
'0:13.387',27.77
'0:13.391',26.79
'0:13.395',20.06
'0:13.398',9.45
'0:13.402',0.34
'0:13.406',-5.19
'0:13.410',-7.8
'0:13.414',-8.72
'0:13.418',-8.91
'0:13.422',-8.73
'0:13.426',-8.35
'0:13.430',-7.81
'0:13.434',-7.28
'0:13.438',-6.85
'0:13.441',-6.38
'0:13.445',-5.96
'0:13.449',-5.59
'0:13.453',-5.05
'0:13.457',-4.38
'0:13.461',-3.79
'0:13.465',-3.28
'0:13.469',-2.92
'0:13.473',-2.5
'0:13.477',-1.89
'0:13.480',-1.34
'0:13.484',-0.79
'0:13.488',-0.18
'0:13.492',0.49
'0:13.496',1.17
'0:13.500',1.91
'0:13.504',2.65
'0:13.508',3.34
'0:13.512',3.86
'0:13.516',4.37
'0:13.520',4.74
'0:13.523',4.93
'0:13.527',4.98
'0:13.531',4.85
'0:13.535',4.58
'0:13.539',4.24
'0:13.543',3.72
'0:13.547',2.99
'0:13.551',2.2
'0:13.555',1.44
'0:13.559',0.7
'0:13.563',-0.01
'0:13.566',-0.66
'0:13.570',-1.2
'0:13.574',-1.63
'0:13.578',-1.92
'0:13.582',-2.14
'0:13.586',-2.31
'0:13.590',-2.46
'0:13.594',-2.55
'0:13.598',-2.6
'0:13.602',-2.48
'0:13.605',-2.29
'0:13.609',-2.17
'0:13.613',-2.14
'0:13.617',-2.1
'0:13.621',-2.24
'0:13.625',-2.29
'0:13.629',-2.14
'0:13.633',-1.81
'0:13.637',-1.63
'0:13.641',-1.65
'0:13.645',-1.7
'0:13.648',-1.62
'0:13.652',-1.46
'0:13.656',-1.34
'0:13.660',-1.24
'0:13.664',-1.06
'0:13.668',-0.85
'0:13.672',-0.74
'0:13.676',-0.69
'0:13.680',-0.65
'0:13.684',-0.83
'0:13.688',-1.04
'0:13.691',-1.15
'0:13.695',-1.43
'0:13.699',-1.85
'0:13.703',-2.19
'0:13.707',-2.5
'0:13.711',-2.73
'0:13.715',-2.85
'0:13.719',-2.96
'0:13.723',-3.02
'0:13.727',-2.96
'0:13.730',-2.85
'0:13.734',-2.77
'0:13.738',-2.69
'0:13.742',-2.61
'0:13.746',-2.6
'0:13.750',-2.71
'0:13.754',-2.91
'0:13.758',-2.86
'0:13.762',-2.27
'0:13.766',-0.51
'0:13.770',3.44
'0:13.773',9.48
'0:13.777',16.03
'0:13.781',21.66
'0:13.785',25.92
'0:13.789',27.62
'0:13.793',23.82
'0:13.797',14.45
'0:13.801',4.16
'0:13.805',-2.94
'0:13.809',-6.64
'0:13.813',-8.24
'0:13.816',-8.82
'0:13.820',-8.81
'0:13.824',-8.52
'0:13.828',-8.06
'0:13.832',-7.66
'0:13.836',-7.35
'0:13.840',-6.94
'0:13.844',-6.4
'0:13.848',-5.67
'0:13.852',-5.01
'0:13.855',-4.5
'0:13.859',-3.91
'0:13.863',-3.38
'0:13.867',-2.97
'0:13.871',-2.6
'0:13.875',-2.16
'0:13.879',-1.62
'0:13.883',-0.98
'0:13.887',-0.23
'0:13.891',0.49
'0:13.895',1.08
'0:13.898',1.59
'0:13.902',2.16
'0:13.906',2.72
'0:13.910',3.42
'0:13.914',4.12
'0:13.918',4.66
'0:13.922',4.97
'0:13.926',5.09
'0:13.930',5.06
'0:13.934',4.8
'0:13.938',4.43
'0:13.941',4.05
'0:13.945',3.58
'0:13.949',3.02
'0:13.953',2.36
'0:13.957',1.53
'0:13.961',0.68
'0:13.965',-0.05
'0:13.969',-0.66
'0:13.973',-1.22
'0:13.977',-1.8
'0:13.980',-2.25
'0:13.984',-2.48
'0:13.988',-2.65
'0:13.992',-2.81
'0:13.996',-2.87
'0:14.000',-2.79
'0:14.004',-2.75
'0:14.008',-2.66
'0:14.012',-2.53
'0:14.016',-2.51
'0:14.020',-2.5
'0:14.023',-2.39
'0:14.027',-2.28
'0:14.031',-2.16
'0:14.035',-2.05
'0:14.039',-1.9
'0:14.043',-1.75
'0:14.047',-1.58
'0:14.051',-1.49
'0:14.055',-1.38
'0:14.059',-1.22
'0:14.063',-1.07
'0:14.066',-0.96
'0:14.070',-0.87
'0:14.074',-0.72
'0:14.078',-0.59
'0:14.082',-0.43
'0:14.086',-0.32
'0:14.090',-0.34
'0:14.094',-0.5
'0:14.098',-0.73
'0:14.102',-1.05
'0:14.105',-1.37
'0:14.109',-1.76
'0:14.113',-2.26
'0:14.117',-2.51
'0:14.121',-2.58
'0:14.125',-2.56
'0:14.129',-2.51
'0:14.133',-2.46
'0:14.137',-2.48
'0:14.141',-2.48
'0:14.145',-2.43
'0:14.148',-2.37
'0:14.152',-2.43
'0:14.156',-2.62
'0:14.160',-2.57
'0:14.164',-2.14
'0:14.168',-1.19
'0:14.172',1.1
'0:14.176',5.65
'0:14.180',12.05
'0:14.184',18.73
'0:14.188',23.94
'0:14.191',27.38
'0:14.195',27.83
'0:14.199',23.08
'0:14.203',13.65
'0:14.207',3.82
'0:14.211',-2.85
'0:14.215',-6.39
'0:14.219',-7.94
'0:14.223',-8.42
'0:14.227',-8.37
'0:14.230',-8.08
'0:14.234',-7.66
'0:14.238',-7.22
'0:14.242',-7.04
'0:14.246',-6.79
'0:14.250',-6.3
'0:14.254',-5.72
'0:14.258',-5.08
'0:14.262',-4.54
'0:14.266',-4.18
'0:14.270',-3.79
'0:14.273',-3.32
'0:14.277',-2.86
'0:14.281',-2.35
'0:14.285',-1.81
'0:14.289',-1.25
'0:14.293',-0.7
'0:14.297',-0.03
'0:14.301',0.65
'0:14.305',1.38
'0:14.309',2.25
'0:14.313',3.05
'0:14.316',3.71
'0:14.320',4.32
'0:14.324',4.69
'0:14.328',4.9
'0:14.332',4.88
'0:14.336',4.78
'0:14.340',4.52
'0:14.344',4.12
'0:14.348',3.64
'0:14.352',3.16
'0:14.355',2.65
'0:14.359',2.05
'0:14.363',1.31
'0:14.367',0.46
'0:14.371',-0.37
'0:14.375',-1.02
'0:14.379',-1.42
'0:14.383',-1.74
'0:14.387',-2.04
'0:14.391',-2.22
'0:14.395',-2.29
'0:14.398',-2.23
'0:14.402',-2.21
'0:14.406',-2.28
'0:14.410',-2.29
'0:14.414',-2.22
'0:14.418',-2.14
'0:14.422',-2.14
'0:14.426',-2.19
'0:14.430',-2.22
'0:14.434',-2.24
'0:14.438',-2.22
'0:14.441',-2.18
'0:14.445',-2.02
'0:14.449',-1.89
'0:14.453',-1.74
'0:14.457',-1.56
'0:14.461',-1.36
'0:14.465',-1.22
'0:14.469',-1.14
'0:14.473',-1.06
'0:14.477',-0.82
'0:14.480',-0.55
'0:14.484',-0.38
'0:14.488',-0.5
'0:14.492',-0.77
'0:14.496',-0.98
'0:14.500',-1.19
'0:14.504',-1.28
'0:14.508',-1.65
'0:14.512',-2.12
'0:14.516',-2.53
'0:14.520',-2.78
'0:14.523',-2.89
'0:14.527',-2.82
'0:14.531',-2.85
'0:14.535',-3.02
'0:14.539',-3.11
'0:14.543',-3.06
'0:14.547',-2.94
'0:14.551',-2.77
'0:14.555',-2.63
'0:14.559',-2.58
'0:14.563',-2.68
'0:14.566',-2.77
'0:14.570',-2.52
'0:14.574',-1.72
'0:14.578',0.07
'0:14.582',3.87
'0:14.586',9.86
'0:14.590',16.74
'0:14.594',22.64
'0:14.598',26.9
'0:14.602',28.48
'0:14.605',24.99
'0:14.609',16.17
'0:14.613',6.03
'0:14.617',-1.52
'0:14.621',-5.78
'0:14.625',-7.88
'0:14.629',-8.89
'0:14.633',-9.26
'0:14.637',-9.26
'0:14.641',-9.03
'0:14.645',-8.63
'0:14.648',-8.07
'0:14.652',-7.49
'0:14.656',-7.05
'0:14.660',-6.67
'0:14.664',-6.28
'0:14.668',-5.79
'0:14.672',-5.23
'0:14.676',-4.57
'0:14.680',-3.89
'0:14.684',-3.3
'0:14.688',-2.82
'0:14.691',-2.35
'0:14.695',-1.87
'0:14.699',-1.35
'0:14.703',-0.67
'0:14.707',0.03
'0:14.711',0.7
'0:14.715',1.41
'0:14.719',2.18
'0:14.723',2.99
'0:14.727',3.81
'0:14.730',4.47
'0:14.734',4.86
'0:14.738',4.96
'0:14.742',4.91
'0:14.746',4.82
'0:14.750',4.5
'0:14.754',3.92
'0:14.758',3.21
'0:14.762',2.48
'0:14.766',1.85
'0:14.770',1.17
'0:14.773',0.43
'0:14.777',-0.22
'0:14.781',-0.83
'0:14.785',-1.42
'0:14.789',-1.9
'0:14.793',-2.2
'0:14.797',-2.49
'0:14.801',-2.71
'0:14.805',-2.68
'0:14.809',-2.49
'0:14.813',-2.5
'0:14.816',-2.66
'0:14.820',-2.75
'0:14.824',-2.7
'0:14.828',-2.51
'0:14.832',-2.42
'0:14.836',-2.35
'0:14.840',-2.27
'0:14.844',-2.16
'0:14.848',-1.96
'0:14.852',-1.82
'0:14.855',-1.77
'0:14.859',-1.65
'0:14.863',-1.46
'0:14.867',-1.35
'0:14.871',-1.19
'0:14.875',-1.04
'0:14.879',-0.95
'0:14.883',-0.82
'0:14.887',-0.7
'0:14.891',-0.7
'0:14.895',-0.67
'0:14.898',-0.57
'0:14.902',-0.51
'0:14.906',-0.5
'0:14.910',-0.76
'0:14.914',-1.13
'0:14.918',-1.54
'0:14.922',-1.83
'0:14.926',-2.06
'0:14.930',-2.36
'0:14.934',-2.56
'0:14.938',-2.66
'0:14.941',-2.62
'0:14.945',-2.56
'0:14.949',-2.48
'0:14.953',-2.34
'0:14.957',-2.16
'0:14.961',-1.89
'0:14.965',-1.7
'0:14.969',-1.91
'0:14.973',-2.37
'0:14.977',-2.55
'0:14.980',-2.23
'0:14.984',-1.22
'0:14.988',1.32
'0:14.992',6.07
'0:14.996',12.48
'0:15.000',18.94
'0:15.004',24.32
'0:15.008',28.01
'0:15.012',28.3
'0:15.016',22.65
'0:15.020',12.47
'0:15.023',2.69
'0:15.027',-3.67
'0:15.031',-6.99
'0:15.035',-8.46
'0:15.039',-8.81
'0:15.043',-8.54
'0:15.047',-8.13
'0:15.051',-7.74
'0:15.055',-7.34
'0:15.059',-6.84
'0:15.063',-6.27
'0:15.066',-5.76
'0:15.070',-5.27
'0:15.074',-4.72
'0:15.078',-4.26
'0:15.082',-3.99
'0:15.086',-3.72
'0:15.090',-3.31
'0:15.094',-2.7
'0:15.098',-2.06
'0:15.102',-1.28
'0:15.105',-0.6
'0:15.109',-0.04
'0:15.113',0.45
'0:15.117',0.96
'0:15.121',1.76
'0:15.125',2.69
'0:15.129',3.52
'0:15.133',4.15
'0:15.137',4.73
'0:15.141',5.12
'0:15.145',5.37
'0:15.148',5.26
'0:15.152',4.87
'0:15.156',4.39
'0:15.160',4
'0:15.164',3.71
'0:15.168',3.47
'0:15.172',3.09
'0:15.176',2.48
'0:15.180',1.68
'0:15.184',0.87
'0:15.188',0.22
'0:15.191',-0.29
'0:15.195',-0.63
'0:15.199',-0.85
'0:15.203',-1.02
'0:15.207',-1.38
'0:15.211',-1.8
'0:15.215',-2.19
'0:15.219',-2.4
'0:15.223',-2.41
'0:15.227',-2.39
'0:15.230',-2.39
'0:15.234',-2.34
'0:15.238',-2.38
'0:15.242',-2.38
'0:15.246',-2.22
'0:15.250',-1.99
'0:15.254',-1.9
'0:15.258',-1.97
'0:15.262',-2.01
'0:15.266',-1.98
'0:15.270',-1.96
'0:15.273',-1.72
'0:15.277',-1.41
'0:15.281',-1.34
'0:15.285',-1.29
'0:15.289',-1.14
'0:15.293',-0.94
'0:15.297',-0.82
'0:15.301',-0.86
'0:15.305',-0.9
'0:15.309',-0.95
'0:15.313',-1.1
'0:15.316',-1.45
'0:15.320',-1.99
'0:15.324',-2.46
'0:15.328',-2.71
'0:15.332',-2.8
'0:15.336',-2.82
'0:15.340',-2.89
'0:15.344',-2.93
'0:15.348',-2.89
'0:15.352',-2.83
'0:15.355',-2.75
'0:15.359',-2.62
'0:15.363',-2.5
'0:15.367',-2.31
'0:15.371',-2.19
'0:15.375',-2.26
'0:15.379',-2.38
'0:15.383',-2.13
'0:15.387',-1.11
'0:15.391',1.33
'0:15.395',6.05
'0:15.398',12.62
'0:15.402',19.37
'0:15.406',24.81
'0:15.410',28.18
'0:15.414',28.5
'0:15.418',23.43
'0:15.422',13.53
'0:15.426',3.67
'0:15.430',-3
'0:15.434',-6.65
'0:15.438',-8.43
'0:15.441',-9.1
'0:15.445',-9.08
'0:15.449',-8.81
'0:15.453',-8.55
'0:15.457',-8.46
'0:15.461',-8.25
'0:15.465',-7.84
'0:15.469',-7.17
'0:15.473',-6.6
'0:15.477',-6.12
'0:15.480',-5.51
'0:15.484',-4.84
'0:15.488',-4.31
'0:15.492',-3.85
'0:15.496',-3.38
'0:15.500',-2.94
'0:15.504',-2.43
'0:15.508',-1.89
'0:15.512',-1.38
'0:15.516',-0.8
'0:15.520',-0.18
'0:15.523',0.55
'0:15.527',1.43
'0:15.531',2.32
'0:15.535',3.03
'0:15.539',3.37
'0:15.543',3.84
'0:15.547',4.02
'0:15.551',3.97
'0:15.555',3.77
'0:15.559',3.43
'0:15.563',2.82
'0:15.566',2.27
'0:15.570',1.82
'0:15.574',1.36
'0:15.578',0.85
'0:15.582',0.41
'0:15.586',0.03
'0:15.590',-0.42
'0:15.594',-0.8
'0:15.598',-1.1
'0:15.602',-1.29
'0:15.605',-1.45
'0:15.609',-1.63
'0:15.613',-1.84
'0:15.617',-1.87
'0:15.621',-1.87
'0:15.625',-1.87
'0:15.629',-1.9
'0:15.633',-1.85
'0:15.637',-1.77
'0:15.641',-1.55
'0:15.645',-1.43
'0:15.648',-1.48
'0:15.652',-1.56
'0:15.656',-1.6
'0:15.660',-1.53
'0:15.664',-1.38
'0:15.668',-1.13
'0:15.672',-0.92
'0:15.676',-0.84
'0:15.680',-0.67
'0:15.684',-0.5
'0:15.688',-0.37
'0:15.691',-0.32
'0:15.695',-0.24
'0:15.699',-0.24
'0:15.703',-0.24
'0:15.707',-0.19
'0:15.711',-0.17
'0:15.715',-0.26
'0:15.719',-0.41
'0:15.723',-0.67
'0:15.727',-1.08
'0:15.730',-1.63
'0:15.734',-2.05
'0:15.738',-2.31
'0:15.742',-2.51
'0:15.746',-2.56
'0:15.750',-2.43
'0:15.754',-2.26
'0:15.758',-2.12
'0:15.762',-2.1
'0:15.766',-2.22
'0:15.770',-2.31
'0:15.773',-2.35
'0:15.777',-2.5
'0:15.781',-2.58
'0:15.785',-2.35
'0:15.789',-1.69
'0:15.793',-0.46
'0:15.797',2.43
'0:15.801',7.7
'0:15.805',14.53
'0:15.809',20.93
'0:15.813',25.68
'0:15.816',28.36
'0:15.820',27.24
'0:15.824',20.68
'0:15.828',10.43
'0:15.832',1.29
'0:15.836',-4.43
'0:15.840',-7.38
'0:15.844',-8.58
'0:15.848',-8.84
'0:15.852',-8.68
'0:15.855',-8.3
'0:15.859',-8.08
'0:15.863',-8.04
'0:15.867',-7.54
'0:15.871',-7.2
'0:15.875',-6.77
'0:15.879',-6.15
'0:15.883',-5.49
'0:15.887',-4.97
'0:15.891',-4.52
'0:15.895',-4.13
'0:15.898',-3.64
'0:15.902',-3.04
'0:15.906',-2.47
'0:15.910',-1.92
'0:15.914',-1.41
'0:15.918',-0.93
'0:15.922',-0.3
'0:15.926',0.4
'0:15.930',1.23
'0:15.934',1.96
'0:15.938',2.64
'0:15.941',3.32
'0:15.945',3.93
'0:15.949',4.35
'0:15.953',4.63
'0:15.957',4.66
'0:15.961',4.59
'0:15.965',4.4
'0:15.969',4.07
'0:15.973',3.55
'0:15.977',2.95
'0:15.980',2.31
'0:15.984',1.58
'0:15.988',0.82
'0:15.992',0.07
'0:15.996',-0.47
'0:16.000',-1
'0:16.004',-1.54
'0:16.008',-2.03
'0:16.012',-2.39
'0:16.016',-2.53
'0:16.020',-2.53
'0:16.023',-2.58
'0:16.027',-2.66
'0:16.031',-2.63
'0:16.035',-2.4
'0:16.039',-2.31
'0:16.043',-2.34
'0:16.047',-2.44
'0:16.051',-2.42
'0:16.055',-2.31
'0:16.059',-2.16
'0:16.063',-1.96
'0:16.066',-1.8
'0:16.070',-1.6
'0:16.074',-1.51
'0:16.078',-1.48
'0:16.082',-1.48
'0:16.086',-1.48
'0:16.090',-1.48
'0:16.094',-1.34
'0:16.098',-1.09
'0:16.102',-0.94
'0:16.105',-0.78
'0:16.109',-0.78
'0:16.113',-0.53
'0:16.117',-0.48
'0:16.121',-0.52
'0:16.125',-0.53
'0:16.129',-0.51
'0:16.133',-0.69
'0:16.137',-1.07
'0:16.141',-1.58
'0:16.145',-2.05
'0:16.148',-2.39
'0:16.152',-2.67
'0:16.156',-2.82
'0:16.160',-2.79
'0:16.164',-2.68
'0:16.168',-2.6
'0:16.172',-2.51
'0:16.176',-2.38
'0:16.180',-2.19
'0:16.184',-2.05
'0:16.188',-1.97
'0:16.191',-2.1
'0:16.195',-2.24
'0:16.199',-2.11
'0:16.203',-1.35
'0:16.207',0.42
'0:16.211',4.23
'0:16.215',10.3
'0:16.219',17.34
'0:16.223',23.62
'0:16.227',28.28
'0:16.230',30.43
'0:16.234',27.48
'0:16.238',18.59
'0:16.242',7.61
'0:16.246',-0.95
'0:16.250',-5.96
'0:16.254',-8.39
'0:16.258',-9.32
'0:16.262',-9.4
'0:16.266',-9.08
'0:16.270',-8.72
'0:16.273',-8.42
'0:16.277',-8
'0:16.281',-7.44
'0:16.285',-6.84
'0:16.289',-6.23
'0:16.293',-5.66
'0:16.297',-5
'0:16.301',-4.26
'0:16.305',-3.52
'0:16.309',-2.86
'0:16.313',-2.31
'0:16.316',-1.96
'0:16.320',-1.72
'0:16.324',-1.38
'0:16.328',-0.95
'0:16.332',-0.47
'0:16.336',0.06
'0:16.340',0.68
'0:16.344',1.45
'0:16.348',2.36
'0:16.352',3.28
'0:16.355',4.08
'0:16.359',4.79
'0:16.363',5.25
'0:16.367',5.46
'0:16.371',5.34
'0:16.375',4.99
'0:16.379',4.51
'0:16.383',4.07
'0:16.387',3.63
'0:16.391',3.11
'0:16.395',2.46
'0:16.398',1.79
'0:16.402',1.1
'0:16.406',0.38
'0:16.410',-0.3
'0:16.414',-1.05
'0:16.418',-1.71
'0:16.422',-2.19
'0:16.426',-2.48
'0:16.430',-2.65
'0:16.434',-2.7
'0:16.438',-2.62
'0:16.441',-2.58
'0:16.445',-2.61
'0:16.449',-2.65
'0:16.453',-2.68
'0:16.457',-2.55
'0:16.461',-2.39
'0:16.465',-2.23
'0:16.469',-2.12
'0:16.473',-2.12
'0:16.477',-2.09
'0:16.480',-1.84
'0:16.484',-1.65
'0:16.488',-1.56
'0:16.492',-1.43
'0:16.496',-1.34
'0:16.500',-1.29
'0:16.504',-1.26
'0:16.508',-1.25
'0:16.512',-1.29
'0:16.516',-1.19
'0:16.520',-1
'0:16.523',-0.94
'0:16.527',-0.96
'0:16.531',-1.12
'0:16.535',-1.32
'0:16.539',-1.61
'0:16.543',-1.92
'0:16.547',-2.18
'0:16.551',-2.68
'0:16.555',-2.88
'0:16.559',-2.86
'0:16.563',-2.79
'0:16.566',-2.77
'0:16.570',-2.8
'0:16.574',-2.8
'0:16.578',-2.65
'0:16.582',-2.43
'0:16.586',-2.24
'0:16.590',-2.17
'0:16.594',-2.24
'0:16.598',-2.44
'0:16.602',-2.49
'0:16.605',-2.26
'0:16.609',-1.64
'0:16.613',0.08
'0:16.617',4.13
'0:16.621',10.14
'0:16.625',16.46
'0:16.629',21.77
'0:16.633',25.44
'0:16.637',26.14
'0:16.641',21.52
'0:16.645',12.01
'0:16.648',2.33
'0:16.652',-3.98
'0:16.656',-7.03
'0:16.660',-8.15
'0:16.664',-8.33
'0:16.668',-8.17
'0:16.672',-7.84
'0:16.676',-7.44
'0:16.680',-7.02
'0:16.684',-6.54
'0:16.688',-6.04
'0:16.691',-5.6
'0:16.695',-5.15
'0:16.699',-4.59
'0:16.703',-3.97
'0:16.707',-3.48
'0:16.711',-3.13
'0:16.715',-2.72
'0:16.719',-2.27
'0:16.723',-1.82
'0:16.727',-1.38
'0:16.730',-0.84
'0:16.734',-0.41
'0:16.738',-0.14
'0:16.742',0.05
'0:16.746',0.99
'0:16.750',1.71
'0:16.754',2.47
'0:16.758',3.23
'0:16.762',3.9
'0:16.766',4.41
'0:16.770',4.73
'0:16.773',4.89
'0:16.777',4.97
'0:16.781',4.86
'0:16.785',4.52
'0:16.789',4.01
'0:16.793',3.43
'0:16.797',2.88
'0:16.801',2.35
'0:16.805',1.55
'0:16.809',0.72
'0:16.813',-0.1
'0:16.816',-0.76
'0:16.820',-1.12
'0:16.824',-1.46
'0:16.828',-1.78
'0:16.832',-2.01
'0:16.836',-2.1
'0:16.840',-2.07
'0:16.844',-2.02
'0:16.848',-1.99
'0:16.852',-1.97
'0:16.855',-2.02
'0:16.859',-2.08
'0:16.863',-2.12
'0:16.867',-2.14
'0:16.871',-2.12
'0:16.875',-2.06
'0:16.879',-1.85
'0:16.883',-1.83
'0:16.887',-1.94
'0:16.891',-1.91
'0:16.895',-1.81
'0:16.898',-1.78
'0:16.902',-1.77
'0:16.906',-1.75
'0:16.910',-1.72
'0:16.914',-1.58
'0:16.918',-1.34
'0:16.922',-1.09
'0:16.926',-0.9
'0:16.930',-0.82
'0:16.934',-0.75
'0:16.938',-0.78
'0:16.941',-0.94
'0:16.945',-1.12
'0:16.949',-1.34
'0:16.953',-1.59
'0:16.957',-1.98
'0:16.961',-2.3
'0:16.965',-2.53
'0:16.969',-2.74
'0:16.973',-2.89
'0:16.977',-2.91
'0:16.980',-2.82
'0:16.984',-2.72
'0:16.988',-2.65
'0:16.992',-2.57
'0:16.996',-2.38
'0:17.000',-2.23
'0:17.004',-2.19
'0:17.008',-2.32
'0:17.012',-2.64
'0:17.016',-2.69
'0:17.020',-2.23
'0:17.023',-1.14
'0:17.027',1.66
'0:17.031',6.8
'0:17.035',13.54
'0:17.039',20.04
'0:17.043',25.13
'0:17.047',28.3
'0:17.051',27.62
'0:17.055',21.19
'0:17.059',10.96
'0:17.063',1.71
'0:17.066',-4.3
'0:17.070',-7.45
'0:17.074',-8.8
'0:17.078',-9.26
'0:17.082',-9.25
'0:17.086',-9.04
'0:17.090',-8.73
'0:17.094',-8.29
'0:17.098',-7.73
'0:17.102',-7.15
'0:17.105',-6.55
'0:17.109',-6.03
'0:17.113',-5.49
'0:17.117',-4.99
'0:17.121',-4.5
'0:17.125',-4.04
'0:17.129',-3.54
'0:17.133',-2.99
'0:17.137',-2.38
'0:17.141',-1.77
'0:17.145',-1.21
'0:17.148',-0.65
'0:17.152',-0.05
'0:17.156',0.57
'0:17.160',1.16
'0:17.164',1.85
'0:17.168',2.6
'0:17.172',3.32
'0:17.176',4.01
'0:17.180',4.57
'0:17.184',4.82
'0:17.188',4.82
'0:17.191',4.68
'0:17.195',4.43
'0:17.199',3.94
'0:17.203',3.3
'0:17.207',2.7
'0:17.211',2.16
'0:17.215',1.62
'0:17.219',1
'0:17.223',0.26
'0:17.227',-0.44
'0:17.230',-0.9
'0:17.234',-1.29
'0:17.238',-1.73
'0:17.242',-2.15
'0:17.246',-2.39
'0:17.250',-2.41
'0:17.254',-2.35
'0:17.258',-2.36
'0:17.262',-2.42
'0:17.266',-2.43
'0:17.270',-2.43
'0:17.273',-2.44
'0:17.277',-2.46
'0:17.281',-2.46
'0:17.285',-2.46
'0:17.289',-2.51
'0:17.293',-2.47
'0:17.297',-2.35
'0:17.301',-2.14
'0:17.305',-1.9
'0:17.309',-1.67
'0:17.313',-1.58
'0:17.316',-1.58
'0:17.320',-1.5
'0:17.324',-1.34
'0:17.328',-1.14
'0:17.332',-1
'0:17.336',-0.84
'0:17.340',-0.6
'0:17.344',-0.28
'0:17.348',-0.14
'0:17.352',-0.22
'0:17.355',-0.42
'0:17.359',-0.66
'0:17.363',-0.82
'0:17.367',-0.87
'0:17.371',-1.07
'0:17.375',-1.43
'0:17.379',-1.82
'0:17.383',-2.1
'0:17.387',-2.17
'0:17.391',-2.32
'0:17.395',-2.38
'0:17.398',-2.49
'0:17.402',-2.48
'0:17.406',-2.36
'0:17.410',-2.11
'0:17.414',-1.87
'0:17.418',-1.73
'0:17.422',-1.7
'0:17.426',-1.8
'0:17.430',-1.99
'0:17.434',-1.96
'0:17.438',-1.42
'0:17.441',0.17
'0:17.445',3.87
'0:17.449',9.77
'0:17.453',16.62
'0:17.457',22.58
'0:17.461',27.01
'0:17.465',29.03
'0:17.469',26.39
'0:17.473',17.95
'0:17.477',7.24
'0:17.480',-1.01
'0:17.484',-5.72
'0:17.488',-7.93
'0:17.492',-8.77
'0:17.496',-8.78
'0:17.500',-8.44
'0:17.504',-8.03
'0:17.508',-7.7
'0:17.512',-7.3
'0:17.516',-6.94
'0:17.520',-6.51
'0:17.523',-5.98
'0:17.527',-5.37
'0:17.531',-4.8
'0:17.535',-4.32
'0:17.539',-3.81
'0:17.543',-3.23
'0:17.547',-2.59
'0:17.551',-2.01
'0:17.555',-1.5
'0:17.559',-1
'0:17.563',-0.35
'0:17.566',0.29
'0:17.570',0.86
'0:17.574',1.28
'0:17.578',1.87
'0:17.582',2.6
'0:17.586',3.38
'0:17.590',4
'0:17.594',4.37
'0:17.598',4.69
'0:17.602',4.93
'0:17.605',5.04
'0:17.609',4.99
'0:17.613',4.62
'0:17.617',4.15
'0:17.621',3.65
'0:17.625',3.11
'0:17.629',2.51
'0:17.633',1.81
'0:17.637',1.22
'0:17.641',0.62
'0:17.645',-0.1
'0:17.648',-0.89
'0:17.652',-1.55
'0:17.656',-2.1
'0:17.660',-2.24
'0:17.664',-2.24
'0:17.668',-2.35
'0:17.672',-2.24
'0:17.676',-2.12
'0:17.680',-1.96
'0:17.684',-1.76
'0:17.688',-1.68
'0:17.691',-1.73
'0:17.695',-1.95
'0:17.699',-2.25
'0:17.703',-2.43
'0:17.707',-2.37
'0:17.711',-2.25
'0:17.715',-2.14
'0:17.719',-1.91
'0:17.723',-1.68
'0:17.727',-1.53
'0:17.730',-1.55
'0:17.734',-1.65
'0:17.738',-1.65
'0:17.742',-1.58
'0:17.746',-1.48
'0:17.750',-1.28
'0:17.754',-1.22
'0:17.758',-1.12
'0:17.762',-1.37
'0:17.766',-1.75
'0:17.770',-1.87
'0:17.773',-1.72
'0:17.777',-1.56
'0:17.781',-1.67
'0:17.785',-1.98
'0:17.789',-2.42
'0:17.793',-2.94
'0:17.797',-3.16
'0:17.801',-3.14
'0:17.805',-3.04
'0:17.809',-2.8
'0:17.813',-2.62
'0:17.816',-2.58
'0:17.820',-2.65
'0:17.824',-2.69
'0:17.828',-2.73
'0:17.832',-2.7
'0:17.836',-2.66
'0:17.840',-2.73
'0:17.844',-2.67
'0:17.848',-2.03
'0:17.852',-0.75
'0:17.855',1.73
'0:17.859',6.47
'0:17.863',13.16
'0:17.867',20.15
'0:17.871',25.87
'0:17.875',29.32
'0:17.879',29.39
'0:17.883',24.07
'0:17.887',13.93
'0:17.891',3.75
'0:17.895',-3.12
'0:17.898',-6.9
'0:17.902',-8.82
'0:17.906',-9.68
'0:17.910',-9.99
'0:17.914',-9.93
'0:17.918',-9.69
'0:17.922',-9.25
'0:17.926',-8.61
'0:17.930',-7.83
'0:17.934',-7.07
'0:17.938',-6.39
'0:17.941',-5.85
'0:17.945',-5.42
'0:17.949',-5.04
'0:17.953',-4.6
'0:17.957',-4.15
'0:17.961',-3.66
'0:17.965',-3.16
'0:17.969',-2.67
'0:17.973',-2.17
'0:17.977',-1.7
'0:17.980',-1.26
'0:17.984',-0.81
'0:17.988',-0.3
'0:17.992',0.33
'0:17.996',0.94
'0:18.000',1.5
'0:18.004',2.1
'0:18.008',2.69
'0:18.012',3.06
'0:18.016',3.15
'0:18.020',3.01
'0:18.023',2.76
'0:18.027',2.46
'0:18.031',2.22
'0:18.035',1.97
'0:18.039',1.63
'0:18.043',1.25
'0:18.047',0.75
'0:18.051',0.24
'0:18.055',-0.1
'0:18.059',-0.43
'0:18.063',-0.64
'0:18.066',-0.72
'0:18.070',-0.75
'0:18.074',-0.7
'0:18.078',-0.77
'0:18.082',-0.89
'0:18.086',-1.01
'0:18.090',-1.05
'0:18.094',-1
'0:18.098',-0.94
'0:18.102',-1.07
'0:18.105',-1.25
'0:18.109',-1.24
'0:18.113',-1.14
'0:18.117',-1.08
'0:18.121',-1.06
'0:18.125',-1.07
'0:18.129',-0.97
'0:18.133',-0.82
'0:18.137',-0.77
'0:18.141',-0.85
'0:18.145',-0.87
'0:18.148',-0.78
'0:18.152',-0.65
'0:18.156',-0.54
'0:18.160',-0.47
'0:18.164',-0.36
'0:18.168',-0.11
'0:18.172',0.13
'0:18.176',0.2
'0:18.180',0.2
'0:18.184',0.14
'0:18.188',0.01
'0:18.191',-0.02
'0:18.195',-0.04
'0:18.199',-0.25
'0:18.203',-0.69
'0:18.207',-1.21
'0:18.211',-1.58
'0:18.215',-1.8
'0:18.219',-2.07
'0:18.223',-2.14
'0:18.227',-2.1
'0:18.230',-2.09
'0:18.234',-2.1
'0:18.238',-2.16
'0:18.242',-2.12
'0:18.246',-1.95
'0:18.250',-1.8
'0:18.254',-1.99
'0:18.258',-2.33
'0:18.262',-2.43
'0:18.266',-2
'0:18.270',-0.92
'0:18.273',1.26
'0:18.277',5.44
'0:18.281',11.51
'0:18.285',17.99
'0:18.289',23.33
'0:18.293',26.92
'0:18.297',27.36
'0:18.301',22.58
'0:18.305',13.32
'0:18.309',3.92
'0:18.313',-2.54
'0:18.316',-6.16
'0:18.320',-7.88
'0:18.324',-8.53
'0:18.328',-8.63
'0:18.332',-8.37
'0:18.336',-7.98
'0:18.340',-7.59
'0:18.344',-7.12
'0:18.348',-6.54
'0:18.352',-5.96
'0:18.355',-5.47
'0:18.359',-5.09
'0:18.363',-4.67
'0:18.367',-4.15
'0:18.371',-3.64
'0:18.375',-3.15
'0:18.379',-2.66
'0:18.383',-2.05
'0:18.387',-1.49
'0:18.391',-1.06
'0:18.395',-0.77
'0:18.398',-0.42
'0:18.402',-0.03
'0:18.406',0.5
'0:18.410',1.21
'0:18.414',2.04
'0:18.418',2.85
'0:18.422',3.65
'0:18.426',4.43
'0:18.430',4.85
'0:18.434',4.95
'0:18.438',4.9
'0:18.441',4.75
'0:18.445',4.38
'0:18.449',3.99
'0:18.453',3.53
'0:18.457',3.02
'0:18.461',2.39
'0:18.465',1.72
'0:18.469',0.96
'0:18.473',0.16
'0:18.477',-0.47
'0:18.480',-1.03
'0:18.484',-1.52
'0:18.488',-1.85
'0:18.492',-1.92
'0:18.496',-1.98
'0:18.500',-2.13
'0:18.504',-2.34
'0:18.508',-2.37
'0:18.512',-2.32
'0:18.516',-2.26
'0:18.520',-2.26
'0:18.523',-2.34
'0:18.527',-2.38
'0:18.531',-2.38
'0:18.535',-2.56
'0:18.539',-2.71
'0:18.543',-2.65
'0:18.547',-2.53
'0:18.551',-2.43
'0:18.555',-2.34
'0:18.559',-2.26
'0:18.563',-2.1
'0:18.566',-2.02
'0:18.570',-1.97
'0:18.574',-1.88
'0:18.578',-1.76
'0:18.582',-1.66
'0:18.586',-1.55
'0:18.590',-1.44
'0:18.594',-1.23
'0:18.598',-0.9
'0:18.602',-0.68
'0:18.605',-0.68
'0:18.609',-0.85
'0:18.613',-1
'0:18.617',-1.07
'0:18.621',-1.2
'0:18.625',-1.42
'0:18.629',-1.94
'0:18.633',-2.46
'0:18.637',-2.8
'0:18.641',-2.92
'0:18.645',-2.87
'0:18.648',-2.75
'0:18.652',-2.55
'0:18.656',-2.35
'0:18.660',-2.24
'0:18.664',-2.25
'0:18.668',-2.26
'0:18.672',-2.21
'0:18.676',-2.04
'0:18.680',-1.97
'0:18.684',-2.04
'0:18.688',-1.94
'0:18.691',-1.27
'0:18.695',0.13
'0:18.699',3.11
'0:18.703',8.16
'0:18.707',14.69
'0:18.711',21.01
'0:18.715',25.91
'0:18.719',28.68
'0:18.723',27.19
'0:18.727',19.86
'0:18.730',9.63
'0:18.734',0.91
'0:18.738',-4.51
'0:18.742',-7.31
'0:18.746',-8.48
'0:18.750',-8.82
'0:18.754',-8.77
'0:18.758',-8.57
'0:18.762',-8.33
'0:18.766',-7.98
'0:18.770',-7.47
'0:18.773',-6.93
'0:18.777',-6.37
'0:18.781',-5.81
'0:18.785',-5.28
'0:18.789',-4.63
'0:18.793',-3.98
'0:18.797',-3.42
'0:18.801',-2.96
'0:18.805',-2.57
'0:18.809',-2.15
'0:18.813',-1.64
'0:18.816',-1.13
'0:18.820',-0.57
'0:18.824',0.01
'0:18.828',0.67
'0:18.832',1.32
'0:18.836',2.06
'0:18.840',2.84
'0:18.844',3.65
'0:18.848',4.39
'0:18.852',5.03
'0:18.855',5.48
'0:18.859',5.63
'0:18.863',5.45
'0:18.867',5.16
'0:18.871',4.85
'0:18.875',4.48
'0:18.879',3.97
'0:18.883',3.2
'0:18.887',2.3
'0:18.891',1.41
'0:18.895',0.53
'0:18.898',-0.23
'0:18.902',-0.9
'0:18.906',-1.46
'0:18.910',-1.88
'0:18.914',-2.19
'0:18.918',-2.34
'0:18.922',-2.4
'0:18.926',-2.41
'0:18.930',-2.33
'0:18.934',-2.19
'0:18.938',-2.07
'0:18.941',-2.07
'0:18.945',-2.19
'0:18.949',-2.24
'0:18.953',-2.15
'0:18.957',-2.06
'0:18.961',-2.09
'0:18.965',-2.26
'0:18.969',-2.46
'0:18.973',-2.58
'0:18.977',-2.61
'0:18.980',-2.6
'0:18.984',-2.46
'0:18.988',-2.18
'0:18.992',-1.9
'0:18.996',-1.62
'0:19.000',-1.4
'0:19.004',-1.26
'0:19.008',-0.99
'0:19.012',-0.87
'0:19.016',-0.95
'0:19.020',-0.92
'0:19.023',-0.73
'0:19.027',-0.68
'0:19.031',-0.64
'0:19.035',-0.58
'0:19.039',-0.58
'0:19.043',-0.65
'0:19.047',-0.83
'0:19.051',-1.18
'0:19.055',-1.71
'0:19.059',-2.08
'0:19.063',-2.34
'0:19.066',-2.46
'0:19.070',-2.42
'0:19.074',-2.36
'0:19.078',-2.29
'0:19.082',-2.22
'0:19.086',-2.13
'0:19.090',-2.12
'0:19.094',-2.13
'0:19.098',-2.19
'0:19.102',-2.23
'0:19.105',-2.42
'0:19.109',-2.6
'0:19.113',-2.49
'0:19.117',-1.88
'0:19.121',-0.59
'0:19.125',2.35
'0:19.129',7.63
'0:19.133',14.16
'0:19.137',20.29
'0:19.141',25.02
'0:19.145',27.73
'0:19.148',26.4
'0:19.152',19.24
'0:19.156',8.59
'0:19.160',-0.19
'0:19.164',-5.35
'0:19.168',-7.71
'0:19.172',-8.56
'0:19.176',-8.7
'0:19.180',-8.53
'0:19.184',-8.18
'0:19.188',-7.72
'0:19.191',-7.26
'0:19.195',-6.86
'0:19.199',-6.44
'0:19.203',-5.83
'0:19.207',-5.07
'0:19.211',-4.37
'0:19.215',-3.75
'0:19.219',-3.34
'0:19.223',-3.14
'0:19.227',-2.82
'0:19.230',-2.35
'0:19.234',-1.83
'0:19.238',-1.31
'0:19.242',-0.87
'0:19.246',-0.47
'0:19.250',-0.05
'0:19.254',0.52
'0:19.258',1.3
'0:19.262',2.09
'0:19.266',2.84
'0:19.270',3.42
'0:19.273',3.93
'0:19.277',4.44
'0:19.281',4.86
'0:19.285',5.09
'0:19.289',4.96
'0:19.293',4.63
'0:19.297',4.39
'0:19.301',4.31
'0:19.305',4.13
'0:19.309',3.67
'0:19.313',2.87
'0:19.316',1.96
'0:19.320',1.15
'0:19.324',0.53
'0:19.328',-0.21
'0:19.332',-1.09
'0:19.336',-1.88
'0:19.340',-2.21
'0:19.344',-2.06
'0:19.348',-1.93
'0:19.352',-1.9
'0:19.355',-2.06
'0:19.359',-2.11
'0:19.363',-2.09
'0:19.367',-2.02
'0:19.371',-2.01
'0:19.375',-2.12
'0:19.379',-2.32
'0:19.383',-2.6
'0:19.387',-2.77
'0:19.391',-2.78
'0:19.395',-2.73
'0:19.398',-2.6
'0:19.402',-2.41
'0:19.406',-2.19
'0:19.410',-1.97
'0:19.414',-1.85
'0:19.418',-1.79
'0:19.422',-1.8
'0:19.426',-1.77
'0:19.430',-1.82
'0:19.434',-1.92
'0:19.438',-1.87
'0:19.441',-1.52
'0:19.445',-1.15
'0:19.449',-0.92
'0:19.453',-0.8
'0:19.457',-0.81
'0:19.461',-0.9
'0:19.465',-1.07
'0:19.469',-1.32
'0:19.473',-1.69
'0:19.477',-2.06
'0:19.480',-2.32
'0:19.484',-2.53
'0:19.488',-2.78
'0:19.492',-2.94
'0:19.496',-2.93
'0:19.500',-2.77
'0:19.504',-2.6
'0:19.508',-2.46
'0:19.512',-2.28
'0:19.516',-2.09
'0:19.520',-1.9
'0:19.523',-1.73
'0:19.527',-1.8
