'0:00.000',-4.91
'0:00.004',-4.97
'0:00.008',-4.76
'0:00.012',-4.14
'0:00.016',-3.41
'0:00.020',-3.01
'0:00.023',-2.73
'0:00.027',-2.35
'0:00.031',-1.75
'0:00.035',-1.13
'0:00.039',-0.93
'0:00.043',-0.88
'0:00.047',-0.67
'0:00.051',-0.18
'0:00.055',0.26
'0:00.059',0.26
'0:00.063',0.15
'0:00.066',0.22
'0:00.070',0.5
'0:00.074',0.73
'0:00.078',0.64
'0:00.082',0.52
'0:00.086',0.96
'0:00.090',1.46
'0:00.094',1.42
'0:00.098',0.92
'0:00.102',0.45
'0:00.105',0.23
'0:00.109',0.24
'0:00.113',0.22
'0:00.117',0.03
'0:00.121',-0.02
'0:00.125',0.12
'0:00.129',0.59
'0:00.133',0.97
'0:00.137',0.82
'0:00.141',0.54
'0:00.145',0.38
'0:00.148',0.46
'0:00.152',0.49
'0:00.156',0.07
'0:00.160',-0.69
'0:00.164',-1.27
'0:00.168',-1.66
'0:00.172',-2.44
'0:00.176',-2.07
'0:00.180',-1.61
'0:00.184',-1.51
'0:00.188',-1.39
'0:00.191',-1.17
'0:00.195',-1.4
'0:00.199',-2.06
'0:00.203',-2.72
'0:00.207',-2.87
'0:00.211',-2.66
'0:00.215',-2.51
'0:00.219',-2.67
'0:00.223',-2.75
'0:00.227',-2.41
'0:00.230',-2.03
'0:00.234',-2.08
'0:00.238',-2.42
'0:00.242',-2.69
'0:00.246',-2.26
'0:00.250',-1.15
'0:00.254',0.94
'0:00.258',5.03
'0:00.262',10.78
'0:00.266',16.54
'0:00.270',20.94
'0:00.273',23.37
'0:00.277',22.91
'0:00.281',18.14
'0:00.285',10.21
'0:00.289',2.6
'0:00.293',-2.89
'0:00.297',-6.23
'0:00.301',-7.87
'0:00.305',-8.32
'0:00.309',-8.28
'0:00.313',-8.28
'0:00.316',-8.24
'0:00.320',-7.97
'0:00.324',-7.75
'0:00.328',-7.74
'0:00.332',-7.75
'0:00.336',-7.74
'0:00.340',-7.75
'0:00.344',-7.75
'0:00.348',-7.75
'0:00.352',-3.96
'0:00.355',-3.77
'0:00.359',-3.29
'0:00.363',-3.19
'0:00.367',-3.19
'0:00.371',-3.19
'0:00.375',-1.73
'0:00.379',-0.57
'0:00.383',-0.46
'0:00.387',-0.46
'0:00.391',-0.46
'0:00.395',-0.46
'0:00.398',-0.46
'0:00.402',-0.46
'0:00.406',-0.46
'0:00.410',-0.46
'0:00.414',-0.46
'0:00.418',-0.46
'0:00.422',-0.46
'0:00.426',-0.46
'0:00.430',-0.46
'0:00.434',-0.46
'0:00.438',-0.46
'0:00.441',-0.46
'0:00.445',-0.46
'0:00.449',-0.46
'0:00.453',-0.46
'0:00.457',-0.46
'0:00.461',-0.46
'0:00.465',-0.46
'0:00.469',-0.46
'0:00.473',-0.46
'0:00.477',-0.46
'0:00.480',-0.46
'0:00.484',-0.46
'0:00.488',-0.46
'0:00.492',-0.46
'0:00.496',-0.46
'0:00.500',-0.46
'0:00.504',-0.46
'0:00.508',-0.46
'0:00.512',-0.46
'0:00.516',-0.46
'0:00.520',-0.46
'0:00.523',-0.46
'0:00.527',-0.46
'0:00.531',6.07
'0:00.535',5.92
'0:00.539',5.84
'0:00.543',4.38
'0:00.547',4.02
'0:00.551',4.02
'0:00.555',2.04
'0:00.559',1.81
'0:00.563',1.45
'0:00.566',0.47
'0:00.570',-0.65
'0:00.574',-1.46
'0:00.578',-1.96
'0:00.582',-2.8
'0:00.586',-4.02
'0:00.590',-4.81
'0:00.594',-4.57
'0:00.598',-2.95
'0:00.602',0.33
'0:00.605',4.94
'0:00.609',10.17
'0:00.613',14.73
'0:00.617',18.05
'0:00.621',19.02
'0:00.625',15.51
'0:00.629',7.81
'0:00.633',-0.23
'0:00.637',-5.56
'0:00.641',-8.42
'0:00.645',-9.91
'0:00.648',-10.46
'0:00.652',-10.33
'0:00.656',-9.73
'0:00.660',-8.96
'0:00.664',-8.52
'0:00.668',-8.17
'0:00.672',-7.59
'0:00.676',-6.6
'0:00.680',-5.67
'0:00.684',-5.2
'0:00.688',-4.87
'0:00.691',-4.37
'0:00.695',-3.55
'0:00.699',-2.93
'0:00.703',-2.89
'0:00.707',-2.9
'0:00.711',-2.54
'0:00.715',-1.89
'0:00.719',-1.4
'0:00.723',-1.39
'0:00.727',-1.36
'0:00.730',-1.1
'0:00.734',-0.52
'0:00.738',-0.05
'0:00.742',-0.02
'0:00.746',0.02
'0:00.750',0.41
'0:00.754',1.14
'0:00.758',1.51
'0:00.762',1.23
'0:00.766',0.78
'0:00.770',0.68
'0:00.773',0.99
'0:00.777',1.14
'0:00.781',0.75
'0:00.785',0.33
'0:00.789',0.13
'0:00.793',0.24
'0:00.797',0.18
'0:00.801',-0.4
'0:00.805',-0.9
'0:00.809',-0.87
'0:00.813',-0.44
'0:00.816',-0.1
'0:00.820',-0.16
'0:00.824',-0.26
'0:00.828',0.02
'0:00.832',0.46
'0:00.836',0.63
'0:00.840',0.42
'0:00.844',0.28
'0:00.848',0.39
'0:00.852',0.94
'0:00.855',1.36
'0:00.859',1.23
'0:00.863',1.03
'0:00.867',1.1
'0:00.871',1.44
'0:00.875',1.56
'0:00.879',1.28
'0:00.883',0.77
'0:00.887',0.31
'0:00.891',0.13
'0:00.895',-0.09
'0:00.898',-0.72
'0:00.902',-1.42
'0:00.906',-1.83
'0:00.910',-1.75
'0:00.914',-1.66
'0:00.918',-1.94
'0:00.922',-2.28
'0:00.926',-2.46
'0:00.930',-2.31
'0:00.934',-2.07
'0:00.938',-1.71
'0:00.941',-0.48
'0:00.945',2.72
'0:00.949',8.07
'0:00.953',14.25
'0:00.957',19.24
'0:00.961',22.51
'0:00.965',23.84
'0:00.969',21.69
'0:00.973',14.8
'0:00.977',5.83
'0:00.980',-1.17
'0:00.984',-5.23
'0:00.988',-7.14
'0:00.992',-8.12
'0:00.996',-8.74
'0:01.000',-9.07
'0:01.004',-8.99
'0:01.008',-8.59
'0:01.012',-8.19
'0:01.016',-8.01
'0:01.020',-8.01
'0:01.023',-7.92
'0:01.027',-7.62
'0:01.031',-7.38
'0:01.035',-7.23
'0:01.039',-6.94
'0:01.043',-6.38
'0:01.047',-5.35
'0:01.051',-4.27
'0:01.055',-3.61
'0:01.059',-3.03
'0:01.063',-2.29
'0:01.066',-1.33
'0:01.070',-0.42
'0:01.074',0.1
'0:01.078',0.29
'0:01.082',0.36
'0:01.086',0.57
'0:01.090',0.78
'0:01.094',0.69
'0:01.098',0.53
'0:01.102',0.49
'0:01.105',0.59
'0:01.109',0.61
'0:01.113',0.14
'0:01.117',-0.54
'0:01.121',-1.06
'0:01.125',-1.34
'0:01.129',-2.01
'0:01.133',-3.29
'0:01.137',-2.33
'0:01.141',-1.44
'0:01.145',-1.24
'0:01.148',-1.07
'0:01.152',-0.49
'0:01.156',0.12
'0:01.160',0.23
'0:01.164',0.23
'0:01.168',0.35
'0:01.172',0.63
'0:01.176',1.1
'0:01.180',1.61
'0:01.184',2.09
'0:01.188',2.29
'0:01.191',2.1
'0:01.195',2.12
'0:01.199',2.38
'0:01.203',2.68
'0:01.207',2.83
'0:01.211',2.66
'0:01.215',2.49
'0:01.219',2.46
'0:01.223',2.4
'0:01.227',2.25
'0:01.230',1.76
'0:01.234',1.38
'0:01.238',1.25
'0:01.242',1.25
'0:01.246',1.17
'0:01.250',0.83
'0:01.254',0.61
'0:01.258',0.71
'0:01.262',0.98
'0:01.266',1.14
'0:01.270',1
'0:01.273',0.81
'0:01.277',0.85
'0:01.281',1.7
'0:01.285',3.73
'0:01.289',7.23
'0:01.293',12.1
'0:01.297',17.19
'0:01.301',21.42
'0:01.305',23.83
'0:01.309',22.93
'0:01.313',17.42
'0:01.316',8.91
'0:01.320',1.54
'0:01.324',-3.21
'0:01.328',-5.92
'0:01.332',-7.07
'0:01.336',-7.09
'0:01.340',-6.32
'0:01.344',-5.73
'0:01.348',-5.62
'0:01.352',-5.29
'0:01.355',-4.37
'0:01.359',-3.27
'0:01.363',-2.46
'0:01.367',-2.12
'0:01.371',-2.02
'0:01.375',-1.75
'0:01.379',-1.08
'0:01.383',-0.51
'0:01.387',-0.76
'0:01.391',-1.46
'0:01.395',-2.02
'0:01.398',-2.14
'0:01.402',-2.21
'0:01.406',-2.83
'0:01.410',-3.94
'0:01.414',-4.62
'0:01.418',-4.82
'0:01.422',-4.82
'0:01.426',-5.28
'0:01.430',-5.86
'0:01.434',-6.28
'0:01.438',-6.46
'0:01.441',-7.2
'0:01.445',-7.57
'0:01.449',-6.23
'0:01.453',-5.57
'0:01.457',-5.31
'0:01.461',-4.9
'0:01.465',-4.39
'0:01.469',-4.05
'0:01.473',-3.87
'0:01.477',-3.82
'0:01.480',-3.97
'0:01.484',-4.01
'0:01.488',-3.7
'0:01.492',-3.02
'0:01.496',-2.2
'0:01.500',-1.51
'0:01.504',-1.32
'0:01.508',-1.07
'0:01.512',-0.73
'0:01.516',-0.14
'0:01.520',0.54
'0:01.523',0.82
'0:01.527',0.81
'0:01.531',0.91
'0:01.535',1.39
'0:01.539',1.82
'0:01.543',1.88
'0:01.547',1.47
'0:01.551',1.05
'0:01.555',1.09
'0:01.559',1.12
'0:01.563',0.42
'0:01.566',-0.36
'0:01.570',-0.96
'0:01.574',-1.04
'0:01.578',-1.1
'0:01.582',-1.5
'0:01.586',-2.15
'0:01.590',-2.44
'0:01.594',-2.26
'0:01.598',-1.84
'0:01.602',-1.8
'0:01.605',-2.04
'0:01.609',-2.29
'0:01.613',-2.02
'0:01.617',-1.22
'0:01.621',-0.34
'0:01.625',0.7
'0:01.629',3.36
'0:01.633',8.67
'0:01.637',14.83
'0:01.641',19.78
'0:01.645',22.58
'0:01.648',22.67
'0:01.652',19.02
'0:01.656',11.83
'0:01.660',3.71
'0:01.664',-2.08
'0:01.668',-4.93
'0:01.672',-5.84
'0:01.676',-5.7
'0:01.680',-5.89
'0:01.684',-6.55
'0:01.688',-6.81
'0:01.691',-6.45
'0:01.695',-5.92
'0:01.699',-5.58
'0:01.703',-5.41
'0:01.707',-4.86
'0:01.711',-4.17
'0:01.715',-3.63
'0:01.719',-3.32
'0:01.723',-3.07
'0:01.727',-3.06
'0:01.730',-2.94
'0:01.734',-2.5
'0:01.738',-2.31
'0:01.742',-2.31
'0:01.746',-2.3
'0:01.750',-2.02
'0:01.754',-1.46
'0:01.758',-1.02
'0:01.762',-0.74
'0:01.766',-0.46
'0:01.770',-0.11
'0:01.773',0.41
'0:01.777',0.64
'0:01.781',0.58
'0:01.785',0.44
'0:01.789',0.54
'0:01.793',0.42
'0:01.797',0.1
'0:01.801',-0.36
'0:01.805',-0.79
'0:01.809',-0.79
'0:01.813',-0.44
'0:01.816',-0.58
'0:01.820',-1.04
'0:01.824',-1.21
'0:01.828',-1.21
'0:01.832',-0.88
'0:01.836',-0.71
'0:01.840',-0.89
'0:01.844',-1.23
'0:01.848',-1.15
'0:01.852',-0.82
'0:01.855',-0.61
'0:01.859',-0.53
'0:01.863',-0.31
'0:01.867',0.2
'0:01.871',0.63
'0:01.875',0.59
'0:01.879',0.49
'0:01.883',0.58
'0:01.887',0.91
'0:01.891',1.39
'0:01.895',1.44
'0:01.898',1.1
'0:01.902',0.73
'0:01.906',0.47
'0:01.910',0.18
'0:01.914',-0.22
'0:01.918',-0.66
'0:01.922',-1.02
'0:01.926',-1
'0:01.930',-0.99
'0:01.934',-1.36
'0:01.938',-1.94
'0:01.941',-2.23
'0:01.945',-2.15
'0:01.949',-1.87
'0:01.953',-1.9
'0:01.957',-1.87
'0:01.961',-1.36
'0:01.965',-0.24
'0:01.969',1.55
'0:01.973',4.7
'0:01.977',9.24
'0:01.980',14.3
'0:01.984',18.42
'0:01.988',21.07
'0:01.992',21.12
'0:01.996',16.7
'0:02.000',8.94
'0:02.004',1.96
'0:02.008',-2.33
'0:02.012',-4.57
'0:02.016',-5.57
'0:02.020',-5.87
'0:02.023',-5.82
'0:02.027',-5.43
'0:02.031',-4.91
'0:02.035',-4.43
'0:02.039',-4.11
'0:02.043',-3.72
'0:02.047',-3.21
'0:02.051',-2.94
'0:02.055',-2.82
'0:02.059',-2.53
'0:02.063',-2.04
'0:02.066',-1.48
'0:02.070',-1.14
'0:02.074',-0.89
'0:02.078',-0.6
'0:02.082',-0.02
'0:02.086',0.79
'0:02.090',1.24
'0:02.094',1.48
'0:02.098',1.91
'0:02.102',2.58
'0:02.105',2.99
'0:02.109',2.63
'0:02.113',2.07
'0:02.117',1.95
'0:02.121',2.15
'0:02.125',2.39
'0:02.129',2.19
'0:02.133',1.63
'0:02.137',1.22
'0:02.141',1.3
'0:02.145',1.52
'0:02.148',1.34
'0:02.152',0.9
'0:02.156',0.69
'0:02.160',1.03
'0:02.164',1.59
'0:02.168',1.66
'0:02.172',1.44
'0:02.176',1.37
'0:02.180',1.76
'0:02.184',2.28
'0:02.188',2.44
'0:02.191',2.22
'0:02.195',2.2
'0:02.199',2.59
'0:02.203',3.08
'0:02.207',3.17
'0:02.211',2.85
'0:02.215',2.53
'0:02.219',2.45
'0:02.223',2.22
'0:02.227',1.48
'0:02.230',0.34
'0:02.234',-0.68
'0:02.238',-1.49
'0:02.242',-2.39
'0:02.246',-3.83
'0:02.250',-5.41
'0:02.254',-6.53
'0:02.258',-6.93
'0:02.262',-6.95
'0:02.266',-7.38
'0:02.270',-8.21
'0:02.273',-8.44
'0:02.277',-7.3
'0:02.281',-6.48
'0:02.285',-6.56
'0:02.289',-6.72
'0:02.293',-6.47
'0:02.297',-5.62
'0:02.301',-4.5
'0:02.305',-3.79
'0:02.309',-2.78
'0:02.313',-0.19
'0:02.316',4.75
'0:02.320',11
'0:02.324',16.51
'0:02.328',20.28
'0:02.332',22.5
'0:02.336',22.44
'0:02.340',17.94
'0:02.344',9.81
'0:02.348',1.89
'0:02.352',-3.35
'0:02.355',-5.97
'0:02.359',-7.11
'0:02.363',-7.89
'0:02.367',-8.65
'0:02.371',-8.91
'0:02.375',-8.52
'0:02.379',-7.96
'0:02.383',-7.64
'0:02.387',-7.53
'0:02.391',-7.25
'0:02.395',-6.64
'0:02.398',-5.86
'0:02.402',-5.45
'0:02.406',-5.24
'0:02.410',-4.93
'0:02.414',-4.4
'0:02.418',-3.79
'0:02.422',-3.36
'0:02.426',-3.16
'0:02.430',-3.02
'0:02.434',-2.55
'0:02.438',-1.63
'0:02.441',-0.75
'0:02.445',-0.86
'0:02.449',-1.43
'0:02.453',-1.53
'0:02.457',-0.72
'0:02.461',-0.19
'0:02.465',-0.29
'0:02.469',-0.38
'0:02.473',0.21
'0:02.477',1.13
'0:02.480',1.53
'0:02.484',1.27
'0:02.488',0.83
'0:02.492',0.84
'0:02.496',1.39
'0:02.500',1.75
'0:02.504',1.51
'0:02.508',1.19
'0:02.512',1.24
'0:02.516',1.55
'0:02.520',1.61
'0:02.523',1.24
'0:02.527',0.95
'0:02.531',1
'0:02.535',1.34
'0:02.539',1.41
'0:02.543',1.14
'0:02.547',0.9
'0:02.551',0.97
'0:02.555',1.22
'0:02.559',0.97
'0:02.563',0.53
'0:02.566',0.31
'0:02.570',0.59
'0:02.574',0.88
'0:02.578',0.75
'0:02.582',0.23
'0:02.586',-0.32
'0:02.590',-0.45
'0:02.594',-0.39
'0:02.598',-0.61
'0:02.602',-1.3
'0:02.605',-1.94
'0:02.609',-2.22
'0:02.613',-2.27
'0:02.617',-2.46
'0:02.621',-2.71
'0:02.625',-2.79
'0:02.629',-2.62
'0:02.633',-2.46
'0:02.637',-2.78
'0:02.641',-3.5
'0:02.645',-3.97
'0:02.648',-3.75
'0:02.652',-2.96
'0:02.656',-1.65
'0:02.660',1.15
'0:02.664',6.11
'0:02.668',12.23
'0:02.672',17.49
'0:02.676',20.9
'0:02.680',22.12
'0:02.684',19.78
'0:02.688',13.25
'0:02.691',5.33
'0:02.695',-1.03
'0:02.699',-5.33
'0:02.703',-7.84
'0:02.707',-9
'0:02.711',-9.59
'0:02.715',-9.4
'0:02.719',-8.91
'0:02.723',-8.25
'0:02.727',-7.59
'0:02.730',-6.76
'0:02.734',-6.19
'0:02.738',-6.15
'0:02.742',-6.01
'0:02.746',-5.67
'0:02.750',-5.15
'0:02.754',-4.82
'0:02.758',-4.7
'0:02.762',-4.48
'0:02.766',-4.06
'0:02.770',-3.56
'0:02.773',-3.23
'0:02.777',-3.09
'0:02.781',-2.9
'0:02.785',-2.47
'0:02.789',-1.9
'0:02.793',-1.55
'0:02.797',-1.38
'0:02.801',-1.1
'0:02.805',-0.53
'0:02.809',0.18
'0:02.813',0.68
'0:02.816',0.91
'0:02.820',1.1
'0:02.824',1.44
'0:02.828',1.95
'0:02.832',2.19
'0:02.836',2.08
'0:02.840',1.91
'0:02.844',2.11
'0:02.848',2.49
'0:02.852',2.46
'0:02.855',2.24
'0:02.859',2.26
'0:02.863',2.66
'0:02.867',3.15
'0:02.871',3.42
'0:02.875',3.52
'0:02.879',3.71
'0:02.883',4.03
'0:02.887',4.37
'0:02.891',4.47
'0:02.895',4.24
'0:02.898',4.11
'0:02.902',4.18
'0:02.906',4.44
'0:02.910',4.46
'0:02.914',4.29
'0:02.918',4.15
'0:02.922',4.12
'0:02.926',4.09
'0:02.930',3.67
'0:02.934',3.01
'0:02.938',2.43
'0:02.941',1.94
'0:02.945',1.48
'0:02.949',0.79
'0:02.953',-0.05
'0:02.957',-0.63
'0:02.961',-0.74
'0:02.965',-0.53
'0:02.969',-0.47
'0:02.973',-0.64
'0:02.977',-0.75
'0:02.980',-0.57
'0:02.984',-0.4
'0:02.988',-0.69
'0:02.992',-1.14
'0:02.996',-0.93
'0:03.000',0.41
'0:03.004',3.39
'0:03.008',7.97
'0:03.012',13.36
'0:03.016',18.34
'0:03.020',22.11
'0:03.023',23.96
'0:03.027',22.12
'0:03.031',15.25
'0:03.035',6.07
'0:03.039',-1.24
'0:03.043',-5.75
'0:03.047',-8.66
'0:03.051',-10.85
'0:03.055',-12.14
'0:03.059',-12.44
'0:03.063',-12.29
'0:03.066',-12.43
'0:03.070',-12.88
'0:03.074',-13
'0:03.078',-12.45
'0:03.082',-11.53
'0:03.086',-10.98
'0:03.090',-10.86
'0:03.094',-10.66
'0:03.098',-10.02
'0:03.102',-8.88
'0:03.105',-7.83
'0:03.109',-7.28
'0:03.113',-6.71
'0:03.117',-5.87
'0:03.121',-4.77
'0:03.125',-3.88
'0:03.129',-3.5
'0:03.133',-3.05
'0:03.137',-2.29
'0:03.141',-1.48
'0:03.145',-0.95
'0:03.148',-0.71
'0:03.152',-0.4
'0:03.156',0.15
'0:03.160',0.79
'0:03.164',1.05
'0:03.168',0.9
'0:03.172',0.78
'0:03.176',0.98
'0:03.180',1.34
'0:03.184',1.33
'0:03.188',0.92
'0:03.191',0.53
'0:03.195',0.38
'0:03.199',0.56
'0:03.203',0.64
'0:03.207',0.43
'0:03.211',0.3
'0:03.215',0.36
'0:03.219',0.84
'0:03.223',1.2
'0:03.227',1.09
'0:03.230',1
'0:03.234',1.23
'0:03.238',1.76
'0:03.242',2.05
'0:03.246',2.04
'0:03.250',2.03
'0:03.254',2.11
'0:03.258',2.29
'0:03.262',2.28
'0:03.266',1.77
'0:03.270',1.2
'0:03.273',0.98
'0:03.277',0.94
'0:03.281',0.69
'0:03.285',0.21
'0:03.289',-0.37
'0:03.293',-0.78
'0:03.297',-0.94
'0:03.301',-1.16
'0:03.305',-1.62
'0:03.309',-1.83
'0:03.313',-1.59
'0:03.316',-0.99
'0:03.320',-0.7
'0:03.324',-0.95
'0:03.328',-1.4
'0:03.332',-1.56
'0:03.336',-1.31
'0:03.340',-0.65
'0:03.344',0.76
'0:03.348',4.12
'0:03.352',9.61
'0:03.355',15.81
'0:03.359',20.67
'0:03.363',23.47
'0:03.367',23.93
'0:03.371',20.47
'0:03.375',12.9
'0:03.379',4.86
'0:03.383',-0.66
'0:03.387',-3.31
'0:03.391',-4.19
'0:03.395',-4.69
'0:03.398',-5.22
'0:03.402',-5.9
'0:03.406',-6.3
'0:03.410',-6.23
'0:03.414',-5.99
'0:03.418',-5.74
'0:03.422',-5.7
'0:03.426',-5.62
'0:03.430',-5.57
'0:03.434',-5.48
'0:03.438',-5.45
'0:03.441',-5.55
'0:03.445',-5.57
'0:03.449',-5.52
'0:03.453',-5.24
'0:03.457',-5.03
'0:03.461',-5.08
'0:03.465',-5.32
'0:03.469',-5.51
'0:03.473',-5.28
'0:03.477',-5.36
'0:03.480',-6.54
'0:03.484',-5.36
'0:03.488',-3.23
'0:03.492',-1.88
'0:03.496',-1.23
'0:03.500',-0.63
'0:03.504',0.12
'0:03.508',0.65
'0:03.512',0.9
'0:03.516',0.76
'0:03.520',0.46
'0:03.523',0.47
'0:03.527',0.75
'0:03.531',0.95
'0:03.535',0.8
'0:03.539',0.25
'0:03.543',-0.05
'0:03.547',-0.09
'0:03.551',0.2
'0:03.555',0.34
'0:03.559',0.38
'0:03.563',0.4
'0:03.566',0.5
'0:03.570',1.01
'0:03.574',1.36
'0:03.578',1.37
'0:03.582',1.44
'0:03.586',1.39
'0:03.590',1.43
'0:03.594',1.45
'0:03.598',1.3
'0:03.602',1.32
'0:03.605',1.42
'0:03.609',1.49
'0:03.613',1.6
'0:03.617',1.51
'0:03.621',1.31
'0:03.625',1.2
'0:03.629',1.09
'0:03.633',0.87
'0:03.637',0.41
'0:03.641',0.02
'0:03.645',-0.19
'0:03.648',-0.05
'0:03.652',0.28
'0:03.656',0.27
'0:03.660',0.18
'0:03.664',0.33
'0:03.668',0.71
'0:03.672',0.87
'0:03.676',1.23
'0:03.680',1.64
'0:03.684',2.6
'0:03.688',4.92
'0:03.691',9.14
'0:03.695',14.42
'0:03.699',19.46
'0:03.703',23.08
'0:03.707',24.7
'0:03.711',23.1
'0:03.715',17.01
'0:03.719',8.96
'0:03.723',2.41
'0:03.727',-1.7
'0:03.730',-3.63
'0:03.734',-4.52
'0:03.738',-5.23
'0:03.742',-5.83
'0:03.746',-5.9
'0:03.750',-5.37
'0:03.754',-5.44
'0:03.758',-5.47
'0:03.762',-4.88
'0:03.766',-4.48
'0:03.770',-4.43
'0:03.773',-4.05
'0:03.777',-3.55
'0:03.781',-3.02
'0:03.785',-2.34
'0:03.789',-1.83
'0:03.793',-1.27
'0:03.797',-0.42
'0:03.801',-0.21
'0:03.805',-0.34
'0:03.809',-0.29
'0:03.813',-0.4
'0:03.816',-0.56
'0:03.820',-0.68
'0:03.824',-0.45
'0:03.828',-0.37
'0:03.832',-0.87
'0:03.836',-1.55
'0:03.840',-1.98
'0:03.844',-2
'0:03.848',-2.01
'0:03.852',-2.7
'0:03.855',-3.83
'0:03.859',-4.4
'0:03.863',-4.09
'0:03.867',-3.79
'0:03.871',-4.18
'0:03.875',-4.41
'0:03.879',-4.28
'0:03.883',-4.07
'0:03.887',-4.09
'0:03.891',-4.5
'0:03.895',-4.65
'0:03.898',-4.52
'0:03.902',-3.77
'0:03.906',-2.74
'0:03.910',-2.17
'0:03.914',-1.9
'0:03.918',-1.44
'0:03.922',-0.7
'0:03.926',-0.1
'0:03.930',-0.07
'0:03.934',-0.08
'0:03.938',0.24
'0:03.941',0.85
'0:03.945',1.2
'0:03.949',1.07
'0:03.953',0.87
'0:03.957',0.93
'0:03.961',1.23
'0:03.965',1.25
'0:03.969',0.66
'0:03.973',-0.02
'0:03.977',-0.24
'0:03.980',-0.3
'0:03.984',-0.67
'0:03.988',-1.44
'0:03.992',-2.03
'0:03.996',-2.21
'0:04.000',-1.92
'0:04.004',-1.83
'0:04.008',-2.11
'0:04.012',-2.34
'0:04.016',-2.42
'0:04.020',-1.95
'0:04.023',-0.87
'0:04.027',0.47
'0:04.031',2.89
'0:04.035',7.27
'0:04.039',13.12
'0:04.043',18.23
'0:04.047',21.35
'0:04.051',22.45
'0:04.055',19.96
'0:04.059',13.41
'0:04.063',5.47
'0:04.066',-0.93
'0:04.070',-4.9
'0:04.074',-6.89
'0:04.078',-7.51
'0:04.082',-7.68
'0:04.086',-7.91
'0:04.090',-7.92
'0:04.094',-7.59
'0:04.098',-6.82
'0:04.102',-6.07
'0:04.105',-5.66
'0:04.109',-5.3
'0:04.113',-4.78
'0:04.117',-4.16
'0:04.121',-3.61
'0:04.125',-3.36
'0:04.129',-3.09
'0:04.133',-2.87
'0:04.137',-2.47
'0:04.141',-2.14
'0:04.145',-2.16
'0:04.148',-2.29
'0:04.152',-2.35
'0:04.156',-2.02
'0:04.160',-1.56
'0:04.164',-1.52
'0:04.168',-1.45
'0:04.172',-1.12
'0:04.176',-0.35
'0:04.180',0.43
'0:04.184',0.72
'0:04.188',0.77
'0:04.191',0.84
'0:04.195',1.02
'0:04.199',1
'0:04.203',0.39
'0:04.207',-0.39
'0:04.211',-1.07
'0:04.215',-1.07
'0:04.219',-0.22
'0:04.223',-0.31
'0:04.227',-0.92
'0:04.230',-1.17
'0:04.234',-0.76
'0:04.238',-0.28
'0:04.242',-0.45
'0:04.246',-0.75
'0:04.250',-0.6
'0:04.254',-0.22
'0:04.258',0.16
'0:04.262',0.19
'0:04.266',-0.04
'0:04.270',-0.32
'0:04.273',-0.23
'0:04.277',-0.18
'0:04.281',-0.37
'0:04.285',-0.58
'0:04.289',-0.82
'0:04.293',-0.67
'0:04.297',-0.48
'0:04.301',-0.65
'0:04.305',-0.83
'0:04.309',-0.83
'0:04.313',-0.78
'0:04.316',-1.05
'0:04.320',-1.62
'0:04.324',-2.24
'0:04.328',-2.53
'0:04.332',-2.37
'0:04.336',-2.07
'0:04.340',-2.26
'0:04.344',-2.57
'0:04.348',-2.67
'0:04.352',-2.43
'0:04.355',-2.31
'0:04.359',-2.59
'0:04.363',-2.67
'0:04.367',-2.06
'0:04.371',-0.56
'0:04.375',2.25
'0:04.379',6.96
'0:04.383',12.81
'0:04.387',18.15
'0:04.391',22.08
'0:04.395',24.15
'0:04.398',22.49
'0:04.402',15.92
'0:04.406',6.99
'0:04.410',-0.12
'0:04.414',-4.64
'0:04.418',-7.12
'0:04.422',-8.19
'0:04.426',-8.57
'0:04.430',-8.41
'0:04.434',-7.84
'0:04.438',-7.26
'0:04.441',-6.77
'0:04.445',-5.96
'0:04.449',-5.26
'0:04.453',-4.45
'0:04.457',-3.86
'0:04.461',-3.44
'0:04.465',-2.94
'0:04.469',-2.35
'0:04.473',-1.81
'0:04.477',-1.27
'0:04.480',-0.8
'0:04.484',-0.39
'0:04.488',0.11
'0:04.492',0.51
'0:04.496',0.69
'0:04.500',0.99
'0:04.504',1.41
'0:04.508',1.92
'0:04.512',2.25
'0:04.516',2.4
'0:04.520',2.76
'0:04.523',3.26
'0:04.527',3.66
'0:04.531',3.9
'0:04.535',3.78
'0:04.539',3.56
'0:04.543',3.64
'0:04.547',3.78
'0:04.551',3.58
'0:04.555',2.72
'0:04.559',1.8
'0:04.563',1.18
'0:04.566',0.85
'0:04.570',0.72
'0:04.574',0.25
'0:04.578',-0.19
'0:04.582',-0.16
'0:04.586',0.19
'0:04.590',0.49
'0:04.594',0.6
'0:04.598',0.72
'0:04.602',0.99
'0:04.605',1.38
'0:04.609',1.74
'0:04.613',1.7
'0:04.617',1.42
'0:04.621',1.07
'0:04.625',0.89
'0:04.629',0.69
'0:04.633',0.26
'0:04.637',-0.36
'0:04.641',-0.86
'0:04.645',-0.83
'0:04.648',-0.89
'0:04.652',-1.75
'0:04.656',-2.86
'0:04.660',-3.58
'0:04.664',-3.83
'0:04.668',-4.11
'0:04.672',-4.78
'0:04.676',-5.48
'0:04.680',-6.07
'0:04.684',-6.31
'0:04.688',-6.65
'0:04.691',-7.57
'0:04.695',-8.55
'0:04.699',-9.01
'0:04.703',-8.81
'0:04.707',-8.65
'0:04.711',-8.71
'0:04.715',-8.04
'0:04.719',-6.2
'0:04.723',-2.69
'0:04.727',2.58
'0:04.730',8.6
'0:04.734',14.27
'0:04.738',18.79
'0:04.742',21.75
'0:04.746',21.62
'0:04.750',16.35
'0:04.754',7.98
'0:04.758',0.82
'0:04.762',-3.46
'0:04.766',-5.73
'0:04.770',-7.31
'0:04.773',-8.24
'0:04.777',-8.4
'0:04.781',-7.84
'0:04.785',-7.17
'0:04.789',-6.94
'0:04.793',-6.79
'0:04.797',-6.41
'0:04.801',-5.72
'0:04.805',-5.06
'0:04.809',-4.87
'0:04.813',-4.75
'0:04.816',-4.26
'0:04.820',-3.5
'0:04.824',-2.89
'0:04.828',-2.75
'0:04.832',-2.71
'0:04.836',-2.29
'0:04.840',-1.57
'0:04.844',-1.01
'0:04.848',-0.72
'0:04.852',-0.68
'0:04.855',-0.67
'0:04.859',-0.39
'0:04.863',-0.09
'0:04.867',-0.18
'0:04.871',-0.42
'0:04.875',-0.51
'0:04.879',-0.27
'0:04.883',-0.02
'0:04.887',-0.2
'0:04.891',-0.49
'0:04.895',-0.43
'0:04.898',-0.08
'0:04.902',0.2
'0:04.906',0.02
'0:04.910',-0.23
'0:04.914',-0.18
'0:04.918',0.29
'0:04.922',0.76
'0:04.926',0.72
'0:04.930',0.61
'0:04.934',0.77
'0:04.938',1.29
'0:04.941',1.81
'0:04.945',1.86
'0:04.949',1.82
'0:04.953',1.98
'0:04.957',2.33
'0:04.961',2.6
'0:04.965',2.34
'0:04.969',1.67
'0:04.973',1.21
'0:04.977',1.22
'0:04.980',1.21
'0:04.984',0.84
'0:04.988',0.41
'0:04.992',0.3
'0:04.996',0.65
'0:05.000',0.82
'0:05.004',0.36
'0:05.008',-0.46
'0:05.012',-1.06
'0:05.016',-1.22
'0:05.020',-1.32
'0:05.023',-1.57
'0:05.027',-1.82
'0:05.031',-1.77
'0:05.035',-1.42
'0:05.039',-1.22
'0:05.043',-1.53
'0:05.047',-2.18
'0:05.051',-2.81
'0:05.055',-3.15
'0:05.059',-3.07
'0:05.063',-2.58
'0:05.066',-1.04
'0:05.070',2.58
'0:05.074',8.29
'0:05.078',14.49
'0:05.082',19.32
'0:05.086',22.34
'0:05.090',22.86
'0:05.094',19.25
'0:05.098',11.74
'0:05.102',3.76
'0:05.105',-1.8
'0:05.109',-4.84
'0:05.113',-6.27
'0:05.117',-7
'0:05.121',-7.44
'0:05.125',-7.64
'0:05.129',-7.64
'0:05.133',-7.41
'0:05.137',-6.9
'0:05.141',-6.68
'0:05.145',-6.85
'0:05.148',-7.2
'0:05.152',-7.66
'0:05.156',-8.69
'0:05.160',-7.35
'0:05.164',-5.58
'0:05.168',-4.83
'0:05.172',-4.36
'0:05.176',-3.48
'0:05.180',-2.5
'0:05.184',-1.9
'0:05.188',-1.78
'0:05.191',-1.67
'0:05.195',-1.43
'0:05.199',-1
'0:05.203',-0.43
'0:05.207',0
'0:05.211',0.39
'0:05.215',0.75
'0:05.219',1.21
'0:05.223',1.59
'0:05.227',1.84
'0:05.230',2.05
'0:05.234',2.32
'0:05.238',2.54
'0:05.242',2.69
'0:05.246',2.89
'0:05.250',3.02
'0:05.254',2.99
'0:05.258',2.67
'0:05.262',2.33
'0:05.266',2.2
'0:05.270',2.35
'0:05.273',2.55
'0:05.277',2.6
'0:05.281',2.67
'0:05.285',2.79
'0:05.289',3.09
'0:05.293',3.48
'0:05.297',3.7
'0:05.301',3.84
'0:05.305',3.97
'0:05.309',4.23
'0:05.313',4.48
'0:05.316',4.35
'0:05.320',4.1
'0:05.324',4.06
'0:05.328',4.21
'0:05.332',4.17
'0:05.336',3.75
'0:05.340',3.35
'0:05.344',3.04
'0:05.348',2.74
'0:05.352',2.2
'0:05.355',1.08
'0:05.359',0.1
'0:05.363',-0.44
'0:05.367',-0.63
'0:05.371',-0.81
'0:05.375',-1.34
'0:05.379',-2.03
'0:05.383',-2.63
'0:05.387',-2.78
'0:05.391',-2.49
'0:05.395',-2
'0:05.398',-1.34
'0:05.402',-0.49
'0:05.406',0.79
'0:05.410',2.89
'0:05.414',6.58
'0:05.418',11.74
'0:05.422',17.12
'0:05.426',21.19
'0:05.430',23.42
'0:05.434',22.68
'0:05.438',17.56
'0:05.441',9.13
'0:05.445',1.57
'0:05.449',-3.17
'0:05.453',-5.94
'0:05.457',-7.41
'0:05.461',-8.16
'0:05.465',-8.58
'0:05.469',-8.72
'0:05.473',-9.08
'0:05.477',-9.72
'0:05.480',-10.47
'0:05.484',-11.02
'0:05.488',-11.29
'0:05.492',-12.03
'0:05.496',-13.35
'0:05.500',-12.24
'0:05.504',-10.3
'0:05.508',-9.19
'0:05.512',-8.83
'0:05.516',-8.28
'0:05.520',-7.28
'0:05.523',-5.96
'0:05.527',-4.92
'0:05.531',-4.6
'0:05.535',-4.42
'0:05.539',-3.76
'0:05.543',-2.74
'0:05.547',-1.74
'0:05.551',-1.16
'0:05.555',-1.03
'0:05.559',-0.83
'0:05.563',-0.23
'0:05.566',0.23
'0:05.570',0.08
'0:05.574',-0.19
'0:05.578',-0.13
'0:05.582',0.19
'0:05.586',0.44
'0:05.590',0.2
'0:05.594',-0.29
'0:05.598',-0.56
'0:05.602',-0.48
'0:05.605',-0.23
'0:05.609',-0.26
'0:05.613',-0.65
'0:05.617',-0.87
'0:05.621',-0.61
'0:05.625',-0.2
'0:05.629',0.04
'0:05.633',0.13
'0:05.637',0.33
'0:05.641',0.71
'0:05.645',1.22
'0:05.648',1.72
'0:05.652',1.36
'0:05.656',0.75
'0:05.660',0.94
'0:05.664',1.45
'0:05.668',1.41
'0:05.672',1.04
'0:05.676',0.78
'0:05.680',0.97
'0:05.684',1.4
'0:05.688',1.31
'0:05.691',0.7
'0:05.695',0.02
'0:05.699',-0.01
'0:05.703',0.08
'0:05.707',-0.11
'0:05.711',-0.4
'0:05.715',-0.61
'0:05.719',-0.57
'0:05.723',-0.27
'0:05.727',-0.14
'0:05.730',-0.16
'0:05.734',-0.36
'0:05.738',-0.53
'0:05.742',-0.44
'0:05.746',-0.14
'0:05.750',0.71
'0:05.754',2.96
'0:05.758',7.32
'0:05.762',12.99
'0:05.766',18.04
'0:05.770',21.34
'0:05.773',22.98
'0:05.777',21.63
'0:05.781',15.69
'0:05.785',7.22
'0:05.789',0.26
'0:05.793',-3.86
'0:05.797',-5.86
'0:05.801',-6.65
'0:05.805',-7.13
'0:05.809',-7.53
'0:05.813',-7.61
'0:05.816',-7.26
'0:05.820',-6.71
'0:05.824',-6.45
'0:05.828',-6.58
'0:05.832',-6.72
'0:05.836',-6.5
'0:05.840',-5.9
'0:05.844',-5.59
'0:05.848',-5.49
'0:05.852',-5.33
'0:05.855',-5
'0:05.859',-4.54
'0:05.863',-4.39
'0:05.867',-4.58
'0:05.871',-4.49
'0:05.875',-3.98
'0:05.879',-3.3
'0:05.883',-2.76
'0:05.887',-2.42
'0:05.891',-1.82
'0:05.895',-0.93
'0:05.898',-0.13
'0:05.902',0.19
'0:05.906',0.18
'0:05.910',0.26
'0:05.914',0.45
'0:05.918',0.54
'0:05.922',0.36
'0:05.926',0.07
'0:05.930',0.02
'0:05.934',0.23
'0:05.938',0.43
'0:05.941',0.1
'0:05.945',-0.44
'0:05.949',-0.91
'0:05.953',-1.1
'0:05.957',-0.83
'0:05.961',-0.64
'0:05.965',-0.63
'0:05.969',-0.75
'0:05.973',-0.7
'0:05.977',-0.37
'0:05.980',-0.12
'0:05.984',-0.04
'0:05.988',0.08
'0:05.992',0.44
'0:05.996',0.92
'0:06.000',1.06
'0:06.004',0.78
'0:06.008',0.73
'0:06.012',0.92
'0:06.016',1.17
'0:06.020',1.22
'0:06.023',1.02
'0:06.027',0.9
'0:06.031',0.94
'0:06.035',0.99
'0:06.039',0.8
'0:06.043',0.53
'0:06.047',0.35
'0:06.051',0.36
'0:06.055',0.5
'0:06.059',0.61
'0:06.063',0.56
'0:06.066',0.58
'0:06.070',0.82
'0:06.074',1.41
'0:06.078',1.82
'0:06.082',1.75
'0:06.086',1.57
'0:06.090',2.02
'0:06.094',3.31
'0:06.098',5.7
'0:06.102',9.87
'0:06.105',15.45
'0:06.109',21.25
'0:06.113',25.68
'0:06.117',27.73
'0:06.121',26.39
'0:06.125',21.01
'0:06.129',12.89
'0:06.133',5.22
'0:06.137',-0.25
'0:06.141',-3.65
'0:06.145',-5.47
'0:06.148',-6.16
'0:06.152',-6.15
'0:06.156',-6.15
'0:06.160',-6.42
'0:06.164',-6.7
'0:06.168',-6.5
'0:06.172',-5.74
'0:06.176',-5.29
'0:06.180',-5.13
'0:06.184',-4.82
'0:06.188',-4.16
'0:06.191',-3.45
'0:06.195',-3.32
'0:06.199',-3.48
'0:06.203',-3.34
'0:06.207',-3.11
'0:06.211',-3.04
'0:06.215',-3.15
'0:06.219',-3.38
'0:06.223',-3.35
'0:06.227',-3.05
'0:06.230',-2.72
'0:06.234',-2.89
'0:06.238',-3.43
'0:06.242',-3.77
'0:06.246',-3.53
'0:06.250',-3.08
'0:06.254',-3.16
'0:06.258',-3.93
'0:06.262',-4.65
'0:06.266',-4.83
'0:06.270',-4.68
'0:06.273',-4.73
'0:06.277',-5.02
'0:06.281',-5.19
'0:06.285',-4.85
'0:06.289',-4.17
'0:06.293',-3.85
'0:06.297',-3.87
'0:06.301',-3.72
'0:06.305',-3.27
'0:06.309',-2.65
'0:06.313',-2.26
'0:06.316',-2.08
'0:06.320',-1.66
'0:06.324',-1.09
'0:06.328',-0.42
'0:06.332',-0.1
'0:06.336',-0.07
'0:06.340',0.11
'0:06.344',0.47
'0:06.348',0.81
'0:06.352',0.75
'0:06.355',0.53
'0:06.359',0.43
'0:06.363',0.55
'0:06.367',0.73
'0:06.371',0.6
'0:06.375',0.13
'0:06.379',-0.19
'0:06.383',-0.26
'0:06.387',-0.3
'0:06.391',-0.69
'0:06.395',-1.26
'0:06.398',-1.66
'0:06.402',-1.54
'0:06.406',-1.1
'0:06.410',-1.09
'0:06.414',-1.51
'0:06.418',-1.57
'0:06.422',-1.34
'0:06.426',-0.97
'0:06.430',-0.92
'0:06.434',-1.01
'0:06.438',-0.53
'0:06.441',0.88
'0:06.445',3.74
'0:06.449',8.26
'0:06.453',13.52
'0:06.457',18.19
'0:06.461',21.84
'0:06.465',23.87
'0:06.469',22.25
'0:06.473',15.68
'0:06.477',6.91
'0:06.480',0
'0:06.484',-4.08
'0:06.488',-6.41
'0:06.492',-7.8
'0:06.496',-8.27
'0:06.500',-8.05
'0:06.504',-7.48
'0:06.508',-7.09
'0:06.512',-6.98
'0:06.516',-6.74
'0:06.520',-6.21
'0:06.523',-5.62
'0:06.527',-5.38
'0:06.531',-5.44
'0:06.535',-5.33
'0:06.539',-4.88
'0:06.543',-4.24
'0:06.547',-3.99
'0:06.551',-4.15
'0:06.555',-4.24
'0:06.559',-4.08
'0:06.563',-3.68
'0:06.566',-3.43
'0:06.570',-3.46
'0:06.574',-3.22
'0:06.578',-2.58
'0:06.582',-1.72
'0:06.586',-1.13
'0:06.590',-0.81
'0:06.594',-0.45
'0:06.598',0.12
'0:06.602',0.85
'0:06.605',1.32
'0:06.609',1.28
'0:06.613',1.12
'0:06.617',0.99
'0:06.621',0.84
'0:06.625',0.49
'0:06.629',-0.27
'0:06.633',-0.92
'0:06.637',-1.2
'0:06.641',-1.21
'0:06.645',-1.32
'0:06.648',-1.63
'0:06.652',-1.79
'0:06.656',-1.67
'0:06.660',-1.36
'0:06.664',-1.24
'0:06.668',-1.26
'0:06.672',-1.12
'0:06.676',-0.7
'0:06.680',-0.19
'0:06.684',0.18
'0:06.688',0.34
'0:06.691',0.48
'0:06.695',0.71
'0:06.699',1.02
'0:06.703',1.03
'0:06.707',0.65
'0:06.711',0.3
'0:06.715',0.13
'0:06.719',0.15
'0:06.723',0.02
'0:06.727',-0.28
'0:06.730',-0.69
'0:06.734',-1.11
'0:06.738',-1.64
'0:06.742',-2.64
'0:06.746',-3.82
'0:06.750',-4.89
'0:06.754',-6.11
'0:06.758',-7.3
'0:06.762',-5.05
'0:06.766',-3.54
'0:06.770',-3.34
'0:06.773',-3.19
'0:06.777',-1.89
'0:06.781',-0.38
'0:06.785',0.85
'0:06.789',2.65
'0:06.793',6.73
'0:06.797',13.12
'0:06.801',19.57
'0:06.805',23.92
'0:06.809',25.91
'0:06.813',25.26
'0:06.816',20.32
'0:06.820',11.93
'0:06.824',3.83
'0:06.828',-1.73
'0:06.832',-4.75
'0:06.836',-5.96
'0:06.840',-6.27
'0:06.844',-6.33
'0:06.848',-6.13
'0:06.852',-5.68
'0:06.855',-4.97
'0:06.859',-4.37
'0:06.863',-4.02
'0:06.867',-3.74
'0:06.871',-3.31
'0:06.875',-2.75
'0:06.879',-2.35
'0:06.883',-2.07
'0:06.887',-1.61
'0:06.891',-0.82
'0:06.895',-0.1
'0:06.898',0.26
'0:06.902',0.36
'0:06.906',0.54
'0:06.910',0.87
'0:06.914',1.34
'0:06.918',1.53
'0:06.922',1.61
'0:06.926',1.63
'0:06.930',1.43
'0:06.934',1.18
'0:06.938',0.78
'0:06.941',0.12
'0:06.945',-0.37
'0:06.949',-0.27
'0:06.953',0.47
'0:06.957',0.96
'0:06.961',0.87
'0:06.965',0.63
'0:06.969',0.68
'0:06.973',1.22
'0:06.977',1.82
'0:06.980',2.02
'0:06.984',1.82
'0:06.988',1.63
'0:06.992',1.8
'0:06.996',2.04
'0:07.000',2.08
'0:07.004',2.12
'0:07.008',2.17
'0:07.012',2.09
'0:07.016',1.71
'0:07.020',1.04
'0:07.023',0.23
'0:07.027',-0.48
'0:07.031',-0.96
'0:07.035',-1.56
'0:07.039',-2.42
'0:07.043',-3.13
'0:07.047',-3.64
'0:07.051',-4.01
'0:07.055',-4.57
'0:07.059',-5.55
'0:07.063',-6.67
'0:07.066',-7.79
'0:07.070',-9.53
'0:07.074',-8.75
'0:07.078',-7.19
'0:07.082',-6.64
'0:07.086',-6.25
'0:07.090',-5.06
'0:07.094',-3.81
'0:07.098',-3.12
'0:07.102',-3.11
'0:07.105',-3.28
'0:07.109',-3.07
'0:07.113',-2.79
'0:07.117',-2.53
'0:07.121',-2.22
'0:07.125',-1.64
'0:07.129',-0.2
'0:07.133',2.73
'0:07.137',7.41
'0:07.141',13.14
'0:07.145',18.35
'0:07.148',22.07
'0:07.152',23.65
'0:07.156',21.46
'0:07.160',14.71
'0:07.164',6.2
'0:07.168',-0.13
'0:07.172',-4.05
'0:07.176',-6.24
'0:07.180',-7.18
'0:07.184',-7.3
'0:07.188',-7.08
'0:07.191',-6.98
'0:07.195',-7.08
'0:07.199',-7.04
'0:07.203',-6.92
'0:07.207',-6.1
'0:07.211',-5.24
'0:07.215',-4.85
'0:07.219',-4.57
'0:07.223',-4.27
'0:07.227',-3.73
'0:07.230',-3.25
'0:07.234',-3.22
'0:07.238',-3.06
'0:07.242',-2.8
'0:07.246',-2.11
'0:07.250',-1.6
'0:07.254',-1.46
'0:07.258',-1.4
'0:07.262',-1.12
'0:07.266',-0.28
'0:07.270',0.31
'0:07.273',0.63
'0:07.277',0.96
'0:07.281',1.33
'0:07.285',1.77
'0:07.289',2
'0:07.293',1.74
'0:07.297',1.38
'0:07.301',1.3
'0:07.305',1.41
'0:07.309',1.43
'0:07.313',1.13
'0:07.316',0.77
'0:07.320',0.49
'0:07.324',0.53
'0:07.328',0.32
'0:07.332',-0.26
'0:07.336',-0.74
'0:07.340',-0.89
'0:07.344',-0.67
'0:07.348',-0.58
'0:07.352',-0.74
'0:07.355',-0.82
'0:07.359',-0.51
'0:07.363',0.16
'0:07.367',0.69
'0:07.371',0.66
'0:07.375',0.46
'0:07.379',0.44
'0:07.383',0.7
'0:07.387',0.85
'0:07.391',0.63
'0:07.395',0.54
'0:07.398',0.62
'0:07.402',0.83
'0:07.406',0.64
'0:07.410',-0.1
'0:07.414',-0.83
'0:07.418',-1.31
'0:07.422',-1.49
'0:07.426',-1.85
'0:07.430',-2.49
'0:07.434',-3.05
'0:07.438',-3.43
'0:07.441',-3.76
'0:07.445',-4.2
'0:07.449',-3.47
'0:07.453',-2.66
'0:07.457',-2.41
'0:07.461',-2.06
'0:07.465',-1.52
'0:07.469',-0.78
'0:07.473',0.62
'0:07.477',3.44
'0:07.480',8.42
'0:07.484',14.11
'0:07.488',18.71
'0:07.492',21.6
'0:07.496',22.9
'0:07.500',21.19
'0:07.504',14.9
'0:07.508',6.22
'0:07.512',-0.88
'0:07.516',-5.2
'0:07.520',-7.26
'0:07.523',-8.21
'0:07.527',-8.82
'0:07.531',-9.09
'0:07.535',-8.99
'0:07.539',-8.74
'0:07.543',-8.52
'0:07.547',-8.44
'0:07.551',-8.12
'0:07.555',-7.7
'0:07.559',-7.16
'0:07.563',-6.73
'0:07.566',-6.36
'0:07.570',-5.96
'0:07.574',-5.38
'0:07.578',-4.55
'0:07.582',-3.79
'0:07.586',-3.23
'0:07.590',-2.8
'0:07.594',-2.13
'0:07.598',-1.22
'0:07.602',-0.41
'0:07.605',0.15
'0:07.609',0.83
'0:07.613',1.72
'0:07.617',2.65
'0:07.621',3.34
'0:07.625',3.64
'0:07.629',3.9
'0:07.633',4.36
'0:07.637',5
'0:07.641',5.33
'0:07.645',5.23
'0:07.648',5.12
'0:07.652',5.28
'0:07.656',5.61
'0:07.660',5.59
'0:07.664',5.05
'0:07.668',4.49
'0:07.672',4.06
'0:07.676',3.94
'0:07.680',3.85
'0:07.684',3.61
'0:07.688',3.43
'0:07.691',3.52
'0:07.695',3.65
'0:07.699',3.62
'0:07.703',3.45
'0:07.707',3.23
'0:07.711',2.97
'0:07.715',2.79
'0:07.719',2.65
'0:07.723',2.33
'0:07.727',2.15
'0:07.730',2.26
'0:07.734',2.58
'0:07.738',2.64
'0:07.742',2.3
'0:07.746',2.02
'0:07.750',2.01
'0:07.754',2.04
'0:07.758',1.63
'0:07.762',0.85
'0:07.766',0.18
'0:07.770',-0.05
'0:07.773',-0.17
'0:07.777',-0.83
'0:07.781',-2.21
'0:07.785',-3.36
'0:07.789',-3.75
'0:07.793',-3.64
'0:07.797',-3.79
'0:07.801',-4.49
'0:07.805',-5.15
'0:07.809',-5.41
'0:07.813',-4.88
'0:07.816',-3.74
'0:07.820',-1.96
'0:07.824',1.59
'0:07.828',6.94
'0:07.832',12.56
'0:07.836',16.51
'0:07.840',18.09
'0:07.844',17.07
'0:07.848',12.17
'0:07.852',4.32
'0:07.855',-3.14
'0:07.859',-8.22
'0:07.863',-10.78
'0:07.867',-11.6
'0:07.871',-11.46
'0:07.875',-11.16
'0:07.879',-11.21
'0:07.883',-11.1
'0:07.887',-10.57
'0:07.891',-9.45
'0:07.895',-8.51
'0:07.898',-8.04
'0:07.902',-7.53
'0:07.906',-6.66
'0:07.910',-5.61
'0:07.914',-4.83
'0:07.918',-4.55
'0:07.922',-4.29
'0:07.926',-3.68
'0:07.930',-2.73
'0:07.934',-2.07
'0:07.938',-1.99
'0:07.941',-1.99
'0:07.945',-1.61
'0:07.949',-0.95
'0:07.953',-0.58
'0:07.957',-0.76
'0:07.961',-0.92
'0:07.965',-0.68
'0:07.969',-0.02
'0:07.973',0.5
'0:07.977',0.52
'0:07.980',0.46
'0:07.984',0.6
'0:07.988',0.96
'0:07.992',1.14
'0:07.996',0.86
'0:08.000',0.53
'0:08.004',0.47
'0:08.008',0.75
'0:08.012',0.74
'0:08.016',0.27
'0:08.020',-0.18
'0:08.023',-0.31
'0:08.027',-0.04
'0:08.031',0.07
'0:08.035',-0.22
'0:08.039',-0.38
'0:08.043',-0.33
'0:08.047',-0.01
'0:08.051',0.15
'0:08.055',0.12
'0:08.059',0.23
'0:08.063',0.57
'0:08.066',1.1
'0:08.070',1.28
'0:08.074',1.01
'0:08.078',0.75
'0:08.082',0.72
'0:08.086',0.83
'0:08.090',0.59
'0:08.094',0.12
'0:08.098',-0.2
'0:08.102',-0.25
'0:08.105',-0.19
'0:08.109',-0.4
'0:08.113',-1.06
'0:08.117',-1.6
'0:08.121',-1.8
'0:08.125',-1.67
'0:08.129',-1.64
'0:08.133',-1.96
'0:08.137',-2.4
'0:08.141',-2.51
'0:08.145',-2.03
'0:08.148',-1.85
'0:08.152',-1.99
'0:08.156',-1.72
'0:08.160',-0.47
'0:08.164',2.23
'0:08.168',6.66
'0:08.172',12.34
'0:08.176',18.01
'0:08.180',22.5
'0:08.184',25.48
'0:08.188',25.52
'0:08.191',20.4
'0:08.195',11.31
'0:08.199',2.72
'0:08.203',-2.91
'0:08.207',-6.29
'0:08.211',-8.29
'0:08.215',-9.31
'0:08.219',-9.52
'0:08.223',-9.13
'0:08.227',-8.74
'0:08.230',-8.7
'0:08.234',-8.65
'0:08.238',-8.28
'0:08.242',-7.5
'0:08.246',-6.79
'0:08.250',-6.52
'0:08.254',-6.24
'0:08.258',-5.92
'0:08.262',-5.56
'0:08.266',-5.4
'0:08.270',-5.48
'0:08.273',-5.32
'0:08.277',-4.64
'0:08.281',-3.58
'0:08.285',-2.73
'0:08.289',-2.43
'0:08.293',-2.51
'0:08.297',-2.52
'0:08.301',-2.03
'0:08.305',-1.39
'0:08.309',-0.99
'0:08.313',-0.85
'0:08.316',-0.79
'0:08.320',-0.55
'0:08.324',-0.33
'0:08.328',-0.31
'0:08.332',-0.41
'0:08.336',-0.43
'0:08.340',-0.12
'0:08.344',-0.03
'0:08.348',-0.22
'0:08.352',-0.31
'0:08.355',-0.36
'0:08.359',-0.22
'0:08.363',-0.14
'0:08.367',-0.12
'0:08.371',-0.06
'0:08.375',0.15
'0:08.379',0.65
'0:08.383',1.34
'0:08.387',1.85
'0:08.391',2.15
'0:08.395',2.43
'0:08.398',2.88
'0:08.402',3.38
'0:08.406',3.75
'0:08.410',4.03
'0:08.414',4.3
'0:08.418',4.65
'0:08.422',4.93
'0:08.426',4.95
'0:08.430',4.93
'0:08.434',4.96
'0:08.438',5.06
'0:08.441',4.92
'0:08.445',4.33
'0:08.449',3.71
'0:08.453',3.12
'0:08.457',2.62
'0:08.461',2.2
'0:08.465',1.73
'0:08.469',1.43
'0:08.473',1.3
'0:08.477',1.31
'0:08.480',0.95
'0:08.484',0.34
'0:08.488',0.01
'0:08.492',-0.15
'0:08.496',-0.19
'0:08.500',-0.02
'0:08.504',0.59
'0:08.508',2.88
'0:08.512',7.46
'0:08.516',13.35
'0:08.520',18.45
'0:08.523',21.7
'0:08.527',22.87
'0:08.531',20.52
'0:08.535',13.85
'0:08.539',5.69
'0:08.543',-0.6
'0:08.547',-4.53
'0:08.551',-6.68
'0:08.555',-7.57
'0:08.559',-7.57
'0:08.563',-7.72
'0:08.566',-8.41
'0:08.570',-8.11
'0:08.574',-7.5
'0:08.578',-7.16
'0:08.582',-7.6
'0:08.586',-8.02
'0:08.590',-7.91
'0:08.594',-7.31
'0:08.598',-6.9
'0:08.602',-7.1
'0:08.605',-7.31
'0:08.609',-7.21
'0:08.613',-6.7
'0:08.617',-6.23
'0:08.621',-6.3
'0:08.625',-6.65
'0:08.629',-6.73
'0:08.633',-6.2
'0:08.637',-5.48
'0:08.641',-5.04
'0:08.645',-4.59
'0:08.648',-4.09
'0:08.652',-3.33
'0:08.656',-2.67
'0:08.660',-2.42
'0:08.664',-2.22
'0:08.668',-1.79
'0:08.672',-1.22
'0:08.676',-0.84
'0:08.680',-0.88
'0:08.684',-0.88
'0:08.688',-0.63
'0:08.691',-0.05
'0:08.695',0.24
'0:08.699',0.08
'0:08.703',-0.18
'0:08.707',-0.23
'0:08.711',0.18
'0:08.715',0.51
'0:08.719',0.34
'0:08.723',0.14
'0:08.727',0.24
'0:08.730',0.71
'0:08.734',1.12
'0:08.738',1.01
'0:08.742',0.88
'0:08.746',0.96
'0:08.750',1.29
'0:08.754',1.55
'0:08.758',1.54
'0:08.762',1.47
'0:08.766',1.39
'0:08.770',1.45
'0:08.773',1.4
'0:08.777',1.06
'0:08.781',0.73
'0:08.785',0.46
'0:08.789',0.26
'0:08.793',0.01
'0:08.797',-0.55
'0:08.801',-1.13
'0:08.805',-1.47
'0:08.809',-1.38
'0:08.813',-1.25
'0:08.816',-1.43
'0:08.820',-1.64
'0:08.824',-1.62
'0:08.828',-1.32
'0:08.832',-1.12
'0:08.836',-1.23
'0:08.840',-1.07
'0:08.844',-0.06
'0:08.848',2.34
'0:08.852',6.45
'0:08.855',11.67
'0:08.859',16.8
'0:08.863',20.88
'0:08.867',23.67
'0:08.871',23.52
'0:08.875',17.8
'0:08.879',8.97
'0:08.883',1.72
'0:08.887',-2.44
'0:08.891',-4.41
'0:08.895',-5.64
'0:08.898',-6.41
'0:08.902',-6.65
'0:08.906',-6.5
'0:08.910',-6.36
'0:08.914',-6.62
'0:08.918',-6.97
'0:08.922',-6.96
'0:08.926',-6.39
'0:08.930',-5.69
'0:08.934',-5.5
'0:08.938',-5.57
'0:08.941',-5.56
'0:08.945',-5.22
'0:08.949',-4.9
'0:08.953',-5.25
'0:08.957',-5.01
'0:08.961',-4.2
'0:08.965',-3.4
'0:08.969',-2.7
'0:08.973',-2.29
'0:08.977',-1.91
'0:08.980',-1.53
'0:08.984',-1.15
'0:08.988',-0.95
'0:08.992',-0.92
'0:08.996',-0.82
'0:09.000',-0.62
'0:09.004',-0.29
'0:09.008',-0.2
'0:09.012',-0.5
'0:09.016',-0.83
'0:09.020',-0.94
'0:09.023',-0.71
'0:09.027',-0.47
'0:09.031',-0.41
'0:09.035',-0.52
'0:09.039',-0.73
'0:09.043',-0.89
'0:09.047',-1.05
'0:09.051',-1.31
'0:09.055',-1.43
'0:09.059',-1.25
'0:09.063',-0.7
'0:09.066',-0.25
'0:09.070',-0.17
'0:09.074',0.01
'0:09.078',0.31
'0:09.082',0.76
'0:09.086',1
'0:09.090',1
'0:09.094',0.82
'0:09.098',0.73
'0:09.102',0.91
'0:09.105',1.02
'0:09.109',0.54
'0:09.113',-0.04
'0:09.117',-0.31
'0:09.121',-0.16
'0:09.125',-0.1
'0:09.129',-0.59
'0:09.133',-1.32
'0:09.137',-1.75
'0:09.141',-1.66
'0:09.145',-1.36
'0:09.148',-1.34
'0:09.152',-1.41
'0:09.156',-1.3
'0:09.160',-0.96
'0:09.164',-0.47
'0:09.168',-0.11
'0:09.172',-0.09
'0:09.176',-0.06
'0:09.180',0.35
'0:09.184',1.14
'0:09.188',2.49
'0:09.191',5.34
'0:09.195',10.24
'0:09.199',16.42
'0:09.203',21.87
'0:09.207',25.51
'0:09.211',27.17
'0:09.215',25.78
'0:09.219',19.02
'0:09.223',10.78
'0:09.227',4.02
'0:09.230',-0.27
'0:09.234',-2.66
'0:09.238',-3.73
'0:09.242',-4.12
'0:09.246',-4.32
'0:09.250',-4.35
'0:09.254',-4.11
'0:09.258',-3.45
'0:09.262',-2.7
'0:09.266',-2.41
'0:09.270',-2.56
'0:09.273',-2.62
'0:09.277',-2.33
'0:09.281',-2.22
'0:09.285',-2.64
'0:09.289',-2.86
'0:09.293',-2.74
'0:09.297',-2.32
'0:09.301',-2.05
'0:09.305',-2.11
'0:09.309',-2.03
'0:09.313',-1.66
'0:09.316',-1.14
'0:09.320',-0.64
'0:09.324',-0.45
'0:09.328',-0.14
'0:09.332',0.37
'0:09.336',1.01
'0:09.340',1.26
'0:09.344',0.85
'0:09.348',0.38
'0:09.352',0.11
'0:09.355',0.21
'0:09.359',0.19
'0:09.363',-0.31
'0:09.367',-1
'0:09.371',-1.61
'0:09.375',-2.04
'0:09.379',-2.63
'0:09.383',-3.62
'0:09.387',-4.67
'0:09.391',-5.35
'0:09.395',-5.37
'0:09.398',-5.19
'0:09.402',-5.31
'0:09.406',-5.51
'0:09.410',-5.58
'0:09.414',-5.49
'0:09.418',-5.54
'0:09.422',-5.96
'0:09.426',-6.11
'0:09.430',-5.49
'0:09.434',-4.38
'0:09.438',-3.37
'0:09.441',-2.74
'0:09.445',-2.29
'0:09.449',-1.83
'0:09.453',-1.31
'0:09.457',-0.89
'0:09.461',-0.93
'0:09.465',-0.97
'0:09.469',-0.82
'0:09.473',-0.5
'0:09.477',-0.35
'0:09.480',-0.65
'0:09.484',-0.96
'0:09.488',-1.12
'0:09.492',-0.96
'0:09.496',-0.92
'0:09.500',-1.18
'0:09.504',-1.43
'0:09.508',-1.45
'0:09.512',-1.12
'0:09.516',-1.03
'0:09.520',-1.57
'0:09.523',-2.08
'0:09.527',-1.86
'0:09.531',-0.69
'0:09.535',1.34
'0:09.539',4.5
'0:09.543',9.02
'0:09.547',14.14
'0:09.551',18.7
'0:09.555',21.75
'0:09.559',21.66
'0:09.563',16.81
'0:09.566',8.9
'0:09.570',1.87
'0:09.574',-2.73
'0:09.578',-5.47
'0:09.582',-7
'0:09.586',-7.66
'0:09.590',-7.51
'0:09.594',-7.26
'0:09.598',-7.32
'0:09.602',-7.33
'0:09.605',-7.03
'0:09.609',-6.26
'0:09.613',-5.57
'0:09.617',-5.21
'0:09.621',-4.61
'0:09.625',-4.24
'0:09.629',-3.97
'0:09.633',-3.43
'0:09.637',-3.09
'0:09.641',-2.94
'0:09.645',-2.71
'0:09.648',-2.1
'0:09.652',-1.39
'0:09.656',-1.12
'0:09.660',-0.94
'0:09.664',-0.66
'0:09.668',-0.07
'0:09.672',0.58
'0:09.676',1.13
'0:09.680',1.46
'0:09.684',1.81
'0:09.688',2.37
'0:09.691',2.79
'0:09.695',2.69
'0:09.699',2.28
'0:09.703',2.06
'0:09.707',2.2
'0:09.711',2.24
'0:09.715',1.83
'0:09.719',1.21
'0:09.723',0.6
'0:09.727',0.22
'0:09.730',0.09
'0:09.734',-0.29
'0:09.738',-0.79
'0:09.742',-0.98
'0:09.746',-0.75
'0:09.750',-0.59
'0:09.754',-0.94
'0:09.758',-1.33
'0:09.762',-1.31
'0:09.766',-0.73
'0:09.770',-0.28
'0:09.773',-0.34
'0:09.777',-0.69
'0:09.781',-0.95
'0:09.785',-0.97
'0:09.789',-1.01
'0:09.793',-1.11
'0:09.797',-1.17
'0:09.801',-1.12
'0:09.805',-0.78
'0:09.809',-0.53
'0:09.813',-0.77
'0:09.816',-1.23
'0:09.820',-1.64
'0:09.824',-1.86
'0:09.828',-2.06
'0:09.832',-2.42
'0:09.836',-2.82
'0:09.840',-2.95
'0:09.844',-2.72
'0:09.848',-2.53
'0:09.852',-2.61
'0:09.855',-2.87
'0:09.859',-3.09
'0:09.863',-2.95
'0:09.867',-2.47
'0:09.871',-1.96
'0:09.875',-0.91
'0:09.879',1.71
'0:09.883',6.77
'0:09.887',12.98
'0:09.891',18.28
'0:09.895',21.85
'0:09.898',23.52
'0:09.902',21.88
'0:09.906',15.46
'0:09.910',6.5
'0:09.914',-0.75
'0:09.918',-5.1
'0:09.922',-7.21
'0:09.926',-8.1
'0:09.930',-8.5
'0:09.934',-8.7
'0:09.938',-8.6
'0:09.941',-8.21
'0:09.945',-7.6
'0:09.949',-7
'0:09.953',-6.4
'0:09.957',-5.85
'0:09.961',-5.18
'0:09.965',-4.46
'0:09.969',-3.92
'0:09.973',-3.48
'0:09.977',-3.02
'0:09.980',-2.4
'0:09.984',-1.68
'0:09.988',-1.09
'0:09.992',-0.53
'0:09.996',0.03
'0:10.000',0.79
'0:10.004',1.38
'0:10.008',1.55
'0:10.012',1.64
'0:10.016',1.92
'0:10.020',2.4
'0:10.023',2.95
'0:10.027',3.32
'0:10.031',3.54
'0:10.035',3.74
'0:10.039',4.09
'0:10.043',4.23
'0:10.047',3.9
'0:10.051',3.44
'0:10.055',3.27
'0:10.059',3.23
'0:10.063',3.01
'0:10.066',2.42
'0:10.070',1.83
'0:10.074',1.42
'0:10.078',1.15
'0:10.082',0.84
'0:10.086',0.32
'0:10.090',-0.11
'0:10.094',-0.2
'0:10.098',0.05
'0:10.102',0.33
'0:10.105',0.47
'0:10.109',0.57
'0:10.113',1.03
'0:10.117',1.9
'0:10.121',2.69
'0:10.125',2.92
'0:10.129',2.84
'0:10.133',2.77
'0:10.137',3.09
'0:10.141',2.99
'0:10.145',1.84
'0:10.148',0.5
'0:10.152',-0.73
'0:10.156',-1.55
'0:10.160',-2.41
'0:10.164',-3.93
'0:10.168',-4.68
'0:10.172',-5.16
'0:10.176',-5.5
'0:10.180',-5.78
'0:10.184',-5.82
'0:10.188',-5.81
'0:10.191',-5.84
'0:10.195',-5.71
'0:10.199',-5.52
'0:10.203',-5.62
'0:10.207',-5.96
'0:10.211',-5.83
'0:10.215',-4.9
'0:10.219',-3.09
'0:10.223',0.2
'0:10.227',5.32
'0:10.230',11.4
'0:10.234',16.74
'0:10.238',20.39
'0:10.242',21.14
'0:10.246',17.23
'0:10.250',9.33
'0:10.254',1.7
'0:10.258',-3.23
'0:10.262',-5.96
'0:10.266',-7.34
'0:10.270',-7.74
'0:10.273',-7.45
'0:10.277',-6.94
'0:10.281',-6.84
'0:10.285',-7.3
'0:10.289',-7.29
'0:10.293',-6.48
'0:10.297',-5.71
'0:10.301',-5.31
'0:10.305',-5.14
'0:10.309',-4.7
'0:10.313',-4.21
'0:10.316',-3.67
'0:10.320',-3.22
'0:10.324',-3.17
'0:10.328',-3.49
'0:10.332',-3.7
'0:10.336',-3.18
'0:10.340',-2.51
'0:10.344',-2.22
'0:10.348',-2.19
'0:10.352',-1.6
'0:10.355',-0.71
'0:10.359',0.26
'0:10.363',0.49
'0:10.367',0.41
'0:10.371',0.37
'0:10.375',0.78
'0:10.379',0.98
'0:10.383',0.61
'0:10.387',0.22
'0:10.391',0.42
'0:10.395',0.69
'0:10.398',0.97
'0:10.402',0.74
'0:10.406',0.3
'0:10.410',0.26
'0:10.414',0.25
'0:10.418',0.32
'0:10.422',0.51
'0:10.426',0.3
'0:10.430',0.37
'0:10.434',0.9
'0:10.438',1.25
'0:10.441',1.27
'0:10.445',1.3
'0:10.449',1.53
'0:10.453',1.96
'0:10.457',1.86
'0:10.461',1.5
'0:10.465',1.35
'0:10.469',1.51
'0:10.473',1.67
'0:10.477',1.57
'0:10.480',1.05
'0:10.484',0.45
'0:10.488',0.27
'0:10.492',0.31
'0:10.496',-0.11
'0:10.500',-1.1
'0:10.504',-2.16
'0:10.508',-2.26
'0:10.512',-1.72
'0:10.516',-1.48
'0:10.520',-1.54
'0:10.523',-1.38
'0:10.527',-1.11
'0:10.531',-0.46
'0:10.535',-0.25
'0:10.539',-0.56
'0:10.543',-1.05
'0:10.547',-0.92
'0:10.551',-0.28
'0:10.555',0.02
'0:10.559',0.77
'0:10.563',2.97
'0:10.566',7.48
'0:10.570',13.35
'0:10.574',18.73
'0:10.578',21.84
'0:10.582',22.73
'0:10.586',20.44
'0:10.590',13.66
'0:10.594',4.78
'0:10.598',-2.05
'0:10.602',-5.87
'0:10.605',-7.11
'0:10.609',-7.59
'0:10.613',-8.16
'0:10.617',-8.39
'0:10.621',-8.14
'0:10.625',-7.45
'0:10.629',-6.73
'0:10.633',-6.63
'0:10.637',-6.34
'0:10.641',-5.9
'0:10.645',-5.46
'0:10.648',-4.73
'0:10.652',-4.12
'0:10.656',-3.8
'0:10.660',-3.59
'0:10.664',-3.28
'0:10.668',-2.69
'0:10.672',-2.51
'0:10.676',-2.38
'0:10.680',-2.33
'0:10.684',-2.14
'0:10.688',-1.34
'0:10.691',-0.96
'0:10.695',-1.04
'0:10.699',-1.18
'0:10.703',-0.87
'0:10.707',-0.46
'0:10.711',0.07
'0:10.715',0.26
'0:10.719',0.32
'0:10.723',0.25
'0:10.727',0.13
'0:10.730',-0.15
'0:10.734',-0.36
'0:10.738',-0.51
'0:10.742',-0.26
'0:10.746',0.3
'0:10.750',0.66
'0:10.754',0.42
'0:10.758',0.14
'0:10.762',0.19
'0:10.766',0.38
'0:10.770',0.29
'0:10.773',0.17
'0:10.777',0.38
'0:10.781',1.06
'0:10.785',1.68
'0:10.789',1.8
'0:10.793',1.86
'0:10.797',2.2
'0:10.801',2.88
'0:10.805',3.25
'0:10.809',3.29
'0:10.813',3.47
'0:10.816',3.65
'0:10.820',3.76
'0:10.824',3.79
'0:10.828',3.56
'0:10.832',3.35
'0:10.836',3.13
'0:10.840',2.74
'0:10.844',2.46
'0:10.848',2.02
'0:10.852',1.63
'0:10.855',1.38
'0:10.859',1.46
'0:10.863',1.63
'0:10.867',1.44
'0:10.871',1.15
'0:10.875',0.78
'0:10.879',0.61
'0:10.883',0.64
'0:10.887',0.4
'0:10.891',-0.06
'0:10.895',-0.27
'0:10.898',0.26
'0:10.902',1.73
'0:10.906',4.12
'0:10.910',7.87
'0:10.914',12.55
'0:10.918',17.44
'0:10.922',21.36
'0:10.926',22.65
'0:10.930',19.78
'0:10.934',12.73
'0:10.938',4.94
'0:10.941',-0.63
'0:10.945',-4.01
'0:10.949',-6.1
'0:10.953',-7.09
'0:10.957',-7.42
'0:10.961',-7.46
'0:10.965',-7.97
'0:10.969',-8.63
'0:10.973',-8.91
'0:10.977',-8.67
'0:10.980',-8.14
'0:10.984',-7.88
'0:10.988',-7.83
'0:10.992',-7.55
'0:10.996',-6.75
'0:11.000',-5.76
'0:11.004',-5.33
'0:11.008',-5.34
'0:11.012',-5.48
'0:11.016',-5.26
'0:11.020',-4.87
'0:11.023',-4.89
'0:11.027',-5.17
'0:11.031',-5.22
'0:11.035',-4.76
'0:11.039',-3.98
'0:11.043',-3.5
'0:11.047',-3.2
'0:11.051',-2.66
'0:11.055',-1.78
'0:11.059',-0.95
'0:11.063',-0.78
'0:11.066',-1.07
'0:11.070',-1.24
'0:11.074',-0.99
'0:11.078',-0.49
'0:11.082',-0.29
'0:11.086',-0.52
'0:11.090',-0.56
'0:11.094',-0.16
'0:11.098',0.29
'0:11.102',0.27
'0:11.105',0.12
'0:11.109',0.7
'0:11.113',0.84
'0:11.117',0.63
'0:11.121',0.27
'0:11.125',-0.16
'0:11.129',-0.41
'0:11.133',-0.57
'0:11.137',0.02
'0:11.141',0.46
'0:11.145',0.62
'0:11.148',0.84
'0:11.152',1.32
'0:11.156',1.79
'0:11.160',1.51
'0:11.164',0.89
'0:11.168',0.78
'0:11.172',0.87
'0:11.176',1.05
'0:11.180',0.65
'0:11.184',-0.09
'0:11.188',-0.63
'0:11.191',-0.84
'0:11.195',-0.89
'0:11.199',-1.14
'0:11.203',-1.66
'0:11.207',-2.12
'0:11.211',-2.2
'0:11.215',-1.9
'0:11.219',-1.86
'0:11.223',-2
'0:11.227',-1.94
'0:11.230',-1.75
'0:11.234',-1.51
'0:11.238',-1.33
'0:11.242',-0.7
'0:11.246',1.06
'0:11.250',4.88
'0:11.254',10.42
'0:11.258',15.97
'0:11.262',20.1
'0:11.266',22.7
'0:11.270',23.47
'0:11.273',20.11
'0:11.277',12.23
'0:11.281',3.61
'0:11.285',-2.34
'0:11.289',-5.57
'0:11.293',-7.2
'0:11.297',-8.1
'0:11.301',-8.54
'0:11.305',-8.41
'0:11.309',-7.72
'0:11.313',-6.9
'0:11.316',-6.36
'0:11.320',-6.13
'0:11.324',-5.78
'0:11.328',-5.16
'0:11.332',-4.55
'0:11.336',-4.26
'0:11.340',-4.26
'0:11.344',-4.13
'0:11.348',-4.04
'0:11.352',-4.04
'0:11.355',-3.35
'0:11.359',-3.38
'0:11.363',-3.3
'0:11.367',-2.92
'0:11.371',-2.87
'0:11.375',-2.36
'0:11.379',-2.34
'0:11.383',-2.14
'0:11.387',-2.14
'0:11.391',-2.14
'0:11.395',-1.21
'0:11.398',-1.21
'0:11.402',-1.12
'0:11.406',-1.12
'0:11.410',-1.12
'0:11.414',-1.12
'0:11.418',-0.37
'0:11.422',-0.41
'0:11.426',-0.41
'0:11.430',-0.41
'0:11.434',-0.41
'0:11.438',-0.41
'0:11.441',-1.84
'0:11.445',-2.03
'0:11.449',-2.42
'0:11.453',-3.05
'0:11.457',-3.65
'0:11.461',-4.35
'0:11.465',-5.17
'0:11.469',-3.41
'0:11.473',-1.83
'0:11.477',-1.15
'0:11.480',-0.96
'0:11.484',-0.43
'0:11.488',0.39
'0:11.492',0.59
'0:11.496',0.35
'0:11.500',0.12
'0:11.504',0.41
'0:11.508',0.69
'0:11.512',0.7
'0:11.516',0.37
'0:11.520',0.2
'0:11.523',0.29
'0:11.527',0.22
'0:11.531',-0.19
'0:11.535',-0.69
'0:11.539',-1.03
'0:11.543',-1.1
'0:11.547',-1.18
'0:11.551',-1.49
'0:11.555',-1.72
'0:11.559',-1.7
'0:11.563',-1.31
'0:11.566',-0.92
'0:11.570',-0.76
'0:11.574',-0.55
'0:11.578',-0.21
'0:11.582',0.53
'0:11.586',1.63
'0:11.590',3.18
'0:11.594',6.26
'0:11.598',11.37
'0:11.602',17.6
'0:11.605',22.9
'0:11.609',26.39
'0:11.613',27.69
'0:11.617',25.2
'0:11.621',18.53
'0:11.625',10.43
'0:11.629',3.72
'0:11.633',-0.36
'0:11.637',-2.26
'0:11.641',-2.76
'0:11.645',-3.11
'0:11.648',-3.49
'0:11.652',-3.54
'0:11.656',-3.28
'0:11.660',-2.67
'0:11.664',-2.39
'0:11.668',-2.28
'0:11.672',-1.97
'0:11.676',-1.79
'0:11.680',-1.53
'0:11.684',-1.57
'0:11.688',-2.09
'0:11.691',-2.37
'0:11.695',-2.29
'0:11.699',-1.79
'0:11.703',-1.55
'0:11.707',-1.76
'0:11.711',-1.77
'0:11.715',-1.46
'0:11.719',-1.1
'0:11.723',-0.9
'0:11.727',-0.97
'0:11.730',-0.97
'0:11.734',-0.76
'0:11.738',-0.18
'0:11.742',0.14
'0:11.746',-0.02
'0:11.750',-0.43
'0:11.754',-0.66
'0:11.758',-0.85
'0:11.762',-1.42
'0:11.766',-2.49
'0:11.770',-3.47
'0:11.773',-4.04
'0:11.777',-4.25
'0:11.781',-4.68
'0:11.785',-5.74
'0:11.789',-6.6
'0:11.793',-6.83
'0:11.797',-6.58
'0:11.801',-6.35
'0:11.805',-6.45
'0:11.809',-6.43
'0:11.813',-6.24
'0:11.816',-5.92
'0:11.820',-5.81
'0:11.824',-6
'0:11.828',-6.02
'0:11.832',-5.33
'0:11.836',-4.3
'0:11.840',-3.47
'0:11.844',-3.07
'0:11.848',-2.53
'0:11.852',-1.68
'0:11.855',-0.72
'0:11.859',-0.29
'0:11.863',-0.42
'0:11.867',-0.46
'0:11.871',-0.25
'0:11.875',0.27
'0:11.879',0.47
'0:11.883',0.13
'0:11.887',-0.33
'0:11.891',-0.49
'0:11.895',-0.44
'0:11.898',-0.44
'0:11.902',-0.69
'0:11.906',-0.8
'0:11.910',-0.75
'0:11.914',-0.6
'0:11.918',-0.74
'0:11.922',-1.15
'0:11.926',-1.28
'0:11.930',-0.67
'0:11.934',0.93
'0:11.938',3.8
'0:11.941',8.02
'0:11.945',13.21
'0:11.949',18.21
'0:11.953',22.16
'0:11.957',24.04
'0:11.961',21.96
'0:11.965',15.24
'0:11.969',6.99
'0:11.973',0.7
'0:11.977',-3.26
'0:11.980',-5.82
'0:11.984',-7.28
'0:11.988',-7.81
'0:11.992',-7.79
'0:11.996',-7.76
'0:12.000',-7.98
'0:12.004',-8.08
'0:12.008',-7.79
'0:12.012',-7.16
'0:12.016',-6.71
'0:12.020',-6.6
'0:12.023',-6.45
'0:12.027',-5.93
'0:12.031',-5.07
'0:12.035',-4.4
'0:12.039',-4.16
'0:12.043',-3.92
'0:12.047',-3.39
'0:12.051',-2.6
'0:12.055',-1.98
'0:12.059',-1.72
'0:12.063',-1.45
'0:12.066',-0.84
'0:12.070',-0.07
'0:12.074',0.42
'0:12.078',0.5
'0:12.082',0.45
'0:12.086',0.74
'0:12.090',1.31
'0:12.094',1.61
'0:12.098',1.42
'0:12.102',1.18
'0:12.105',1.14
'0:12.109',1.33
'0:12.113',1.47
'0:12.117',1.25
'0:12.121',0.9
'0:12.125',0.74
'0:12.129',0.82
'0:12.133',0.77
'0:12.137',0.42
'0:12.141',0.18
'0:12.145',0.27
'0:12.148',0.57
'0:12.152',0.65
'0:12.156',0.28
'0:12.160',-0.03
'0:12.164',-0.06
'0:12.168',0.13
'0:12.172',0.14
'0:12.176',-0.24
'0:12.180',-0.68
'0:12.184',-0.8
'0:12.188',-0.82
'0:12.191',-0.95
'0:12.195',-1.34
'0:12.199',-1.84
'0:12.203',-2.33
'0:12.207',-2.59
'0:12.211',-2.88
'0:12.215',-3.67
'0:12.219',-4.39
'0:12.223',-3.59
'0:12.227',-2.7
'0:12.230',-2.37
'0:12.234',-2.24
'0:12.238',-2
'0:12.242',-1.57
'0:12.246',-1.22
'0:12.250',-1.33
'0:12.254',-1.68
'0:12.258',-1.75
'0:12.262',-1.43
'0:12.266',-0.89
'0:12.270',-0.59
'0:12.273',-0.34
'0:12.277',0.67
'0:12.281',3.27
'0:12.285',7.9
'0:12.289',13.05
'0:12.293',17.97
'0:12.297',21.96
'0:12.301',23.83
'0:12.305',22.15
'0:12.309',15.71
'0:12.313',6.98
'0:12.316',-0.09
'0:12.320',-4.45
'0:12.324',-6.6
'0:12.328',-7.5
'0:12.332',-7.98
'0:12.336',-8.24
'0:12.340',-8.27
'0:12.344',-7.86
'0:12.348',-7.23
'0:12.352',-6.62
'0:12.355',-6.03
'0:12.359',-5.51
'0:12.363',-4.97
'0:12.367',-4.36
'0:12.371',-3.94
'0:12.375',-3.69
'0:12.379',-3.41
'0:12.383',-2.84
'0:12.387',-2.19
'0:12.391',-1.83
'0:12.395',-1.54
'0:12.398',-0.95
'0:12.402',-0.26
'0:12.406',0.31
'0:12.410',0.68
'0:12.414',1.2
'0:12.418',1.86
'0:12.422',2.48
'0:12.426',2.9
'0:12.430',3.09
'0:12.434',3.21
'0:12.438',3.45
'0:12.441',3.89
'0:12.445',4.1
'0:12.449',3.97
'0:12.453',3.83
'0:12.457',3.85
'0:12.461',3.88
'0:12.465',3.67
'0:12.469',3.1
'0:12.473',2.51
'0:12.477',2.12
'0:12.480',1.94
'0:12.484',1.8
'0:12.488',1.58
'0:12.492',1.33
'0:12.496',0.99
'0:12.500',0.8
'0:12.504',0.6
'0:12.508',0.31
'0:12.512',-0.12
'0:12.516',-0.39
'0:12.520',-0.1
'0:12.523',0.26
'0:12.527',0.36
'0:12.531',0.5
'0:12.535',0.79
'0:12.539',1.3
'0:12.543',1.77
'0:12.547',2.01
'0:12.551',2.3
'0:12.555',2.36
'0:12.559',2.36
'0:12.563',2.31
'0:12.566',1.77
'0:12.570',0.99
'0:12.574',0.28
'0:12.578',0.03
'0:12.582',-0.22
'0:12.586',-0.99
'0:12.590',-1.78
'0:12.594',-2.23
'0:12.598',-2.12
'0:12.602',-2.25
'0:12.605',-3.04
'0:12.609',-3.87
'0:12.613',-4.19
'0:12.617',-3.73
'0:12.621',-2.51
'0:12.625',0.11
'0:12.629',4.71
'0:12.633',10.23
'0:12.637',15.03
'0:12.641',18.4
'0:12.645',19.11
'0:12.648',15.54
'0:12.652',7.46
'0:12.656',-1.77
'0:12.660',-8.94
'0:12.664',-13.01
'0:12.668',-12.41
'0:12.672',-11.65
'0:12.676',-11.36
'0:12.680',-10.74
'0:12.684',-9.65
'0:12.688',-8.45
'0:12.691',-7.56
'0:12.695',-6.71
'0:12.699',-5.92
'0:12.703',-5.29
'0:12.707',-4.66
'0:12.711',-4.35
'0:12.715',-4.1
'0:12.719',-3.75
'0:12.723',-3.44
'0:12.727',-2.94
'0:12.730',-2.43
'0:12.734',-1.89
'0:12.738',-1.59
'0:12.742',-1.58
'0:12.746',-1.33
'0:12.750',-0.7
'0:12.754',-0.12
'0:12.758',0.14
'0:12.762',0.13
'0:12.766',0.27
'0:12.770',0.54
'0:12.773',1
'0:12.777',1.58
'0:12.781',1.73
'0:12.785',1.56
'0:12.789',1.15
'0:12.793',1.27
'0:12.797',2.08
'0:12.801',2.01
'0:12.805',1.16
'0:12.809',0.52
'0:12.813',0.4
'0:12.816',0.31
'0:12.820',-0.39
'0:12.824',-1.59
'0:12.828',-1.53
'0:12.832',-0.45
'0:12.836',0.47
'0:12.840',0.78
'0:12.844',0.73
'0:12.848',0.83
'0:12.852',1.38
'0:12.855',2.02
'0:12.859',2.11
'0:12.863',1.8
'0:12.867',1.85
'0:12.871',2.25
'0:12.875',2.85
'0:12.879',2.78
'0:12.883',2.42
'0:12.887',1.97
'0:12.891',2.23
'0:12.895',2.69
'0:12.898',2.35
'0:12.902',1.46
'0:12.906',0.68
'0:12.910',0.64
'0:12.914',1.4
'0:12.918',1.38
'0:12.922',0.68
'0:12.926',-0.04
'0:12.930',-0.2
'0:12.934',-0.05
'0:12.938',-0.2
'0:12.941',-0.73
'0:12.945',-1.35
'0:12.949',-1.53
'0:12.953',-1.41
'0:12.957',-1.26
'0:12.961',-0.84
'0:12.965',0.76
'0:12.969',4.28
'0:12.973',9.36
'0:12.977',14.93
'0:12.980',19.2
'0:12.984',21.74
'0:12.988',22.2
'0:12.992',18.66
'0:12.996',10.86
'0:13.000',2.56
'0:13.004',-3.03
'0:13.008',-5.65
'0:13.012',-6.79
'0:13.016',-7.72
'0:13.020',-8.37
'0:13.023',-8.57
'0:13.027',-8.27
'0:13.031',-7.73
'0:13.035',-7.37
'0:13.039',-6.95
'0:13.043',-6.4
'0:13.047',-5.61
'0:13.051',-5
'0:13.055',-4.71
'0:13.059',-4.55
'0:13.063',-4.39
'0:13.066',-3.81
'0:13.070',-3.19
'0:13.074',-3.05
'0:13.078',-3.11
'0:13.082',-2.91
'0:13.086',-2.31
'0:13.090',-1.8
'0:13.094',-1.55
'0:13.098',-1.32
'0:13.102',-0.66
'0:13.105',-0.2
'0:13.109',0.33
'0:13.113',0.36
'0:13.117',0.22
'0:13.121',0.2
'0:13.125',0.15
'0:13.129',0.22
'0:13.133',0.17
'0:13.137',-0.11
'0:13.141',-0.37
'0:13.145',-0.41
'0:13.148',-0.44
'0:13.152',-0.81
'0:13.156',-1.19
'0:13.160',-1.36
'0:13.164',-1.06
'0:13.168',-0.54
'0:13.172',-0.54
'0:13.176',-0.57
'0:13.180',-0.25
'0:13.184',0.28
'0:13.188',0.94
'0:13.191',1.52
'0:13.195',1.57
'0:13.199',1.77
'0:13.203',2.48
'0:13.207',2.95
'0:13.211',2.81
'0:13.215',2.61
'0:13.219',2.78
'0:13.223',3
'0:13.227',2.92
'0:13.230',2.58
'0:13.234',2.32
'0:13.238',2.3
'0:13.242',2.51
'0:13.246',2.37
'0:13.250',1.57
'0:13.254',0.91
'0:13.258',0.52
'0:13.262',0.29
'0:13.266',0.52
'0:13.270',0.61
'0:13.273',0.27
'0:13.277',0.21
'0:13.281',0.4
'0:13.285',0.72
'0:13.289',0.83
'0:13.293',0.77
'0:13.297',0.44
'0:13.301',0.52
'0:13.305',1.36
'0:13.309',2.89
'0:13.313',5.92
'0:13.316',10.63
'0:13.320',16.02
'0:13.324',20.39
'0:13.328',22.58
'0:13.332',22.36
'0:13.336',18.49
'0:13.340',10.95
'0:13.344',3.27
'0:13.348',-2.02
'0:13.352',-4.93
'0:13.355',-6.52
'0:13.359',-7.15
'0:13.363',-7.46
'0:13.367',-7.67
'0:13.371',-7.97
'0:13.375',-8.06
'0:13.379',-7.8
'0:13.383',-7.3
'0:13.387',-6.91
'0:13.391',-7
'0:13.395',-7
'0:13.398',-6.41
'0:13.402',-5.67
'0:13.406',-5.46
'0:13.410',-5.4
'0:13.414',-5.06
'0:13.418',-4.5
'0:13.422',-4.12
'0:13.426',-4.23
'0:13.430',-4.56
'0:13.434',-4.64
'0:13.438',-4.18
'0:13.441',-3.59
'0:13.445',-3.43
'0:13.449',-3.6
'0:13.453',-3.78
'0:13.457',-3.39
'0:13.461',-2.78
'0:13.465',-2.64
'0:13.469',-2.87
'0:13.473',-3.08
'0:13.477',-2.86
'0:13.480',-2.39
'0:13.484',-2.28
'0:13.488',-2.33
'0:13.492',-2.39
'0:13.496',-2.19
'0:13.500',-1.72
'0:13.504',-1.65
'0:13.508',-1.9
'0:13.512',-1.77
'0:13.516',-1.25
'0:13.520',-0.76
'0:13.523',-0.71
'0:13.527',-0.76
'0:13.531',-0.51
'0:13.535',0.17
'0:13.539',0.96
'0:13.543',1.11
'0:13.547',0.81
'0:13.551',0.55
'0:13.555',0.71
'0:13.559',1.02
'0:13.563',0.97
'0:13.566',0.68
'0:13.570',0.45
'0:13.574',0.56
'0:13.578',0.84
'0:13.582',0.72
'0:13.586',0.19
'0:13.590',-0.38
'0:13.594',-0.52
'0:13.598',-0.38
'0:13.602',-0.65
'0:13.605',-1.25
'0:13.609',-1.66
'0:13.613',-1.73
'0:13.617',-1.61
'0:13.621',-1.77
'0:13.625',-2.19
'0:13.629',-2.45
'0:13.633',-2.33
'0:13.637',-2.11
'0:13.641',-2.13
'0:13.645',-2.05
'0:13.648',-1.29
'0:13.652',0.46
'0:13.656',4.01
'0:13.660',8.99
'0:13.664',14.36
'0:13.668',18.92
'0:13.672',22.3
'0:13.676',23.64
'0:13.680',20.49
'0:13.684',13.04
'0:13.688',5.64
'0:13.691',0.3
'0:13.695',-2.86
'0:13.699',-4.61
'0:13.703',-5.73
'0:13.707',-6.51
'0:13.711',-6.93
'0:13.715',-7.17
'0:13.719',-7.59
'0:13.723',-7.77
'0:13.727',-7.46
'0:13.730',-6.6
'0:13.734',-5.4
'0:13.738',-4.32
'0:13.742',-3.46
'0:13.746',-2.77
'0:13.750',-2.16
'0:13.754',-1.74
'0:13.758',-1.85
'0:13.762',-2.28
'0:13.766',-2.61
'0:13.770',-2.62
'0:13.773',-2.57
'0:13.777',-2.84
'0:13.781',-3.17
'0:13.785',-3.25
'0:13.789',-2.93
'0:13.793',-2.51
'0:13.797',-2.24
'0:13.801',-2.15
'0:13.805',-1.91
'0:13.809',-1.64
'0:13.813',-1.42
'0:13.816',-1.55
'0:13.820',-2.02
'0:13.824',-2.52
'0:13.828',-3.16
'0:13.832',-4.4
'0:13.836',-4.97
'0:13.840',-3.34
'0:13.844',-2.41
'0:13.848',-2.24
'0:13.852',-1.88
'0:13.855',-1.33
'0:13.859',-0.91
'0:13.863',-0.73
'0:13.867',-0.68
'0:13.871',-0.59
'0:13.875',-0.45
'0:13.879',-0.14
'0:13.883',0.23
'0:13.887',0.52
'0:13.891',0.78
'0:13.895',0.76
'0:13.898',0.62
'0:13.902',0.69
'0:13.906',0.92
'0:13.910',0.94
'0:13.914',0.83
'0:13.918',0.77
'0:13.922',0.69
'0:13.926',0.76
'0:13.930',0.61
'0:13.934',0.03
'0:13.938',-0.75
'0:13.941',-1.31
'0:13.945',-1.35
'0:13.949',-1.29
'0:13.953',-1.3
'0:13.957',-1.36
'0:13.961',-1.25
'0:13.965',-0.51
'0:13.969',-0.19
'0:13.973',-0.57
'0:13.977',-1.16
'0:13.980',-1.61
'0:13.984',-1.7
'0:13.988',-1.68
'0:13.992',-1.45
'0:13.996',-0.11
'0:14.000',3.47
'0:14.004',9.19
'0:14.008',15.21
'0:14.012',19.77
'0:14.016',22.55
'0:14.020',23.25
'0:14.023',20.04
'0:14.027',12.43
'0:14.031',4.21
'0:14.035',-0.85
'0:14.039',-3.6
'0:14.043',-4.92
'0:14.047',-5.19
'0:14.051',-5.03
'0:14.055',-4.9
'0:14.059',-4.83
'0:14.063',-4.51
'0:14.066',-3.89
'0:14.070',-3.34
'0:14.074',-2.94
'0:14.078',-2.53
'0:14.082',-2.1
'0:14.086',-1.68
'0:14.090',-1.46
'0:14.094',-1.3
'0:14.098',-0.91
'0:14.102',-0.2
'0:14.105',0.6
'0:14.109',0.9
'0:14.113',0.77
'0:14.117',0.7
'0:14.121',0.98
'0:14.125',1.49
'0:14.129',1.5
'0:14.133',1.21
'0:14.137',1.15
'0:14.141',1.37
'0:14.145',1.81
'0:14.148',2
'0:14.152',1.93
'0:14.156',2.04
'0:14.160',2.39
'0:14.164',2.58
'0:14.168',2.44
'0:14.172',2.09
'0:14.176',1.82
'0:14.180',1.89
'0:14.184',2.03
'0:14.188',1.65
'0:14.191',0.73
'0:14.195',-0.2
'0:14.199',-0.7
'0:14.203',-1.07
'0:14.207',-1.83
'0:14.211',-2.8
'0:14.215',-3.4
'0:14.219',-3.62
'0:14.223',-3.56
'0:14.227',-3.73
'0:14.230',-4.11
'0:14.234',-4.33
'0:14.238',-4.11
'0:14.242',-3.76
'0:14.246',-3.75
'0:14.250',-4
'0:14.254',-4.11
'0:14.258',-3.92
'0:14.262',-3.82
'0:14.266',-4.22
'0:14.270',-4.84
'0:14.273',-5.15
'0:14.277',-4.9
'0:14.281',-4.44
'0:14.285',-4.5
'0:14.289',-4.99
'0:14.293',-5.1
'0:14.297',-4.69
'0:14.301',-4.14
'0:14.305',-3.91
'0:14.309',-3.87
'0:14.313',-3.79
'0:14.316',-3.35
'0:14.320',-2.66
'0:14.324',-2.43
'0:14.328',-2.67
'0:14.332',-2.65
'0:14.336',-1.94
'0:14.340',-0.64
'0:14.344',0.94
'0:14.348',3.5
'0:14.352',7.9
'0:14.355',13.39
'0:14.359',18.31
'0:14.363',21.55
'0:14.367',22.55
'0:14.371',19.89
'0:14.375',13.25
'0:14.379',5.41
'0:14.383',-0.94
'0:14.387',-4.9
'0:14.391',-6.82
'0:14.395',-7.33
'0:14.398',-7.07
'0:14.402',-7.03
'0:14.406',-7.18
'0:14.410',-7.04
'0:14.414',-6.5
'0:14.418',-5.76
'0:14.422',-5.35
'0:14.426',-5.29
'0:14.430',-5.13
'0:14.434',-4.63
'0:14.438',-4.07
'0:14.441',-3.94
'0:14.445',-4.06
'0:14.449',-3.89
'0:14.453',-3.32
'0:14.457',-2.64
'0:14.461',-2.3
'0:14.465',-2.09
'0:14.469',-1.56
'0:14.473',-0.89
'0:14.477',-0.08
'0:14.480',0.53
'0:14.484',0.35
'0:14.488',0.76
'0:14.492',1.79
'0:14.496',2.67
'0:14.500',2.95
'0:14.504',2.92
'0:14.508',3.24
'0:14.512',3.77
'0:14.516',4.25
'0:14.520',4.09
'0:14.523',3.37
'0:14.527',2.62
'0:14.531',2.24
'0:14.535',1.93
'0:14.539',1.23
'0:14.543',0.18
'0:14.547',-0.69
'0:14.551',-0.99
'0:14.555',-0.79
'0:14.559',-0.88
'0:14.563',-1.25
'0:14.566',-1.38
'0:14.570',-1.03
'0:14.574',-0.48
'0:14.578',-0.35
'0:14.582',-0.57
'0:14.586',-0.81
'0:14.590',-0.8
'0:14.594',-0.71
'0:14.598',-0.74
'0:14.602',-0.98
'0:14.605',-1.12
'0:14.609',-1.06
'0:14.613',-0.92
'0:14.617',-1.09
'0:14.621',-1.54
'0:14.625',-2.04
'0:14.629',-2.61
'0:14.633',-2.86
'0:14.637',-3.39
'0:14.641',-4.02
'0:14.645',-4.4
'0:14.648',-4.4
'0:14.652',-4.22
'0:14.656',-4.43
'0:14.660',-4.88
'0:14.664',-5.09
'0:14.668',-4.78
'0:14.672',-4.23
'0:14.676',-4.17
'0:14.680',-4.31
'0:14.684',-3.97
'0:14.688',-2.78
'0:14.691',-0.26
'0:14.695',3.57
'0:14.699',8.32
'0:14.703',12.89
'0:14.707',17
'0:14.711',20.41
'0:14.715',20.42
'0:14.719',15.06
'0:14.723',6.99
'0:14.727',0.52
'0:14.730',-3.33
'0:14.734',-5.44
'0:14.738',-6.68
'0:14.742',-7.12
'0:14.746',-6.92
'0:14.750',-6.39
'0:14.754',-6.02
'0:14.758',-6.02
'0:14.762',-5.89
'0:14.766',-5.44
'0:14.770',-4.74
'0:14.773',-4.26
'0:14.777',-4.19
'0:14.781',-4.2
'0:14.785',-3.96
'0:14.789',-3.46
'0:14.793',-3.18
'0:14.797',-3
'0:14.801',-2.65
'0:14.805',-2.06
'0:14.809',-1.25
'0:14.813',-0.61
'0:14.816',-0.25
'0:14.820',0.12
'0:14.824',0.88
'0:14.828',1.8
'0:14.832',2.46
'0:14.836',2.86
'0:14.840',3.33
'0:14.844',3.92
'0:14.848',4.53
'0:14.852',4.93
'0:14.855',5.07
'0:14.859',5.23
'0:14.863',5.56
'0:14.867',5.89
'0:14.871',5.8
'0:14.875',5.35
'0:14.879',4.98
'0:14.883',4.86
'0:14.887',4.69
'0:14.891',4.15
'0:14.895',3.47
'0:14.898',3.16
'0:14.902',3.21
'0:14.906',3.33
'0:14.910',3.25
'0:14.914',3.05
'0:14.918',3.07
'0:14.922',3.27
'0:14.926',3.55
'0:14.930',3.47
'0:14.934',3.07
'0:14.938',2.62
'0:14.941',2.49
'0:14.945',2.54
'0:14.949',2.31
'0:14.953',1.66
'0:14.957',1.22
'0:14.961',1.12
'0:14.965',1.1
'0:14.969',0.72
'0:14.973',0.02
'0:14.977',-0.58
'0:14.980',-0.84
'0:14.984',-0.92
'0:14.988',-1.38
'0:14.992',-2.05
'0:14.996',-2.53
'0:15.000',-2.59
'0:15.004',-2.32
'0:15.008',-2.35
'0:15.012',-2.75
'0:15.016',-3.14
'0:15.020',-3.29
'0:15.023',-3.13
'0:15.027',-2.74
'0:15.031',-1.75
'0:15.035',0.62
'0:15.039',4.96
'0:15.043',10.52
'0:15.047',15.42
'0:15.051',18.68
'0:15.055',20.09
'0:15.059',18.06
'0:15.063',11.31
'0:15.066',2.46
'0:15.070',-4.69
'0:15.074',-9.1
'0:15.078',-11.39
'0:15.082',-12.43
'0:15.086',-13.1
'0:15.090',-13.48
'0:15.094',-13.16
'0:15.098',-12.12
'0:15.102',-10.62
'0:15.105',-9.3
'0:15.109',-8.4
'0:15.113',-7.5
'0:15.117',-6.34
'0:15.121',-5.02
'0:15.125',-4.21
'0:15.129',-3.97
'0:15.133',-3.77
'0:15.137',-3.32
'0:15.141',-2.68
'0:15.145',-2.36
'0:15.148',-2.52
'0:15.152',-2.73
'0:15.156',-2.82
'0:15.160',-2.71
'0:15.164',-3.06
'0:15.168',-4.27
'0:15.172',-3.57
'0:15.176',-1.52
'0:15.180',-0.14
'0:15.184',0.41
'0:15.188',0.78
'0:15.191',1.5
'0:15.195',2.24
'0:15.199',2.49
'0:15.203',2.12
'0:15.207',1.54
'0:15.211',1.41
'0:15.215',1.69
'0:15.219',1.93
'0:15.223',1.61
'0:15.227',1.03
'0:15.230',0.6
'0:15.234',0.58
'0:15.238',0.82
'0:15.242',0.81
'0:15.246',0.52
'0:15.250',0.33
'0:15.254',0.56
'0:15.258',0.99
'0:15.262',1.03
'0:15.266',0.56
'0:15.270',0.18
'0:15.273',0.33
'0:15.277',0.79
'0:15.281',0.95
'0:15.285',0.81
'0:15.289',0.94
'0:15.293',1.21
'0:15.297',1.57
'0:15.301',1.89
'0:15.305',2.01
'0:15.309',1.42
'0:15.313',1.24
'0:15.316',1.59
'0:15.320',1.6
'0:15.324',1.01
'0:15.328',0.27
'0:15.332',0
'0:15.336',0.22
'0:15.340',0.32
'0:15.344',0.23
'0:15.348',0.34
'0:15.352',0.73
'0:15.355',1.37
'0:15.359',1.62
'0:15.363',1.31
'0:15.367',0.87
'0:15.371',0.95
'0:15.375',2.08
'0:15.379',4.64
'0:15.383',8.61
'0:15.387',13.32
'0:15.391',17.44
'0:15.395',20.17
'0:15.398',20.56
'0:15.402',16.87
'0:15.406',8.42
'0:15.410',0.18
'0:15.414',-3.58
'0:15.418',-5.74
'0:15.422',-7.24
'0:15.426',-7.58
'0:15.430',-6.93
'0:15.434',-5.84
'0:15.438',-5.4
'0:15.441',-5.72
'0:15.445',-6.07
'0:15.449',-5.81
'0:15.453',-5.19
'0:15.457',-4.93
'0:15.461',-5.28
'0:15.465',-5.52
'0:15.469',-5.05
'0:15.473',-4.07
'0:15.477',-3.51
'0:15.480',-3.41
'0:15.484',-3.48
'0:15.488',-3.47
'0:15.492',-3.04
'0:15.496',-2.56
'0:15.500',-2.62
'0:15.504',-2.8
'0:15.508',-2.87
'0:15.512',-2.6
'0:15.516',-2.2
'0:15.520',-1.87
'0:15.523',-1.62
'0:15.527',-1.21
'0:15.531',-0.39
'0:15.535',0.28
'0:15.539',0.48
'0:15.543',0.54
'0:15.547',0.49
'0:15.551',0.52
'0:15.555',0.41
'0:15.559',0.23
'0:15.563',0.06
'0:15.566',0.1
'0:15.570',0.33
'0:15.574',0.51
'0:15.578',0.24
'0:15.582',-0.04
'0:15.586',-0.19
'0:15.590',0.02
'0:15.594',0.2
'0:15.598',0.23
'0:15.602',0.34
'0:15.605',0.63
'0:15.609',1.05
'0:15.613',1.59
'0:15.617',1.82
'0:15.621',1.93
'0:15.625',2.25
'0:15.629',2.95
'0:15.633',3.22
'0:15.637',3.1
'0:15.641',2.98
'0:15.645',2.96
'0:15.648',3.04
'0:15.652',2.97
'0:15.656',2.37
'0:15.660',1.48
'0:15.664',0.85
'0:15.668',0.71
'0:15.672',0.55
'0:15.676',0.26
'0:15.680',-0.22
'0:15.684',-0.44
'0:15.688',-0.11
'0:15.691',0.13
'0:15.695',0.06
'0:15.699',-0.02
'0:15.703',-0.02
'0:15.707',0.14
'0:15.711',0.8
'0:15.715',1.54
'0:15.719',2.7
'0:15.723',5.19
'0:15.727',9.61
'0:15.730',15.01
'0:15.734',19.61
'0:15.738',22.71
'0:15.742',23.61
'0:15.746',21.42
'0:15.750',14.8
'0:15.754',6.27
'0:15.758',0
'0:15.762',-3.58
'0:15.766',-5.03
'0:15.770',-5.65
'0:15.773',-6.14
'0:15.777',-6.35
'0:15.781',-6.2
'0:15.785',-5.74
'0:15.789',-5.2
'0:15.793',-5.17
'0:15.797',-5.22
'0:15.801',-5.17
'0:15.805',-4.95
'0:15.809',-4.66
'0:15.813',-4.68
'0:15.816',-4.81
'0:15.820',-4.78
'0:15.824',-4.52
'0:15.828',-4.31
'0:15.832',-4.31
'0:15.836',-4.35
'0:15.840',-4.61
'0:15.844',-4.44
'0:15.848',-4.31
'0:15.852',-4.62
'0:15.855',-4.49
'0:15.859',-3.92
'0:15.863',-3.14
'0:15.867',-2.68
'0:15.871',-2.67
'0:15.875',-2.83
'0:15.879',-2.74
'0:15.883',-2.38
'0:15.887',-2.37
'0:15.891',-2.78
'0:15.895',-3.04
'0:15.898',-3.01
'0:15.902',-2.57
'0:15.906',-2.2
'0:15.910',-1.97
'0:15.914',-1.76
'0:15.918',-1.56
'0:15.922',-1.41
'0:15.926',-1.4
'0:15.930',-1.64
'0:15.934',-1.68
'0:15.938',-1.37
'0:15.941',-0.78
'0:15.945',0.05
'0:15.949',-0.17
'0:15.953',-0.55
'0:15.957',-0.18
'0:15.961',0.54
'0:15.965',0.98
'0:15.969',0.77
'0:15.973',0.61
'0:15.977',0.82
'0:15.980',1.16
'0:15.984',1.23
'0:15.988',0.82
'0:15.992',0.38
'0:15.996',0.15
'0:16.000',0.27
'0:16.004',0.28
'0:16.008',-0.31
'0:16.012',-1.05
'0:16.016',-1.36
'0:16.020',-1.16
'0:16.023',-1.06
'0:16.027',-1.47
'0:16.031',-1.89
'0:16.035',-2.02
'0:16.039',-1.6
'0:16.043',-1.06
'0:16.047',-1.32
'0:16.051',-1.76
'0:16.055',-1.74
'0:16.059',-1.02
'0:16.063',0.39
'0:16.066',2.53
'0:16.070',6.45
'0:16.074',11.9
'0:16.078',17.31
'0:16.082',21.12
'0:16.086',22.56
'0:16.090',20.59
'0:16.094',14.22
'0:16.098',5.87
'0:16.102',-0.77
'0:16.105',-4.8
'0:16.109',-6.76
'0:16.113',-7.61
'0:16.117',-7.7
'0:16.121',-7.62
'0:16.125',-7.67
'0:16.129',-7.65
'0:16.133',-7.48
'0:16.137',-7.01
'0:16.141',-6.39
'0:16.145',-6.21
'0:16.148',-6.09
'0:16.152',-5.93
'0:16.156',-5.71
'0:16.160',-5.2
'0:16.164',-4.83
'0:16.168',-4.64
'0:16.172',-4.14
'0:16.176',-3.29
'0:16.180',-2.64
'0:16.184',-2.48
'0:16.188',-2.23
'0:16.191',-1.87
'0:16.195',-1.43
'0:16.199',-0.89
'0:16.203',-0.72
'0:16.207',-0.94
'0:16.211',-0.83
'0:16.215',-0.19
'0:16.219',0.2
'0:16.223',0.02
'0:16.227',-0.26
'0:16.230',-0.5
'0:16.234',-0.44
'0:16.238',-0.32
'0:16.242',-0.98
'0:16.246',-1.26
'0:16.250',-1.13
'0:16.254',-1.1
'0:16.258',-1.21
'0:16.262',-1.57
'0:16.266',-1.87
'0:16.270',-1.95
'0:16.273',-1.95
'0:16.277',-0.74
'0:16.281',-0.45
'0:16.285',-0.09
'0:16.289',-0.09
'0:16.293',-0.09
'0:16.297',0.93
'0:16.301',0.89
'0:16.305',0.81
'0:16.309',0.81
'0:16.313',0.97
'0:16.316',1.05
'0:16.320',0.98
'0:16.324',0.98
'0:16.328',0.98
'0:16.332',0.98
'0:16.336',0.77
'0:16.340',0.35
'0:16.344',0.35
'0:16.348',0.35
'0:16.352',-0.81
'0:16.355',-1.09
'0:16.359',-1.36
'0:16.363',-1.57
'0:16.367',-1.68
'0:16.371',-1.72
'0:16.375',-1.91
'0:16.379',-2.24
'0:16.383',-2.5
'0:16.387',-2.6
'0:16.391',-2.61
'0:16.395',-2.44
'0:16.398',-2.34
'0:16.402',-1.86
'0:16.406',-0.64
'0:16.410',2.09
'0:16.414',6.57
'0:16.418',11.97
'0:16.422',16.87
'0:16.426',20.58
'0:16.430',22.74
'0:16.434',21.89
'0:16.438',16.36
'0:16.441',8.18
'0:16.445',1.46
'0:16.449',-2.45
'0:16.453',-4.65
'0:16.457',-5.98
'0:16.461',-6.45
'0:16.465',-6.3
'0:16.469',-5.78
'0:16.473',-5.64
'0:16.477',-5.68
'0:16.480',-5.53
'0:16.484',-5.11
'0:16.488',-4.42
'0:16.492',-3.69
'0:16.496',-3.2
'0:16.500',-2.64
'0:16.504',-1.9
'0:16.508',-1.04
'0:16.512',-0.56
'0:16.516',-0.46
'0:16.520',-0.29
'0:16.523',0.09
'0:16.527',0.55
'0:16.531',0.72
'0:16.535',0.6
'0:16.539',0.54
'0:16.543',0.77
'0:16.547',1.17
'0:16.551',1.2
'0:16.555',0.8
'0:16.559',0.47
'0:16.563',0.44
'0:16.566',0.82
'0:16.570',1.16
'0:16.574',1.52
'0:16.578',1.86
'0:16.582',2.44
'0:16.586',3.08
'0:16.590',3.49
'0:16.594',3.36
'0:16.598',3.02
'0:16.602',2.76
'0:16.605',2.62
'0:16.609',1.77
'0:16.613',0.23
'0:16.617',-0.99
'0:16.621',-1.62
'0:16.625',-1.89
'0:16.629',-2.31
'0:16.633',-3.04
'0:16.637',-3.68
'0:16.641',-4.03
'0:16.645',-3.18
'0:16.648',-2.71
'0:16.652',-3.1
'0:16.656',-3.48
'0:16.660',-3.4
'0:16.664',-3.03
'0:16.668',-3.24
'0:16.672',-4.13
'0:16.676',-4.62
'0:16.680',-4.31
'0:16.684',-3.44
'0:16.688',-2.84
'0:16.691',-2.93
'0:16.695',-3.23
'0:16.699',-3.03
'0:16.703',-2.36
'0:16.707',-1.93
'0:16.711',-2.13
'0:16.715',-2.45
'0:16.719',-2.37
'0:16.723',-1.88
'0:16.727',-1.56
'0:16.730',-1.58
'0:16.734',-1.72
'0:16.738',-1.66
'0:16.742',-1.13
'0:16.746',-0.38
'0:16.750',0.67
'0:16.754',2.94
'0:16.758',7.13
'0:16.762',12.88
'0:16.766',18.04
'0:16.770',21.19
'0:16.773',22.71
'0:16.777',21.68
'0:16.781',16.64
'0:16.785',8.5
'0:16.789',1.05
'0:16.793',-3.74
'0:16.797',-6.22
'0:16.801',-7.15
'0:16.805',-7.45
'0:16.809',-7.78
'0:16.813',-7.96
'0:16.816',-7.82
'0:16.820',-7.41
'0:16.824',-7.07
'0:16.828',-7.11
'0:16.832',-7.02
'0:16.836',-6.31
'0:16.840',-5.5
'0:16.844',-4.86
'0:16.848',-4.42
'0:16.852',-3.89
'0:16.855',-3.03
'0:16.859',-1.48
'0:16.863',-0.36
'0:16.867',0.12
'0:16.871',0.55
'0:16.875',1.01
'0:16.879',1.39
'0:16.883',1.3
'0:16.887',0.78
'0:16.891',0.56
'0:16.895',0.88
'0:16.898',1.62
'0:16.902',1.67
'0:16.906',1.16
'0:16.910',0.79
'0:16.914',0.71
'0:16.918',0.78
'0:16.922',0.48
'0:16.926',-0.31
'0:16.930',-1.19
'0:16.934',-1.37
'0:16.938',-0.93
'0:16.941',-1.11
'0:16.945',-1.9
'0:16.949',-2.39
'0:16.953',-2.44
'0:16.957',-2.13
'0:16.961',-2.04
'0:16.965',-1.98
'0:16.969',-1.48
'0:16.973',-0.48
'0:16.977',0.81
'0:16.980',1.57
'0:16.984',1.78
'0:16.988',1.87
'0:16.992',2.17
'0:16.996',2.7
'0:17.000',2.72
'0:17.004',2.14
'0:17.008',1.55
'0:17.012',1.42
'0:17.016',1.56
'0:17.020',1.22
'0:17.023',0.35
'0:17.027',-0.56
'0:17.031',-1.21
'0:17.035',-1.46
'0:17.039',-2.26
'0:17.043',-3.78
'0:17.047',-5.7
'0:17.051',-6.31
'0:17.055',-4.49
'0:17.059',-3.49
'0:17.063',-3.64
'0:17.066',-3.73
'0:17.070',-3.09
'0:17.074',-1.98
'0:17.078',-1.5
'0:17.082',-2.02
'0:17.086',-2.55
'0:17.090',-2.31
'0:17.094',-1.3
'0:17.098',0.08
'0:17.102',2.45
'0:17.105',6.82
'0:17.109',12.53
'0:17.113',17.67
'0:17.117',21.21
'0:17.121',22.33
'0:17.125',20.04
'0:17.129',13.72
'0:17.133',5.85
'0:17.137',-0.52
'0:17.141',-4.68
'0:17.145',-7.11
'0:17.148',-8.19
'0:17.152',-8.28
'0:17.156',-8.18
'0:17.160',-8.31
'0:17.164',-8.45
'0:17.168',-8.32
'0:17.172',-7.86
'0:17.176',-7.36
'0:17.180',-7.07
'0:17.184',-6.73
'0:17.188',-6.15
'0:17.191',-5.5
'0:17.195',-5
'0:17.199',-4.75
'0:17.203',-4.66
'0:17.207',-4.3
'0:17.211',-3.67
'0:17.215',-3.11
'0:17.219',-2.67
'0:17.223',-2.11
'0:17.227',-1.19
'0:17.230',-0.28
'0:17.234',0.47
'0:17.238',1.15
'0:17.242',2.02
'0:17.246',3.04
'0:17.250',4.11
'0:17.254',4.87
'0:17.258',5.28
'0:17.262',5.41
'0:17.266',5.6
'0:17.270',5.99
'0:17.273',5.93
'0:17.277',5.56
'0:17.281',5.16
'0:17.285',4.98
'0:17.289',5.02
'0:17.293',4.84
'0:17.297',4.32
'0:17.301',3.96
'0:17.305',3.94
'0:17.309',4.05
'0:17.313',3.94
'0:17.316',3.47
'0:17.320',3.13
'0:17.324',3.19
'0:17.328',3.36
'0:17.332',3.36
'0:17.336',3.03
'0:17.340',2.76
'0:17.344',2.66
'0:17.348',2.64
'0:17.352',2.47
'0:17.355',2
'0:17.359',1.78
'0:17.363',1.92
'0:17.367',2.24
'0:17.371',2.18
'0:17.375',1.64
'0:17.379',1.11
'0:17.383',0.76
'0:17.387',0.57
'0:17.391',0
'0:17.395',-0.83
'0:17.398',-1.58
'0:17.402',-2.11
'0:17.406',-2.55
'0:17.410',-3.27
'0:17.414',-4.36
'0:17.418',-5.24
'0:17.422',-5.64
'0:17.426',-5.81
'0:17.430',-6.22
'0:17.434',-7.08
'0:17.438',-7.57
'0:17.441',-6.94
'0:17.445',-5.31
'0:17.449',-2.73
'0:17.453',1.1
'0:17.457',6.01
'0:17.461',10.76
'0:17.465',14.37
'0:17.469',15.86
'0:17.473',13.97
'0:17.477',8.21
'0:17.480',0.98
'0:17.484',-4.33
'0:17.488',-7.39
'0:17.492',-9.1
'0:17.496',-9.94
'0:17.500',-10.05
'0:17.504',-9.44
'0:17.508',-8.76
'0:17.512',-8.59
'0:17.516',-8.55
'0:17.520',-8.07
'0:17.523',-7.14
'0:17.527',-6.28
'0:17.531',-5.92
'0:17.535',-5.64
'0:17.539',-5.06
'0:17.543',-4.25
'0:17.547',-3.8
'0:17.551',-3.97
'0:17.555',-4.17
'0:17.559',-4.07
'0:17.563',-3.76
'0:17.566',-3.97
'0:17.570',-3.91
'0:17.574',-2.92
'0:17.578',-2.02
'0:17.582',-1.09
'0:17.586',-0.28
'0:17.590',0.15
'0:17.594',0.32
'0:17.598',0.54
'0:17.602',0.92
'0:17.605',1.17
'0:17.609',0.98
'0:17.613',0.88
'0:17.617',1.02
'0:17.621',1.38
'0:17.625',1.5
'0:17.629',1.13
'0:17.633',0.8
'0:17.637',0.66
'0:17.641',0.69
'0:17.645',0.52
'0:17.648',-0.11
'0:17.652',-0.52
'0:17.656',-0.4
'0:17.660',0.05
'0:17.664',0.22
'0:17.668',-0.07
'0:17.672',-0.26
'0:17.676',0.07
'0:17.680',1.01
'0:17.684',0.94
'0:17.688',0.5
'0:17.691',0.64
'0:17.695',1.04
'0:17.699',1.64
'0:17.703',1.95
'0:17.707',1.93
'0:17.711',2.09
'0:17.715',2.38
'0:17.719',2.66
'0:17.723',2.68
'0:17.727',2.21
'0:17.730',1.71
'0:17.734',1.49
'0:17.738',1.4
'0:17.742',1.03
'0:17.746',0.31
'0:17.750',-0.27
'0:17.754',-0.53
'0:17.758',-0.27
'0:17.762',-0.21
'0:17.766',-0.61
'0:17.770',-1.06
'0:17.773',-1.16
'0:17.777',-1
'0:17.781',-1.04
'0:17.785',-1.34
'0:17.789',-1.25
'0:17.793',0.05
'0:17.797',3.52
'0:17.801',8.69
'0:17.805',14.03
'0:17.809',18.32
'0:17.813',21.29
'0:17.816',22.54
'0:17.820',19.69
'0:17.824',11.8
'0:17.828',2.51
'0:17.832',-4.24
'0:17.836',-7.83
'0:17.840',-9.59
'0:17.844',-10.87
'0:17.848',-11.95
'0:17.852',-11.45
'0:17.855',-10.04
'0:17.859',-9.03
'0:17.863',-8.46
'0:17.867',-7.9
'0:17.871',-7.08
'0:17.875',-6.11
'0:17.879',-5.32
'0:17.883',-5.1
'0:17.887',-4.97
'0:17.891',-4.49
'0:17.895',-3.65
'0:17.898',-3.03
'0:17.902',-2.85
'0:17.906',-2.75
'0:17.910',-2.37
'0:17.914',-1.71
'0:17.918',-1.17
'0:17.922',-0.93
'0:17.926',-0.73
'0:17.930',-0.49
'0:17.934',-0.2
'0:17.938',0.05
'0:17.941',0.15
'0:17.945',0.22
'0:17.949',0.58
'0:17.953',1.19
'0:17.957',1.65
'0:17.961',1.59
'0:17.965',1.34
'0:17.969',1.31
'0:17.973',1.36
'0:17.977',1.2
'0:17.980',0.67
'0:17.984',0.13
'0:17.988',0
'0:17.992',0.18
'0:17.996',0.4
'0:18.000',0.35
'0:18.004',0.52
'0:18.008',0.85
'0:18.012',1.43
'0:18.016',1.73
'0:18.020',1.54
'0:18.023',1.47
'0:18.027',1.74
'0:18.031',2.41
'0:18.035',3.07
'0:18.039',3.27
'0:18.043',3.15
'0:18.047',3.29
'0:18.051',3.75
'0:18.055',4.17
'0:18.059',4.24
'0:18.063',4.08
'0:18.066',4.07
'0:18.070',4.31
'0:18.074',4.13
'0:18.078',3.26
'0:18.082',2.38
'0:18.086',1.9
'0:18.090',1.93
'0:18.094',1.93
'0:18.098',1.5
'0:18.102',1.01
'0:18.105',0.72
'0:18.109',0.85
'0:18.113',0.95
'0:18.117',0.64
'0:18.121',0.38
'0:18.125',0.3
'0:18.129',0.56
'0:18.133',0.94
'0:18.137',1.66
'0:18.141',3.63
'0:18.145',7.37
'0:18.148',12.3
'0:18.152',17.13
'0:18.156',20.47
'0:18.160',21.79
'0:18.164',19.92
'0:18.168',13.89
'0:18.172',5.83
'0:18.176',-0.59
'0:18.180',-4.37
'0:18.184',-6.15
'0:18.188',-6.93
'0:18.191',-7.43
'0:18.195',-7.91
'0:18.199',-8.01
'0:18.203',-7.55
'0:18.207',-6.75
'0:18.211',-6.18
'0:18.215',-6.12
'0:18.219',-6.07
'0:18.223',-5.9
'0:18.227',-5.41
'0:18.230',-4.94
'0:18.234',-4.82
'0:18.238',-4.7
'0:18.242',-4.35
'0:18.246',-3.42
'0:18.250',-2.3
'0:18.254',-1.78
'0:18.258',-1.56
'0:18.262',-1.5
'0:18.266',-1.17
'0:18.270',-0.81
'0:18.273',-0.78
'0:18.277',-0.92
'0:18.281',-1.19
'0:18.285',-1.39
'0:18.289',-1.84
'0:18.293',-2.81
'0:18.297',-4.11
'0:18.301',-5.13
'0:18.305',-5.92
'0:18.309',-7.14
'0:18.313',-8.63
'0:18.316',-7.37
'0:18.320',-5.89
'0:18.324',-5.07
'0:18.328',-4.37
'0:18.332',-3.76
'0:18.336',-3.05
'0:18.340',-2.66
'0:18.344',-2.3
'0:18.348',-1.95
'0:18.352',-1.7
'0:18.355',-1
'0:18.359',-0.11
'0:18.363',0.67
'0:18.367',1.03
'0:18.371',0.9
'0:18.375',0.86
'0:18.379',0.98
'0:18.383',1.1
'0:18.387',1.14
'0:18.391',0.86
'0:18.395',0.52
'0:18.398',0.54
'0:18.402',0.9
'0:18.406',1.17
'0:18.410',0.81
'0:18.414',0.19
'0:18.418',-0.35
'0:18.422',-0.39
'0:18.426',-0.29
'0:18.430',-0.7
'0:18.434',-1.26
'0:18.438',-1.5
'0:18.441',-1.51
'0:18.445',-1.41
'0:18.449',-1.48
'0:18.453',-1.8
'0:18.457',-1.88
'0:18.461',-1.65
'0:18.465',-1.46
'0:18.469',-1.72
'0:18.473',-1.89
'0:18.477',-1.27
'0:18.480',0.6
'0:18.484',4.06
'0:18.488',8.86
'0:18.492',14.16
'0:18.496',19.23
'0:18.500',23.03
'0:18.504',24.2
'0:18.508',20.69
'0:18.512',12.84
'0:18.516',4.65
'0:18.520',-0.64
'0:18.523',-3.15
'0:18.527',-4.52
'0:18.531',-5.47
'0:18.535',-6.1
'0:18.539',-6.36
'0:18.543',-6.52
'0:18.547',-7
'0:18.551',-6.94
'0:18.555',-6.62
'0:18.559',-6.18
'0:18.563',-5.75
'0:18.566',-5.36
'0:18.570',-4.9
'0:18.574',-4.41
'0:18.578',-3.78
'0:18.582',-3.13
'0:18.586',-2.75
'0:18.590',-2.46
'0:18.594',-2.13
'0:18.598',-1.44
'0:18.602',-0.75
'0:18.605',-0.55
'0:18.609',-0.48
'0:18.613',-0.33
'0:18.617',0.09
'0:18.621',0.43
'0:18.625',0.29
'0:18.629',-0.02
'0:18.633',-0.06
'0:18.637',0.15
'0:18.641',0.34
'0:18.645',0.2
'0:18.648',-0.04
'0:18.652',-0.11
'0:18.656',0.13
'0:18.660',0.33
'0:18.664',0.03
'0:18.668',-0.29
'0:18.672',-0.43
'0:18.676',-0.47
'0:18.680',-0.63
'0:18.684',-1.07
'0:18.688',-1.4
'0:18.691',-1.33
'0:18.695',-0.89
'0:18.699',-0.31
'0:18.703',-0.09
'0:18.707',-0.09
'0:18.711',0.01
'0:18.715',0.26
'0:18.719',0.68
'0:18.723',0.83
'0:18.727',0.43
'0:18.730',0.25
'0:18.734',0.54
'0:18.738',1.17
'0:18.742',1.32
'0:18.746',0.95
'0:18.750',0.2
'0:18.754',-0.07
'0:18.758',-0.12
'0:18.762',-0.35
'0:18.766',-0.6
'0:18.770',-0.82
'0:18.773',-0.84
'0:18.777',-0.82
'0:18.781',-1.21
'0:18.785',-1.97
'0:18.789',-2.91
'0:18.793',-3.28
'0:18.797',-2.65
'0:18.801',-2.36
'0:18.805',-2.51
'0:18.809',-2.66
'0:18.813',-2.24
'0:18.816',-1.38
'0:18.820',-0.68
'0:18.824',0.1
'0:18.828',2.27
'0:18.832',6.72
'0:18.836',12.46
'0:18.840',17.62
'0:18.844',21.16
'0:18.848',22.93
'0:18.852',21.86
'0:18.855',16.53
'0:18.859',8.69
'0:18.863',2.07
'0:18.867',-2.06
'0:18.871',-4.1
'0:18.875',-4.94
'0:18.879',-5.43
'0:18.883',-5.6
'0:18.887',-5.36
'0:18.891',-4.84
'0:18.895',-4.16
'0:18.898',-3.68
'0:18.902',-3.66
'0:18.906',-3.55
'0:18.910',-2.92
'0:18.914',-2.05
'0:18.918',-1.48
'0:18.922',-1.29
'0:18.926',-1.17
'0:18.930',-0.67
'0:18.934',0.02
'0:18.938',0.38
'0:18.941',0.66
'0:18.945',0.88
'0:18.949',1.22
'0:18.953',1.7
'0:18.957',2.17
'0:18.961',1.98
'0:18.965',1.8
'0:18.969',2.1
'0:18.973',2.36
'0:18.977',2.34
'0:18.980',2.15
'0:18.984',2.2
'0:18.988',2.74
'0:18.992',3.36
'0:18.996',3.49
'0:19.000',3.15
'0:19.004',2.83
'0:19.008',2.87
'0:19.012',2.88
'0:19.016',2.44
'0:19.020',1.82
'0:19.023',1.18
'0:19.027',0.9
'0:19.031',0.44
'0:19.035',-0.5
'0:19.039',-1.32
'0:19.043',-1.72
'0:19.047',-1.82
'0:19.051',-2.08
'0:19.055',-2.75
'0:19.059',-3.49
'0:19.063',-3.99
'0:19.066',-3.94
'0:19.070',-3.8
'0:19.074',-4.21
'0:19.078',-4.7
'0:19.082',-4.68
'0:19.086',-4.56
'0:19.090',-4.78
'0:19.094',-5.6
'0:19.098',-6.38
'0:19.102',-6.55
'0:19.105',-6.31
'0:19.109',-6.17
'0:19.113',-6.63
'0:19.117',-7.31
'0:19.121',-7.44
'0:19.125',-6.75
'0:19.129',-5.99
'0:19.133',-5.72
'0:19.137',-5.57
'0:19.141',-5.09
'0:19.145',-4.25
'0:19.148',-3.45
'0:19.152',-3.19
'0:19.156',-3.29
'0:19.160',-3.01
'0:19.164',-1.93
'0:19.168',-0.28
'0:19.172',1.8
'0:19.176',5.38
'0:19.180',10.83
'0:19.184',16.84
'0:19.188',21.44
'0:19.191',23.84
'0:19.195',23.76
'0:19.199',20.19
'0:19.203',13.02
'0:19.207',4.88
'0:19.211',-1.47
'0:19.215',-5.51
'0:19.219',-7.55
'0:19.223',-8.18
'0:19.227',-8.14
'0:19.230',-8.28
'0:19.234',-8.37
'0:19.238',-8.23
'0:19.242',-7.59
'0:19.246',-6.96
'0:19.250',-6.6
'0:19.254',-6.58
'0:19.258',-6.43
'0:19.262',-5.61
'0:19.266',-4.84
'0:19.270',-4.56
'0:19.273',-4.48
'0:19.277',-4.2
'0:19.281',-3.5
'0:19.285',-3.03
'0:19.289',-2.95
'0:19.293',-2.96
'0:19.297',-2.79
'0:19.301',-2.14
'0:19.305',-1.27
'0:19.309',-0.8
'0:19.313',-0.61
'0:19.316',-0.24
'0:19.320',0.44
'0:19.324',1.17
'0:19.328',1.39
'0:19.332',1.3
'0:19.336',1.39
'0:19.340',1.9
'0:19.344',2.49
'0:19.348',2.49
'0:19.352',1.94
'0:19.355',1.27
'0:19.359',0.86
'0:19.363',0.68
'0:19.367',0.17
'0:19.371',-0.58
'0:19.375',-0.97
'0:19.379',-0.99
'0:19.383',-0.73
'0:19.387',-0.65
'0:19.391',-0.79
'0:19.395',-0.78
'0:19.398',-0.39
'0:19.402',0.08
'0:19.406',0.05
'0:19.410',-0.29
'0:19.414',-0.29
'0:19.418',0.2
'0:19.422',0.78
'0:19.426',0.76
'0:19.430',0.61
'0:19.434',0.69
'0:19.438',0.95
'0:19.441',1.12
'0:19.445',0.87
'0:19.449',0.41
'0:19.453',0.05
'0:19.457',-0.13
'0:19.461',-0.51
'0:19.465',-1.35
'0:19.469',-2.44
'0:19.473',-3.45
'0:19.477',-3.89
'0:19.480',-4.19
'0:19.484',-4.86
'0:19.488',-5.79
'0:19.492',-6.01
'0:19.496',-5.4
'0:19.500',-4.96
'0:19.504',-4.92
'0:19.508',-5.03
'0:19.512',-4.47
'0:19.516',-2.85
'0:19.520',-0.5
'0:19.523',3.05
'0:19.527',8.07
