'0:00.000',3.37
'0:00.004',3.66
'0:00.008',3.81
'0:00.012',3.76
'0:00.016',3.54
'0:00.020',3.43
'0:00.023',3.17
'0:00.027',2.79
'0:00.031',2.63
'0:00.035',2.25
'0:00.039',1.83
'0:00.043',1.54
'0:00.047',1.05
'0:00.051',0.59
'0:00.055',0.01
'0:00.059',-0.33
'0:00.063',-0.39
'0:00.066',-0.39
'0:00.070',-0.29
'0:00.074',-0.21
'0:00.078',-0.36
'0:00.082',-0.4
'0:00.086',-0.39
'0:00.090',-0.19
'0:00.094',0.05
'0:00.098',0.25
'0:00.102',0.35
'0:00.105',0.25
'0:00.109',-0.1
'0:00.113',-0.43
'0:00.117',-0.6
'0:00.121',-0.36
'0:00.125',-0.09
'0:00.129',-0.09
'0:00.133',0.07
'0:00.137',0.15
'0:00.141',0.03
'0:00.145',-0.21
'0:00.148',-0.4
'0:00.152',-0.97
'0:00.156',-1.69
'0:00.160',-2.24
'0:00.164',-2.46
'0:00.168',-2.65
'0:00.172',-3.11
'0:00.176',-3.46
'0:00.180',-3.63
'0:00.184',-3.53
'0:00.188',-3.38
'0:00.191',-3.39
'0:00.195',-3.51
'0:00.199',-3.68
'0:00.203',-3.87
'0:00.207',-4.14
'0:00.211',-4.65
'0:00.215',-4.43
'0:00.219',-3.13
'0:00.223',-0.71
'0:00.227',2.73
'0:00.230',5.87
'0:00.234',7.99
'0:00.238',8.47
'0:00.242',6.05
'0:00.246',2.1
'0:00.250',-1.69
'0:00.254',-4.36
'0:00.258',-5.59
'0:00.262',-5.65
'0:00.266',-5.08
'0:00.270',-4.37
'0:00.273',-3.64
'0:00.277',-3.04
'0:00.281',-2.56
'0:00.285',-1.89
'0:00.289',-1.63
'0:00.293',-1.75
'0:00.297',-1.51
'0:00.301',-1.07
'0:00.305',-0.54
'0:00.309',0.12
'0:00.313',0.65
'0:00.316',0.79
'0:00.320',0.92
'0:00.324',1.04
'0:00.328',0.96
'0:00.332',1.05
'0:00.336',1.37
'0:00.340',1.65
'0:00.344',1.92
'0:00.348',2.26
'0:00.352',2.41
'0:00.355',2.49
'0:00.359',2.58
'0:00.363',2.87
'0:00.367',3.26
'0:00.371',3.46
'0:00.375',3.41
'0:00.379',3.06
'0:00.383',2.63
'0:00.387',2.37
'0:00.391',2.12
'0:00.395',1.72
'0:00.398',1.33
'0:00.402',1.08
'0:00.406',0.95
'0:00.410',0.68
'0:00.414',0.32
'0:00.418',-0.02
'0:00.422',-0.21
'0:00.426',-0.47
'0:00.430',-0.68
'0:00.434',-0.46
'0:00.438',-0.08
'0:00.441',0.34
'0:00.445',0.47
'0:00.449',0.46
'0:00.453',0.4
'0:00.457',0.25
'0:00.461',0.18
'0:00.465',0.15
'0:00.469',0.32
'0:00.473',0.59
'0:00.477',0.83
'0:00.480',1.08
'0:00.484',1.31
'0:00.488',1.42
'0:00.492',1.22
'0:00.496',0.74
'0:00.500',0.01
'0:00.504',-0.58
'0:00.508',-1.04
'0:00.512',-1.45
'0:00.516',-1.92
'0:00.520',-2.21
'0:00.523',-2.29
'0:00.527',-2.38
'0:00.531',-2.46
'0:00.535',-2.53
'0:00.539',-2.73
'0:00.543',-2.75
'0:00.547',-2.72
'0:00.551',-2.99
'0:00.555',-3.16
'0:00.559',-3.26
'0:00.563',-3.17
'0:00.566',-2.73
'0:00.570',-1.57
'0:00.574',0.75
'0:00.578',3.5
'0:00.582',5.36
'0:00.586',6.09
'0:00.590',4.96
'0:00.594',2.01
'0:00.598',-0.87
'0:00.602',-2.73
'0:00.605',-3.74
'0:00.609',-4.28
'0:00.613',-4.16
'0:00.617',-3.47
'0:00.621',-2.45
'0:00.625',-1.75
'0:00.629',-1.03
'0:00.633',-0.13
'0:00.637',0.33
'0:00.641',0.49
'0:00.645',0.65
'0:00.648',0.54
'0:00.652',0.61
'0:00.656',1.2
'0:00.660',1.57
'0:00.664',1.77
'0:00.668',1.66
'0:00.672',1.2
'0:00.676',0.91
'0:00.680',1.05
'0:00.684',1.68
'0:00.688',2.53
'0:00.691',3.14
'0:00.695',3.31
'0:00.699',3.46
'0:00.703',3.64
'0:00.707',3.96
'0:00.711',4.48
'0:00.715',4.6
'0:00.719',4.35
'0:00.723',4.24
'0:00.727',4.25
'0:00.730',4.17
'0:00.734',3.87
'0:00.738',3.45
'0:00.742',2.72
'0:00.746',1.87
'0:00.750',1.58
'0:00.754',1.49
'0:00.758',1.25
'0:00.762',0.96
'0:00.766',0.73
'0:00.770',0.61
'0:00.773',0.15
'0:00.777',-0.4
'0:00.781',-0.36
'0:00.785',0.22
'0:00.789',0.56
'0:00.793',0.49
'0:00.797',0.25
'0:00.801',0.18
'0:00.805',0.43
'0:00.809',0.56
'0:00.813',0.58
'0:00.816',0.54
'0:00.820',0.53
'0:00.824',0.44
'0:00.828',0.23
'0:00.832',0.02
'0:00.836',-0.14
'0:00.840',-0.34
'0:00.844',-0.6
'0:00.848',-0.78
'0:00.852',-1.02
'0:00.855',-1.53
'0:00.859',-2.04
'0:00.863',-2.41
'0:00.867',-2.7
'0:00.871',-2.94
'0:00.875',-3.22
'0:00.879',-3.43
'0:00.883',-3.5
'0:00.887',-3.42
'0:00.891',-3.27
'0:00.895',-3.22
'0:00.898',-3.52
'0:00.902',-3.96
'0:00.906',-4.26
'0:00.910',-4.31
'0:00.914',-3.78
'0:00.918',-2.44
'0:00.922',-0.31
'0:00.926',1.74
'0:00.930',2.69
'0:00.934',2.61
'0:00.938',0.89
'0:00.941',-2.1
'0:00.945',-4.48
'0:00.949',-5.9
'0:00.953',-6.3
'0:00.957',-5.93
'0:00.961',-5.17
'0:00.965',-4.25
'0:00.969',-3.36
'0:00.973',-2.69
'0:00.977',-2.29
'0:00.980',-1.86
'0:00.984',-1.42
'0:00.988',-1.1
'0:00.992',-1
'0:00.996',-0.82
'0:01.000',-0.46
'0:01.004',-0.1
'0:01.008',0.14
'0:01.012',0.27
'0:01.016',0.49
'0:01.020',0.69
'0:01.023',1.01
'0:01.027',1.53
'0:01.031',1.99
'0:01.035',2.22
'0:01.039',2.58
'0:01.043',3
'0:01.047',3.45
'0:01.051',3.8
'0:01.055',4.14
'0:01.059',4.38
'0:01.063',4.61
'0:01.066',4.82
'0:01.070',4.83
'0:01.074',4.27
'0:01.078',3.59
'0:01.082',2.81
'0:01.086',2.23
'0:01.090',1.95
'0:01.094',1.57
'0:01.098',1.06
'0:01.102',0.6
'0:01.105',0.2
'0:01.109',-0.04
'0:01.113',-0.23
'0:01.117',-0.27
'0:01.121',-0.34
'0:01.125',-0.34
'0:01.129',-0.32
'0:01.133',-0.17
'0:01.137',0
'0:01.141',0.17
'0:01.145',0.23
'0:01.148',0.05
'0:01.152',-0.13
'0:01.156',-0.02
'0:01.160',0.1
'0:01.164',-0.16
'0:01.168',-0.2
'0:01.172',-0.09
'0:01.176',-0.05
'0:01.180',0.03
'0:01.184',0.02
'0:01.188',-0.09
'0:01.191',-0.08
'0:01.195',0.03
'0:01.199',0.12
'0:01.203',-0.22
'0:01.207',-0.84
'0:01.211',-1.36
'0:01.215',-1.94
'0:01.219',-2.41
'0:01.223',-2.77
'0:01.227',-3.06
'0:01.230',-3.17
'0:01.234',-3.38
'0:01.238',-3.29
'0:01.242',-3.24
'0:01.246',-3.43
'0:01.250',-3.7
'0:01.254',-4.11
'0:01.258',-4.22
'0:01.262',-4.1
'0:01.266',-3.71
'0:01.270',-2.93
'0:01.273',-0.87
'0:01.277',1.97
'0:01.281',4.08
'0:01.285',5.42
'0:01.289',5.56
'0:01.293',3.17
'0:01.297',-0.32
'0:01.301',-3.33
'0:01.305',-4.96
'0:01.309',-5.65
'0:01.313',-5.41
'0:01.316',-4.56
'0:01.320',-3.74
'0:01.324',-3.31
'0:01.328',-3
'0:01.332',-2.25
'0:01.336',-1.75
'0:01.340',-1.39
'0:01.344',-1.12
'0:01.348',-0.97
'0:01.352',-1.02
'0:01.355',-0.75
'0:01.359',-0.22
'0:01.363',-0.07
'0:01.367',-0.07
'0:01.371',0.1
'0:01.375',0.25
'0:01.379',0.47
'0:01.383',0.83
'0:01.387',1.24
'0:01.391',1.77
'0:01.395',2.16
'0:01.398',2.44
'0:01.402',2.68
'0:01.406',3.05
'0:01.410',3.65
'0:01.414',3.8
'0:01.418',3.71
'0:01.422',3.53
'0:01.426',3.15
'0:01.430',2.27
'0:01.434',1.47
'0:01.438',1.19
'0:01.441',1.06
'0:01.445',0.88
'0:01.449',0.74
'0:01.453',0.52
'0:01.457',0.2
'0:01.461',-0.24
'0:01.465',-0.43
'0:01.469',-0.46
'0:01.473',-0.31
'0:01.477',-0.21
'0:01.480',-0.5
'0:01.484',-0.72
'0:01.488',-0.95
'0:01.492',-0.94
'0:01.496',-0.73
'0:01.500',-0.44
'0:01.504',-0.17
'0:01.508',-0.05
'0:01.512',-0.04
'0:01.516',-0.08
'0:01.520',0.07
'0:01.523',0.48
'0:01.527',0.92
'0:01.531',1.17
'0:01.535',1.36
'0:01.539',1.49
'0:01.543',1.61
'0:01.547',1.56
'0:01.551',1.1
'0:01.555',0.06
'0:01.559',-1.06
'0:01.563',-1.6
'0:01.566',-1.99
'0:01.570',-2.3
'0:01.574',-2.51
'0:01.578',-2.65
'0:01.582',-2.68
'0:01.586',-2.7
'0:01.590',-2.6
'0:01.594',-2.53
'0:01.598',-2.53
'0:01.602',-2.51
'0:01.605',-2.86
'0:01.609',-3.29
'0:01.613',-3.36
'0:01.617',-2.73
'0:01.621',-1.22
'0:01.625',1.56
'0:01.629',4.68
'0:01.633',6.93
'0:01.637',8.02
'0:01.641',7.08
'0:01.645',3.96
'0:01.648',0.69
'0:01.652',-1.97
'0:01.656',-3.73
'0:01.660',-4.56
'0:01.664',-4.6
'0:01.668',-4.07
'0:01.672',-3.32
'0:01.676',-2.61
'0:01.680',-1.95
'0:01.684',-1.37
'0:01.688',-0.95
'0:01.691',-0.59
'0:01.695',-0.43
'0:01.699',-0.35
'0:01.703',-0.26
'0:01.707',-0.14
'0:01.711',0.05
'0:01.715',0.27
'0:01.719',0.54
'0:01.723',0.98
'0:01.727',1.5
'0:01.730',1.9
'0:01.734',2.1
'0:01.738',2.22
'0:01.742',2.44
'0:01.746',2.94
'0:01.750',3.65
'0:01.754',4.36
'0:01.758',4.75
'0:01.762',4.71
'0:01.766',4.46
'0:01.770',4.27
'0:01.773',4.1
'0:01.777',3.98
'0:01.781',3.76
'0:01.785',3.49
'0:01.789',3.21
'0:01.793',2.74
'0:01.797',2.21
'0:01.801',1.68
'0:01.805',1.32
'0:01.809',1.02
'0:01.813',0.73
'0:01.816',0.56
'0:01.820',0.48
'0:01.824',0.59
'0:01.828',0.75
'0:01.832',0.75
'0:01.836',0.79
'0:01.840',0.91
'0:01.844',1.1
'0:01.848',1.27
'0:01.852',1.1
'0:01.855',0.81
'0:01.859',0.8
'0:01.863',0.83
'0:01.867',0.9
'0:01.871',0.98
'0:01.875',1.12
'0:01.879',1.32
'0:01.883',1.39
'0:01.887',1.32
'0:01.891',1.04
'0:01.895',0.9
'0:01.898',0.69
'0:01.902',0.16
'0:01.906',-0.79
'0:01.910',-1.5
'0:01.914',-1.78
'0:01.918',-2.04
'0:01.922',-2.28
'0:01.926',-2.58
'0:01.930',-2.8
'0:01.934',-2.9
'0:01.938',-2.9
'0:01.941',-2.93
'0:01.945',-3.09
'0:01.949',-3.41
'0:01.953',-3.75
'0:01.957',-3.89
'0:01.961',-3.76
'0:01.965',-2.93
'0:01.969',-1.5
'0:01.973',0.64
'0:01.977',2.81
'0:01.980',4.12
'0:01.984',4.41
'0:01.988',2.78
'0:01.992',-0.36
'0:01.996',-3.07
'0:02.000',-4.64
'0:02.004',-5.02
'0:02.008',-4.9
'0:02.012',-4.38
'0:02.016',-3.55
'0:02.020',-2.57
'0:02.023',-1.78
'0:02.027',-1.41
'0:02.031',-1.31
'0:02.035',-1.14
'0:02.039',-0.9
'0:02.043',-0.48
'0:02.047',-0.03
'0:02.051',0.45
'0:02.055',0.89
'0:02.059',1.31
'0:02.063',1.58
'0:02.066',1.52
'0:02.070',1.25
'0:02.074',1.13
'0:02.078',1.22
'0:02.082',1.51
'0:02.086',1.82
'0:02.090',2.09
'0:02.094',2.55
'0:02.098',3.01
'0:02.102',3.24
'0:02.105',3.34
'0:02.109',3.54
'0:02.113',3.61
'0:02.117',3.85
'0:02.121',3.85
'0:02.125',3.4
'0:02.129',2.91
'0:02.133',2.44
'0:02.137',1.86
'0:02.141',1.32
'0:02.145',0.86
'0:02.148',0.2
'0:02.152',-0.53
'0:02.156',-0.89
'0:02.160',-0.76
'0:02.164',-0.65
'0:02.168',-0.87
'0:02.172',-1.21
'0:02.176',-1.36
'0:02.180',-1.44
'0:02.184',-1.46
'0:02.188',-1.29
'0:02.191',-1.19
'0:02.195',-1.05
'0:02.199',-0.86
'0:02.203',-0.59
'0:02.207',-0.58
'0:02.211',-0.97
'0:02.215',-0.9
'0:02.219',-0.68
'0:02.223',-0.29
'0:02.227',-0.05
'0:02.230',0.04
'0:02.234',0.2
'0:02.238',0.36
'0:02.242',0.33
'0:02.246',0.08
'0:02.250',-0.21
'0:02.254',-0.78
'0:02.258',-1.55
'0:02.262',-2.09
'0:02.266',-2.17
'0:02.270',-2.15
'0:02.273',-2.38
'0:02.277',-2.83
'0:02.281',-2.97
'0:02.285',-3.03
'0:02.289',-2.99
'0:02.293',-2.7
'0:02.297',-2.67
'0:02.301',-2.83
'0:02.305',-3.31
'0:02.309',-3.91
'0:02.313',-4.18
'0:02.316',-3.87
'0:02.320',-2.8
'0:02.324',-0.76
'0:02.328',2.17
'0:02.332',4.49
'0:02.336',5.58
'0:02.340',5.55
'0:02.344',3.43
'0:02.348',0.4
'0:02.352',-2.1
'0:02.355',-3.74
'0:02.359',-4.7
'0:02.363',-4.99
'0:02.367',-4.53
'0:02.371',-3.9
'0:02.375',-3.2
'0:02.379',-2.37
'0:02.383',-1.81
'0:02.387',-1.44
'0:02.391',-1.26
'0:02.395',-1.07
'0:02.398',-0.73
'0:02.402',-0.15
'0:02.406',0.24
'0:02.410',0.3
'0:02.414',0.37
'0:02.418',0.18
'0:02.422',-0.04
'0:02.426',0.05
'0:02.430',0.43
'0:02.434',1.09
'0:02.438',1.68
'0:02.441',1.99
'0:02.445',2.31
'0:02.449',2.6
'0:02.453',3.02
'0:02.457',3.27
'0:02.461',3.55
'0:02.465',3.42
'0:02.469',3.24
'0:02.473',3.07
'0:02.477',2.81
'0:02.480',2.22
'0:02.484',1.64
'0:02.488',1.37
'0:02.492',1.2
'0:02.496',1.05
'0:02.500',0.9
'0:02.504',0.6
'0:02.508',0.57
'0:02.512',0.63
'0:02.516',0.4
'0:02.520',0.01
'0:02.523',-0.48
'0:02.527',-0.8
'0:02.531',-0.78
'0:02.535',-0.49
'0:02.539',-0.22
'0:02.543',-0.01
'0:02.547',0.14
'0:02.551',0.22
'0:02.555',0.18
'0:02.559',0.02
'0:02.563',-0.02
'0:02.566',-0.02
'0:02.570',0.07
'0:02.574',0.08
'0:02.578',0.13
'0:02.582',0.31
'0:02.586',0.53
'0:02.590',0.54
'0:02.594',0.37
'0:02.598',0.07
'0:02.602',-0.41
'0:02.605',-1.08
'0:02.609',-1.7
'0:02.613',-2.16
'0:02.617',-2.58
'0:02.621',-2.99
'0:02.625',-3.41
'0:02.629',-3.63
'0:02.633',-3.68
'0:02.637',-3.56
'0:02.641',-3.39
'0:02.645',-3.19
'0:02.648',-3.05
'0:02.652',-3.17
'0:02.656',-3.56
'0:02.660',-3.85
'0:02.664',-3.85
'0:02.668',-3.85
'0:02.672',-3.85
'0:02.676',-3.85
'0:02.680',-3.85
'0:02.684',6.93
'0:02.688',7.31
'0:02.691',4.97
'0:02.695',1.46
'0:02.699',-1.66
'0:02.703',-3.8
'0:02.707',-4.79
'0:02.711',-4.97
'0:02.715',-4.78
'0:02.719',-4.37
'0:02.723',-3.66
'0:02.727',-2.83
'0:02.730',-2.07
'0:02.734',-1.39
'0:02.738',-0.83
'0:02.742',-0.3
'0:02.746',0.08
'0:02.750',0.23
'0:02.754',0.39
'0:02.758',0.58
'0:02.762',0.8
'0:02.766',1.06
'0:02.770',1.34
'0:02.773',1.48
'0:02.777',1.55
'0:02.781',1.69
'0:02.785',2
'0:02.789',2.43
'0:02.793',2.82
'0:02.797',3.17
'0:02.801',3.58
'0:02.805',3.99
'0:02.809',4.36
'0:02.813',4.42
'0:02.816',4.3
'0:02.820',4.1
'0:02.824',3.9
'0:02.828',3.64
'0:02.832',3.25
'0:02.836',3.17
'0:02.840',3.25
'0:02.844',3.1
'0:02.848',2.76
'0:02.852',2.17
'0:02.855',1.75
'0:02.859',1.45
'0:02.863',1.22
'0:02.867',0.91
'0:02.871',0.56
'0:02.875',0.4
'0:02.879',0.37
'0:02.883',0.32
'0:02.887',0.26
'0:02.891',0.29
'0:02.895',0.37
'0:02.898',0.48
'0:02.902',0.56
'0:02.906',0.61
'0:02.910',0.44
'0:02.914',0.3
'0:02.918',0.22
'0:02.922',0.33
'0:02.926',0.37
'0:02.930',0.51
'0:02.934',0.82
'0:02.938',1.04
'0:02.941',1.03
'0:02.945',0.83
'0:02.949',0.41
'0:02.953',-0.18
'0:02.957',-0.91
'0:02.961',-1.48
'0:02.965',-2.07
'0:02.969',-2.36
'0:02.973',-2.5
'0:02.977',-2.34
'0:02.980',-2.41
'0:02.984',-2.91
'0:02.988',-3.24
'0:02.992',-3.43
'0:02.996',-3.32
'0:03.000',-3.36
'0:03.004',-3.66
'0:03.008',-3.86
'0:03.012',-3.81
'0:03.016',-3.26
'0:03.020',-2.08
'0:03.023',-0.05
'0:03.027',2.03
'0:03.031',3.2
'0:03.035',3.49
'0:03.039',2.32
'0:03.043',-0.58
'0:03.047',-3.03
'0:03.051',-4.59
'0:03.055',-5.43
'0:03.059',-5.41
'0:03.063',-4.51
'0:03.066',-3.51
'0:03.070',-2.54
'0:03.074',-1.7
'0:03.078',-1.13
'0:03.082',-0.76
'0:03.086',-0.41
'0:03.090',-0.05
'0:03.094',0.27
'0:03.098',0.59
'0:03.102',0.9
'0:03.105',1.15
'0:03.109',1.17
'0:03.113',1.11
'0:03.117',1.03
'0:03.121',1
'0:03.125',1.08
'0:03.129',1.25
'0:03.133',1.54
'0:03.137',1.78
'0:03.141',2.05
'0:03.145',2.7
'0:03.148',3.42
'0:03.152',3.81
'0:03.156',4.14
'0:03.160',4.44
'0:03.164',4.39
'0:03.168',4.32
'0:03.172',4.19
'0:03.176',3.83
'0:03.180',3.3
'0:03.184',2.88
'0:03.188',2.39
'0:03.191',2.01
'0:03.195',1.65
'0:03.199',1.1
'0:03.203',0.7
'0:03.207',0.37
'0:03.211',-0.04
'0:03.215',-0.35
'0:03.219',-0.53
'0:03.223',-0.73
'0:03.227',-0.79
'0:03.230',-0.66
'0:03.234',-0.67
'0:03.238',-0.78
'0:03.242',-0.78
'0:03.246',-0.75
'0:03.250',-0.56
'0:03.254',-0.49
'0:03.258',-0.52
'0:03.262',-0.42
'0:03.266',-0.31
'0:03.270',-0.14
'0:03.273',-0.09
'0:03.277',-0.15
'0:03.281',-0.14
'0:03.285',0.05
'0:03.289',0.2
'0:03.293',0.32
'0:03.297',0.22
'0:03.301',-0.26
'0:03.305',-0.87
'0:03.309',-1.51
'0:03.313',-1.8
'0:03.316',-2.04
'0:03.320',-2.31
'0:03.324',-2.48
'0:03.328',-2.43
'0:03.332',-2.5
'0:03.336',-2.83
'0:03.340',-3.26
'0:03.344',-3.29
'0:03.348',-3.12
'0:03.352',-3.08
'0:03.355',-3.27
'0:03.359',-3.75
'0:03.363',-4.04
'0:03.367',-3.83
'0:03.371',-2.92
'0:03.375',-1.08
'0:03.379',1.74
'0:03.383',4.23
'0:03.387',5.64
'0:03.391',5.97
'0:03.395',4.03
'0:03.398',0.58
'0:03.402',-2.32
'0:03.406',-3.88
'0:03.410',-4.48
'0:03.414',-4.36
'0:03.418',-3.68
'0:03.422',-2.87
'0:03.426',-2.42
'0:03.430',-2.15
'0:03.434',-1.8
'0:03.438',-1.47
'0:03.441',-1.24
'0:03.445',-0.85
'0:03.449',-0.24
'0:03.453',0.18
'0:03.457',0.34
'0:03.461',0.22
'0:03.465',0.1
'0:03.469',0.23
'0:03.473',0.71
'0:03.477',1.24
'0:03.480',1.47
'0:03.484',1.77
'0:03.488',1.98
'0:03.492',2.25
'0:03.496',2.49
'0:03.500',2.81
'0:03.504',3.36
'0:03.508',3.77
'0:03.512',3.99
'0:03.516',3.9
'0:03.520',3.59
'0:03.523',3.41
'0:03.527',3.17
'0:03.531',2.63
'0:03.535',2.7
'0:03.539',2.47
'0:03.543',1.76
'0:03.547',1.05
'0:03.551',0.61
'0:03.555',0.1
'0:03.559',-0.28
'0:03.563',-0.23
'0:03.566',-0.44
'0:03.570',-0.66
'0:03.574',-0.78
'0:03.578',-0.92
'0:03.582',-0.97
'0:03.586',-0.94
'0:03.590',-0.87
'0:03.594',-0.89
'0:03.598',-0.61
'0:03.602',-0.22
'0:03.605',-0.07
'0:03.609',-0.19
'0:03.613',-0.26
'0:03.617',-0.06
'0:03.621',0.02
'0:03.625',0.12
'0:03.629',0.08
'0:03.633',-0.02
'0:03.637',0.03
'0:03.641',0
'0:03.645',-0.17
'0:03.648',-0.19
'0:03.652',-0.39
'0:03.656',-1.09
'0:03.660',-1.77
'0:03.664',-2.27
'0:03.668',-2.65
'0:03.672',-2.83
'0:03.676',-3.16
'0:03.680',-3.36
'0:03.684',-3.33
'0:03.688',-3.09
'0:03.691',-2.85
'0:03.695',-2.68
'0:03.699',-2.68
'0:03.703',-2.74
'0:03.707',-2.92
'0:03.711',-3.5
'0:03.715',-4.22
'0:03.719',-4.21
'0:03.723',-3.34
'0:03.727',-1.37
'0:03.730',1.9
'0:03.734',5.63
'0:03.738',8.22
'0:03.742',9.2
'0:03.746',7.13
'0:03.750',3.12
'0:03.754',-0.67
'0:03.758',-3.3
'0:03.762',-4.74
'0:03.766',-5.38
'0:03.770',-5.29
'0:03.773',-4.77
'0:03.777',-3.9
'0:03.781',-3
'0:03.785',-2.6
'0:03.789',-2.29
'0:03.793',-1.86
'0:03.797',-1.41
'0:03.801',-1.05
'0:03.805',-0.87
'0:03.809',-0.75
'0:03.813',-0.52
'0:03.816',-0.12
'0:03.820',0.37
'0:03.824',0.73
'0:03.828',0.93
'0:03.832',1.24
'0:03.836',1.51
'0:03.840',1.66
'0:03.844',1.92
'0:03.848',2.36
'0:03.852',2.91
'0:03.855',3.34
'0:03.859',3.61
'0:03.863',3.58
'0:03.867',3.27
'0:03.871',3.05
'0:03.875',2.95
'0:03.879',2.93
'0:03.883',2.89
'0:03.887',3.07
'0:03.891',3.08
'0:03.895',2.74
'0:03.898',2.34
'0:03.902',1.88
'0:03.906',1.58
'0:03.910',1.32
'0:03.914',1.15
'0:03.918',1.22
'0:03.922',1.08
'0:03.926',0.85
'0:03.930',0.68
'0:03.934',0.47
'0:03.938',0.23
'0:03.941',0.4
'0:03.945',0.56
'0:03.949',0.76
'0:03.953',0.93
'0:03.957',0.92
'0:03.961',0.72
'0:03.965',0.34
'0:03.969',-0.14
'0:03.973',-0.4
'0:03.977',-0.33
'0:03.980',0.02
'0:03.984',0.17
'0:03.988',0.33
'0:03.992',0.78
'0:03.996',1.1
'0:04.000',0.81
'0:04.004',0.49
'0:04.008',0.13
'0:04.012',-0.22
'0:04.016',-0.53
'0:04.020',-1.02
'0:04.023',-1.48
'0:04.027',-1.94
'0:04.031',-2.45
'0:04.035',-2.75
'0:04.039',-2.92
'0:04.043',-2.9
'0:04.047',-2.49
'0:04.051',-2.25
'0:04.055',-2.38
'0:04.059',-2.91
'0:04.063',-3.28
'0:04.066',-3.34
'0:04.070',-3.14
'0:04.074',-2.46
'0:04.078',-1.17
'0:04.082',0.99
'0:04.086',3.62
'0:04.090',5.49
'0:04.094',6.21
'0:04.098',4.69
'0:04.102',1.53
'0:04.105',-1.37
'0:04.109',-3.33
'0:04.113',-4.02
'0:04.117',-3.89
'0:04.121',-3.53
'0:04.125',-3.14
'0:04.129',-2.71
'0:04.133',-2.04
'0:04.137',-1.32
'0:04.141',-0.9
'0:04.145',-0.73
'0:04.148',-0.36
'0:04.152',0.1
'0:04.156',0.32
'0:04.160',0.25
'0:04.164',0.29
'0:04.168',0.4
'0:04.172',0.37
'0:04.176',0.32
'0:04.180',0.54
'0:04.184',0.98
'0:04.188',1.51
'0:04.191',2.19
'0:04.195',2.93
'0:04.199',3.61
'0:04.203',4.02
'0:04.207',4.27
'0:04.211',4.44
'0:04.215',4.61
'0:04.219',4.75
'0:04.223',4.74
'0:04.227',4.63
'0:04.230',4.37
'0:04.234',3.73
'0:04.238',3.27
'0:04.242',3.17
'0:04.246',3.29
'0:04.250',3.1
'0:04.254',2.32
'0:04.258',1.54
'0:04.262',1.05
'0:04.266',0.61
'0:04.270',0.2
'0:04.273',-0.17
'0:04.277',-0.36
'0:04.281',-0.43
'0:04.285',-0.37
'0:04.289',-0.24
'0:04.293',0.01
'0:04.297',0.2
'0:04.301',0.1
'0:04.305',0
'0:04.309',-0.2
'0:04.313',-0.53
'0:04.316',-0.56
'0:04.320',-0.5
'0:04.324',-0.27
'0:04.328',0.05
'0:04.332',0.2
'0:04.336',0.25
'0:04.340',0.35
'0:04.344',0.43
'0:04.348',0.51
'0:04.352',0.4
'0:04.355',0.05
'0:04.359',-0.41
'0:04.363',-1.05
'0:04.367',-1.6
'0:04.371',-1.95
'0:04.375',-2.19
'0:04.379',-2.43
'0:04.383',-2.46
'0:04.387',-2.53
'0:04.391',-2.73
'0:04.395',-3.16
'0:04.398',-3.45
'0:04.402',-3.58
'0:04.406',-3.94
'0:04.410',-4.36
'0:04.414',-4.81
'0:04.418',-5.01
'0:04.422',-4.75
'0:04.426',-3.54
'0:04.430',-1.45
'0:04.434',1.06
'0:04.438',2.65
'0:04.441',3.13
'0:04.445',2.29
'0:04.449',-0.54
'0:04.453',-3.32
'0:04.457',-5.22
'0:04.461',-6.06
'0:04.465',-5.83
'0:04.469',-5.12
'0:04.473',-4.27
'0:04.477',-3.52
'0:04.480',-2.95
'0:04.484',-2.46
'0:04.488',-1.98
'0:04.492',-1.56
'0:04.496',-1.21
'0:04.500',-0.83
'0:04.504',-0.56
'0:04.508',-0.45
'0:04.512',-0.4
'0:04.516',-0.28
'0:04.520',0.1
'0:04.523',0.43
'0:04.527',0.76
'0:04.531',0.9
'0:04.535',0.96
'0:04.539',1.17
'0:04.543',1.46
'0:04.547',1.88
'0:04.551',2.47
'0:04.555',3.05
'0:04.559',3.63
'0:04.563',4.19
'0:04.566',4.51
'0:04.570',4.41
'0:04.574',4.15
'0:04.578',4.07
'0:04.582',3.97
'0:04.586',3.65
'0:04.590',3.05
'0:04.594',2.47
'0:04.598',2.08
'0:04.602',1.66
'0:04.605',1.39
'0:04.609',1.22
'0:04.613',1.03
'0:04.617',0.76
'0:04.621',0.52
'0:04.625',0.25
'0:04.629',-0.02
'0:04.633',-0.14
'0:04.637',-0.31
'0:04.641',-0.26
'0:04.645',-0.05
'0:04.648',0.08
'0:04.652',-0.07
'0:04.656',-0.13
'0:04.660',-0.11
'0:04.664',-0.29
'0:04.668',-0.41
'0:04.672',-0.49
'0:04.676',-0.49
'0:04.680',-0.5
'0:04.684',-0.23
'0:04.688',0.19
'0:04.691',0.23
'0:04.695',-0.02
'0:04.699',-0.19
'0:04.703',-0.19
'0:04.707',-0.31
'0:04.711',-0.76
'0:04.715',-1.43
'0:04.719',-1.79
'0:04.723',-2.15
'0:04.727',-2.68
'0:04.730',-3.12
'0:04.734',-3.36
'0:04.738',-3.48
'0:04.742',-3.41
'0:04.746',-3.42
'0:04.750',-3.6
'0:04.754',-3.56
'0:04.758',-3.34
'0:04.762',-3.19
'0:04.766',-3.36
'0:04.770',-3.87
'0:04.773',-4.06
'0:04.777',-3.69
'0:04.781',-2.36
'0:04.785',0.08
'0:04.789',3.11
'0:04.793',5.7
'0:04.797',7.4
'0:04.801',7.18
'0:04.805',4.21
'0:04.809',0.34
'0:04.813',-2.89
'0:04.816',-4.84
'0:04.820',-5.7
'0:04.824',-5.84
'0:04.828',-5.46
'0:04.832',-4.61
'0:04.836',-3.78
'0:04.840',-3.09
'0:04.844',-2.52
'0:04.848',-2.31
'0:04.852',-2.38
'0:04.855',-2.17
'0:04.859',-1.8
'0:04.863',-1.46
'0:04.867',-0.96
'0:04.871',-0.43
'0:04.875',0.22
'0:04.879',0.52
'0:04.883',0.47
'0:04.887',0.35
'0:04.891',0.53
'0:04.895',0.85
'0:04.898',1.18
'0:04.902',1.41
'0:04.906',1.72
'0:04.910',2.21
'0:04.914',2.8
'0:04.918',3.44
'0:04.922',3.56
'0:04.926',3.27
'0:04.930',2.83
'0:04.934',2.37
'0:04.938',2.08
'0:04.941',2.04
'0:04.945',2.22
'0:04.949',2.37
'0:04.953',2.26
'0:04.957',1.9
'0:04.961',1.61
'0:04.965',1.27
'0:04.969',1.07
'0:04.973',0.72
'0:04.977',0.27
'0:04.980',-0.07
'0:04.984',-0.36
'0:04.988',-0.51
'0:04.992',-0.52
'0:04.996',-0.46
'0:05.000',-0.48
'0:05.004',-0.26
'0:05.008',-0.2
'0:05.012',-0.31
'0:05.016',-0.22
'0:05.020',-0.04
'0:05.023',0.17
'0:05.027',0.42
'0:05.031',0.49
'0:05.035',0.53
'0:05.039',0.72
'0:05.043',1.03
'0:05.047',1.17
'0:05.051',1.04
'0:05.055',0.58
'0:05.059',0.13
'0:05.063',-0.3
'0:05.066',-0.59
'0:05.070',-0.85
'0:05.074',-1.1
'0:05.078',-1.49
'0:05.082',-1.9
'0:05.086',-1.98
'0:05.090',-1.97
'0:05.094',-1.78
'0:05.098',-1.61
'0:05.102',-1.65
'0:05.105',-1.88
'0:05.109',-2
'0:05.113',-2.31
'0:05.117',-2.91
'0:05.121',-3.44
'0:05.125',-3.43
'0:05.129',-2.8
'0:05.133',-1.44
'0:05.137',1.05
'0:05.141',3.99
'0:05.145',6.12
'0:05.148',6.87
'0:05.152',5.83
'0:05.156',2.64
'0:05.160',-0.63
'0:05.164',-2.95
'0:05.168',-4.14
'0:05.172',-4.38
'0:05.176',-4.03
'0:05.180',-3.23
'0:05.184',-2.16
'0:05.188',-1.08
'0:05.191',-0.31
'0:05.195',-0.05
'0:05.199',0.07
'0:05.203',0.15
'0:05.207',0.25
'0:05.211',0.4
'0:05.215',0.66
'0:05.219',1.08
'0:05.223',1.52
'0:05.227',1.93
'0:05.230',1.91
'0:05.234',1.96
'0:05.238',2
'0:05.242',1.99
'0:05.246',2.18
'0:05.250',2.67
'0:05.254',3.05
'0:05.258',3.42
'0:05.262',4.05
'0:05.266',4.49
'0:05.270',4.39
'0:05.273',4.53
'0:05.277',4.87
'0:05.281',4.95
'0:05.285',4.71
'0:05.289',4.29
'0:05.293',3.99
'0:05.297',3.73
'0:05.301',3.28
'0:05.305',2.75
'0:05.309',2.26
'0:05.313',1.64
'0:05.316',1.02
'0:05.320',0.56
'0:05.324',0.27
'0:05.328',0.15
'0:05.332',-0.05
'0:05.336',-0.05
'0:05.340',0.2
'0:05.344',0.44
'0:05.348',0.56
'0:05.352',0.56
'0:05.355',0.61
'0:05.359',0.68
'0:05.363',0.68
'0:05.367',0.48
'0:05.371',0.07
'0:05.375',-0.22
'0:05.379',-0.38
'0:05.383',-0.39
'0:05.387',-0.26
'0:05.391',-0.1
'0:05.395',-0.02
'0:05.398',-0.05
'0:05.402',-0.24
'0:05.406',-0.47
'0:05.410',-0.85
'0:05.414',-1.39
'0:05.418',-1.63
'0:05.422',-1.71
'0:05.426',-2.05
'0:05.430',-2.37
'0:05.434',-2.63
'0:05.438',-2.77
'0:05.441',-2.82
'0:05.445',-2.86
'0:05.449',-3.02
'0:05.453',-3.21
'0:05.457',-3.32
'0:05.461',-3.48
'0:05.465',-3.78
'0:05.469',-4.23
'0:05.473',-4.61
'0:05.477',-4.56
'0:05.480',-3.71
'0:05.484',-2.19
'0:05.488',-0.01
'0:05.492',1.94
'0:05.496',2.73
'0:05.500',2.72
'0:05.504',1.18
'0:05.508',-1.61
'0:05.512',-3.96
'0:05.516',-5.28
'0:05.520',-5.7
'0:05.523',-5.41
'0:05.527',-4.62
'0:05.531',-3.67
'0:05.535',-2.74
'0:05.539',-2.03
'0:05.543',-1.48
'0:05.547',-1.14
'0:05.551',-0.94
'0:05.555',-0.58
'0:05.559',-0.34
'0:05.563',-0.09
'0:05.566',0.13
'0:05.570',0.36
'0:05.574',0.59
'0:05.578',0.74
'0:05.582',0.85
'0:05.586',1.05
'0:05.590',1.29
'0:05.594',1.67
'0:05.598',2.16
'0:05.602',2.73
'0:05.605',3.36
'0:05.609',3.88
'0:05.613',4.14
'0:05.617',4.41
'0:05.621',4.78
'0:05.625',4.9
'0:05.629',4.84
'0:05.633',4.77
'0:05.637',4.39
'0:05.641',3.93
'0:05.645',3.55
'0:05.648',3.18
'0:05.652',2.63
'0:05.656',2.15
'0:05.660',1.53
'0:05.664',0.94
'0:05.668',0.46
'0:05.672',0.27
'0:05.676',0.25
'0:05.680',0.15
'0:05.684',0.13
'0:05.688',0.11
'0:05.691',-0.13
'0:05.695',-0.43
'0:05.699',-0.41
'0:05.703',-0.55
'0:05.707',-0.68
'0:05.711',-0.58
'0:05.715',-0.41
'0:05.719',-0.29
'0:05.723',-0.34
'0:05.727',-0.25
'0:05.730',-0.22
'0:05.734',-0.51
'0:05.738',-0.6
'0:05.742',-0.42
'0:05.746',-0.24
'0:05.750',-0.29
'0:05.754',-0.4
'0:05.758',-0.14
'0:05.762',-0.22
'0:05.766',-0.57
'0:05.770',-0.83
'0:05.773',-1.4
'0:05.777',-1.99
'0:05.781',-2.52
'0:05.785',-3
'0:05.789',-3.39
'0:05.793',-3.76
'0:05.797',-3.8
'0:05.801',-3.65
'0:05.805',-3.51
'0:05.809',-3.58
'0:05.813',-3.73
'0:05.816',-3.82
'0:05.820',-3.97
'0:05.824',-4.07
'0:05.828',-4.05
'0:05.832',-4.09
'0:05.836',-3.23
'0:05.840',-1.01
'0:05.844',2.13
'0:05.848',4.99
'0:05.852',6.94
'0:05.855',7.55
'0:05.859',5.13
'0:05.863',1.25
'0:05.867',-2.04
'0:05.871',-4.24
'0:05.875',-5.19
'0:05.879',-5.58
'0:05.883',-5.31
'0:05.887',-4.59
'0:05.891',-3.81
'0:05.895',-3.28
'0:05.898',-2.96
'0:05.902',-2.64
'0:05.906',-2.14
'0:05.910',-1.72
'0:05.914',-1.48
'0:05.918',-1.19
'0:05.922',-0.77
'0:05.926',-0.36
'0:05.930',-0.14
'0:05.934',-0.09
'0:05.938',0
'0:05.941',0.16
'0:05.945',0.68
'0:05.949',1.3
'0:05.953',1.65
'0:05.957',2.03
'0:05.961',2.35
'0:05.965',2.35
'0:05.969',2.38
'0:05.973',2.61
'0:05.977',3.11
'0:05.980',3.61
'0:05.984',3.85
'0:05.988',3.5
'0:05.992',2.89
'0:05.996',2.35
'0:06.000',1.97
'0:06.004',1.92
'0:06.008',2.05
'0:06.012',2.2
'0:06.016',2.17
'0:06.020',2.17
'0:06.023',2.17
'0:06.027',2.17
'0:06.031',2.17
'0:06.035',2.17
'0:06.039',2.17
'0:06.043',2.17
'0:06.047',2.17
'0:06.051',2.17
'0:06.055',2.17
'0:06.059',2.17
'0:06.063',2.17
'0:06.066',2.17
'0:06.070',2.17
'0:06.074',2.17
'0:06.078',2.17
'0:06.082',2.17
'0:06.086',2.17
'0:06.090',2.17
'0:06.094',2.17
'0:06.098',2.17
'0:06.102',2.17
'0:06.105',2.17
'0:06.109',2.17
'0:06.113',2.17
'0:06.117',2.17
'0:06.121',2.17
'0:06.125',2.17
'0:06.129',2.17
'0:06.133',2.17
'0:06.137',2.17
'0:06.141',-2.49
'0:06.145',-2.6
'0:06.148',-2.76
'0:06.152',-2.9
'0:06.156',-3.09
'0:06.160',-3.14
'0:06.164',-3.07
'0:06.168',-3.17
'0:06.172',-3.61
'0:06.176',-4.19
'0:06.180',-4.17
'0:06.184',-3.23
'0:06.188',-1.27
'0:06.191',1.9
'0:06.195',5.27
'0:06.199',7.46
'0:06.203',8.09
'0:06.207',6.24
'0:06.211',2.77
'0:06.215',-0.5
'0:06.219',-2.86
'0:06.223',-4.25
'0:06.227',-4.69
'0:06.230',-4.47
'0:06.234',-3.96
'0:06.238',-3.25
'0:06.242',-2.62
'0:06.246',-2.09
'0:06.250',-1.62
'0:06.254',-1.29
'0:06.258',-0.91
'0:06.262',-0.55
'0:06.266',-0.28
'0:06.270',-0.04
'0:06.273',0.23
'0:06.277',0.4
'0:06.281',0.61
'0:06.285',0.71
'0:06.289',0.92
'0:06.293',1.2
'0:06.297',1.61
'0:06.301',2.15
'0:06.305',2.55
'0:06.309',2.83
'0:06.313',3.17
'0:06.316',3.47
'0:06.320',3.64
'0:06.324',3.8
'0:06.328',3.97
'0:06.332',4.05
'0:06.336',4.1
'0:06.340',4.02
'0:06.344',3.9
'0:06.348',3.76
'0:06.352',3.36
'0:06.355',2.92
'0:06.359',2.43
'0:06.363',1.87
'0:06.367',1.43
'0:06.371',1.08
'0:06.375',0.83
'0:06.379',0.61
'0:06.383',0.45
'0:06.387',0.46
'0:06.391',0.41
'0:06.395',0.27
'0:06.398',0.05
'0:06.402',-0.04
'0:06.406',0.23
'0:06.410',0.67
'0:06.414',1
'0:06.418',1.13
'0:06.422',1.05
'0:06.426',0.9
'0:06.430',0.75
'0:06.434',0.72
'0:06.438',0.91
'0:06.441',1.01
'0:06.445',1.07
'0:06.449',1.2
'0:06.453',1.37
'0:06.457',1.38
'0:06.461',1
'0:06.465',0.43
'0:06.469',-0.16
'0:06.473',-0.72
'0:06.477',-1.17
'0:06.480',-1.61
'0:06.484',-1.93
'0:06.488',-2.21
'0:06.492',-2.44
'0:06.496',-2.58
'0:06.500',-2.83
'0:06.504',-2.99
'0:06.508',-2.97
'0:06.512',-2.87
'0:06.516',-3
'0:06.520',-3.7
'0:06.523',-4.49
'0:06.527',-4.77
'0:06.531',-4.34
'0:06.535',-3
'0:06.539',-0.94
'0:06.543',1.39
'0:06.547',3.15
'0:06.551',4.13
'0:06.555',4.18
'0:06.559',1.95
'0:06.563',-0.92
'0:06.566',-2.93
'0:06.570',-4.06
'0:06.574',-4.48
'0:06.578',-4.29
'0:06.582',-3.72
'0:06.586',-3.03
'0:06.590',-2.52
'0:06.594',-2.14
'0:06.598',-1.86
'0:06.602',-1.43
'0:06.605',-1.08
'0:06.609',-0.74
'0:06.613',-0.5
'0:06.617',-0.26
'0:06.621',-0.04
'0:06.625',0.08
'0:06.629',0.4
'0:06.633',0.87
'0:06.637',1.33
'0:06.641',1.69
'0:06.645',1.96
'0:06.648',1.97
'0:06.652',1.83
'0:06.656',1.86
'0:06.660',2.15
'0:06.664',2.72
'0:06.668',3.1
'0:06.672',3.25
'0:06.676',3.45
'0:06.680',3.59
'0:06.684',3.69
'0:06.688',3.72
'0:06.691',3.53
'0:06.695',3.36
'0:06.699',3.01
'0:06.703',2.38
'0:06.707',2.02
'0:06.711',1.8
'0:06.715',1.21
'0:06.719',0.57
'0:06.723',0.14
'0:06.727',-0.28
'0:06.730',-0.66
'0:06.734',-0.92
'0:06.738',-1.02
'0:06.742',-0.96
'0:06.746',-0.77
'0:06.750',-0.7
'0:06.754',-0.68
'0:06.758',-0.6
'0:06.762',-0.43
'0:06.766',-0.34
'0:06.770',-0.23
'0:06.773',-0.29
'0:06.777',-0.54
'0:06.781',-0.6
'0:06.785',-0.63
'0:06.789',-0.6
'0:06.793',-0.36
'0:06.797',-0.31
'0:06.801',-0.26
'0:06.805',-0.12
'0:06.809',-0.09
'0:06.813',-0.23
'0:06.816',-0.35
'0:06.820',-0.52
'0:06.824',-0.97
'0:06.828',-1.5
'0:06.832',-2.05
'0:06.836',-2.29
'0:06.840',-2.59
'0:06.844',-2.68
'0:06.848',-2.56
'0:06.852',-2.59
'0:06.855',-2.75
'0:06.859',-2.92
'0:06.863',-2.76
'0:06.867',-2.56
'0:06.871',-2.79
'0:06.875',-3.35
'0:06.879',-3.67
'0:06.883',-3.62
'0:06.887',-3.16
'0:06.891',-2.05
'0:06.895',0.33
'0:06.898',3.45
'0:06.902',5.44
'0:06.906',5.94
'0:06.910',4.86
'0:06.914',1.68
'0:06.918',-1.4
'0:06.922',-3.34
'0:06.926',-4.22
'0:06.930',-4.54
'0:06.934',-4.74
'0:06.938',-4.11
'0:06.941',-3.01
'0:06.945',-2.14
'0:06.949',-1.26
'0:06.953',-0.61
'0:06.957',-0.66
'0:06.961',-0.94
'0:06.965',-1.08
'0:06.969',-0.9
'0:06.973',-0.31
'0:06.977',-0.01
'0:06.980',0.31
'0:06.984',0.38
'0:06.988',0.3
'0:06.992',0.42
'0:06.996',0.79
'0:07.000',1.17
'0:07.004',1.66
'0:07.008',1.93
'0:07.012',2.4
'0:07.016',2.77
'0:07.020',3.07
'0:07.023',3.26
'0:07.027',3.37
'0:07.031',3.66
'0:07.035',3.63
'0:07.039',3.48
'0:07.043',3.29
'0:07.047',3.04
'0:07.051',2.59
'0:07.055',1.87
'0:07.059',1.41
'0:07.063',1.24
'0:07.066',1.14
'0:07.070',0.91
'0:07.074',0.51
'0:07.078',0.11
'0:07.082',-0.27
'0:07.086',-0.57
'0:07.090',-0.69
'0:07.094',-0.85
'0:07.098',-0.97
'0:07.102',-1.03
'0:07.105',-1.18
'0:07.109',-1.17
'0:07.113',-0.92
'0:07.117',-0.4
'0:07.121',-0.14
'0:07.125',0.03
'0:07.129',-0.2
'0:07.133',-0.37
'0:07.137',-0.56
'0:07.141',-0.77
'0:07.145',-0.98
'0:07.148',-1.07
'0:07.152',-0.72
'0:07.156',-0.32
'0:07.160',0.15
'0:07.164',0.46
'0:07.168',0.17
'0:07.172',-0.32
'0:07.176',-0.81
'0:07.180',-1.43
'0:07.184',-1.9
'0:07.188',-2.22
'0:07.191',-2.53
'0:07.195',-3.06
'0:07.199',-3.56
'0:07.203',-3.85
'0:07.207',-3.96
'0:07.211',-3.91
'0:07.215',-3.65
'0:07.219',-3.35
'0:07.223',-3.21
'0:07.227',-3.35
'0:07.230',-3.79
'0:07.234',-4.18
'0:07.238',-4.1
'0:07.242',-3.5
'0:07.246',-1.89
'0:07.250',1.04
'0:07.254',4.43
'0:07.258',7.1
'0:07.262',8.58
'0:07.266',7.87
'0:07.270',4.45
'0:07.273',0.58
'0:07.277',-2.46
'0:07.281',-4.4
'0:07.285',-5.51
'0:07.289',-5.8
'0:07.293',-5.26
'0:07.297',-4.25
'0:07.301',-3.28
'0:07.305',-2.61
'0:07.309',-2.21
'0:07.313',-1.66
'0:07.316',-1.24
'0:07.320',-1.19
'0:07.324',-1.11
'0:07.328',-0.92
'0:07.332',-0.73
'0:07.336',-0.63
'0:07.340',-0.42
'0:07.344',-0.03
'0:07.348',0.42
'0:07.352',0.81
'0:07.355',1.08
'0:07.359',1.5
'0:07.363',1.9
'0:07.367',2.28
'0:07.371',2.56
'0:07.375',2.83
'0:07.379',3.14
'0:07.383',3.68
'0:07.387',4.3
'0:07.391',4.64
'0:07.395',4.64
'0:07.398',4.45
'0:07.402',4.08
'0:07.406',3.68
'0:07.410',3.34
'0:07.414',2.99
'0:07.418',2.57
'0:07.422',2.23
'0:07.426',1.86
'0:07.430',1.48
'0:07.434',1.37
'0:07.438',1.18
'0:07.441',0.76
'0:07.445',0.24
'0:07.449',-0.07
'0:07.453',-0.09
'0:07.457',0.09
'0:07.461',0.56
'0:07.465',0.83
'0:07.469',0.91
'0:07.473',0.85
'0:07.477',0.94
'0:07.480',1.17
'0:07.484',1.21
'0:07.488',1.1
'0:07.492',1.02
'0:07.496',0.83
'0:07.500',0.79
'0:07.504',0.96
'0:07.508',1.27
'0:07.512',1.84
'0:07.516',2.17
'0:07.520',2.16
'0:07.523',1.54
'0:07.527',0.61
'0:07.531',-0.08
'0:07.535',-0.47
'0:07.539',-0.8
'0:07.543',-1.18
'0:07.547',-1.62
'0:07.551',-1.93
'0:07.555',-2.17
'0:07.559',-2.42
'0:07.563',-2.84
'0:07.566',-3.03
'0:07.570',-2.76
'0:07.574',-2.55
'0:07.578',-2.64
'0:07.582',-3.05
'0:07.586',-3.49
'0:07.590',-3.57
'0:07.594',-3.12
'0:07.598',-2.26
'0:07.602',-0.33
'0:07.605',2.6
'0:07.609',4.98
'0:07.613',6.14
'0:07.617',6.32
'0:07.621',4.29
'0:07.625',1.01
'0:07.629',-2
'0:07.633',-4.08
'0:07.637',-4.9
'0:07.641',-4.49
'0:07.645',-3.56
'0:07.648',-2.91
'0:07.652',-2.32
'0:07.656',-1.84
'0:07.660',-1.57
'0:07.664',-1.21
'0:07.668',-0.82
'0:07.672',-0.44
'0:07.676',0.11
'0:07.680',0.42
'0:07.684',0.65
'0:07.688',0.96
'0:07.691',1.07
'0:07.695',0.87
'0:07.699',0.66
'0:07.703',0.99
'0:07.707',1.58
'0:07.711',2.01
'0:07.715',2.3
'0:07.719',2.32
'0:07.723',2.44
'0:07.727',2.8
'0:07.730',3.3
'0:07.734',3.78
'0:07.738',4.33
'0:07.742',4.92
'0:07.746',5.22
'0:07.750',4.91
'0:07.754',4.53
'0:07.758',3.89
'0:07.762',3.35
'0:07.766',2.97
'0:07.770',2.67
'0:07.773',2.17
'0:07.777',1.76
'0:07.781',1.36
'0:07.785',1.02
'0:07.789',0.42
'0:07.793',0.03
'0:07.797',-0.27
'0:07.801',-0.44
'0:07.805',-0.51
'0:07.809',-0.58
'0:07.813',-0.41
'0:07.816',-0.24
'0:07.820',-0.14
'0:07.824',-0.16
'0:07.828',-0.22
'0:07.832',-0.26
'0:07.836',-0.45
'0:07.840',-0.68
'0:07.844',-0.87
'0:07.848',-0.84
'0:07.852',-0.5
'0:07.855',-0.13
'0:07.859',-0.14
'0:07.863',-0.14
'0:07.867',-0.23
'0:07.871',-0.16
'0:07.875',-0.07
'0:07.879',-0.15
'0:07.883',-0.54
'0:07.887',-1.05
'0:07.891',-1.46
'0:07.895',-1.55
'0:07.898',-1.71
'0:07.902',-2.11
'0:07.906',-2.64
'0:07.910',-3.02
'0:07.914',-3.16
'0:07.918',-3.09
'0:07.922',-2.97
'0:07.926',-2.92
'0:07.930',-3.03
'0:07.934',-3.33
'0:07.938',-3.79
'0:07.941',-4.1
'0:07.945',-4.1
'0:07.949',-3.43
'0:07.953',-1.89
'0:07.957',0.6
'0:07.961',2.97
'0:07.965',3.88
'0:07.969',3.56
'0:07.973',1.46
'0:07.977',-1.53
'0:07.980',-3.88
'0:07.984',-5.19
'0:07.988',-5.6
'0:07.992',-5.34
'0:07.996',-4.61
'0:08.000',-4
'0:08.004',-3.27
'0:08.008',-2.78
'0:08.012',-2.37
'0:08.016',-1.89
'0:08.020',-1.47
'0:08.023',-1.18
'0:08.027',-0.83
'0:08.031',-0.53
'0:08.035',-0.35
'0:08.039',-0.18
'0:08.043',0.19
'0:08.047',0.52
'0:08.051',0.83
'0:08.055',1.06
'0:08.059',1.28
'0:08.063',1.49
'0:08.066',1.69
'0:08.070',2.02
'0:08.074',2.46
'0:08.078',2.96
'0:08.082',3.33
'0:08.086',3.72
'0:08.090',4.03
'0:08.094',4.21
'0:08.098',4.36
'0:08.102',4.2
'0:08.105',3.9
'0:08.109',3.66
'0:08.113',3.34
'0:08.117',3.04
'0:08.121',2.75
'0:08.125',2.5
'0:08.129',2.19
'0:08.133',1.55
'0:08.137',0.97
'0:08.141',0.68
'0:08.145',0.52
'0:08.148',0.16
'0:08.152',-0.2
'0:08.156',-0.54
'0:08.160',-0.75
'0:08.164',-0.79
'0:08.168',-0.65
'0:08.172',-0.42
'0:08.176',-0.17
'0:08.180',0.11
'0:08.184',0.35
'0:08.188',0.35
'0:08.191',-0.01
'0:08.195',-0.42
'0:08.199',-0.49
'0:08.203',-0.38
'0:08.207',-0.26
'0:08.211',-0.12
'0:08.215',-0.05
'0:08.219',-0.07
'0:08.223',-0.15
'0:08.227',-0.32
'0:08.230',-0.71
'0:08.234',-1.12
'0:08.238',-1.46
'0:08.242',-1.82
'0:08.246',-2.04
'0:08.250',-2.03
'0:08.254',-2.36
'0:08.258',-3
'0:08.262',-3.58
'0:08.266',-4.02
'0:08.270',-4.24
'0:08.273',-4.04
'0:08.277',-3.68
'0:08.281',-3.43
'0:08.285',-3.21
'0:08.289',-3.5
'0:08.293',-3.76
'0:08.297',-3.8
'0:08.301',-3.53
'0:08.305',-2.63
'0:08.309',-0.89
'0:08.313',1.77
'0:08.316',4.58
'0:08.320',6.31
'0:08.324',6.93
'0:08.328',5.44
'0:08.332',2.05
'0:08.336',-1.04
'0:08.340',-3.28
'0:08.344',-4.66
'0:08.348',-5.07
'0:08.352',-4.67
'0:08.355',-4.15
'0:08.359',-3.88
'0:08.363',-3.2
'0:08.367',-2.62
'0:08.371',-2.14
'0:08.375',-1.56
'0:08.379',-1.04
'0:08.383',-1.03
'0:08.387',-1.14
'0:08.391',-1.03
'0:08.395',-0.95
'0:08.398',-0.91
'0:08.402',-0.56
'0:08.406',-0.01
'0:08.410',0.25
'0:08.414',0.09
'0:08.418',-0.02
'0:08.422',0.5
'0:08.426',1.43
'0:08.430',2.32
'0:08.434',2.8
'0:08.438',2.96
'0:08.441',3.31
'0:08.445',3.54
'0:08.449',3.68
'0:08.453',3.58
'0:08.457',3.2
'0:08.461',2.77
'0:08.465',2.41
'0:08.469',2.13
'0:08.473',1.83
'0:08.477',1.48
'0:08.480',1.16
'0:08.484',1.07
'0:08.488',0.91
'0:08.492',0.32
'0:08.496',-0.04
'0:08.500',-0.23
'0:08.504',-0.18
'0:08.508',-0.08
'0:08.512',0.06
'0:08.516',0.02
'0:08.520',-0.2
'0:08.523',-0.47
'0:08.527',-0.38
'0:08.531',-0.08
'0:08.535',0.11
'0:08.539',0.25
'0:08.543',0.14
'0:08.547',0.13
'0:08.551',0.21
'0:08.555',0.12
'0:08.559',-0.13
'0:08.563',-0.11
'0:08.566',0.12
'0:08.570',0.4
'0:08.574',0.59
'0:08.578',0.79
'0:08.582',1.01
'0:08.586',1.05
'0:08.590',0.74
'0:08.594',0.19
'0:08.598',-0.49
'0:08.602',-0.93
'0:08.605',-1.17
'0:08.609',-1.42
'0:08.613',-1.74
'0:08.617',-2.26
'0:08.621',-2.92
'0:08.625',-3.14
'0:08.629',-2.9
'0:08.633',-2.58
'0:08.637',-2.39
'0:08.641',-2.64
'0:08.645',-3.08
'0:08.648',-3.48
'0:08.652',-3.57
'0:08.656',-2.96
'0:08.660',-1.43
'0:08.664',4.45
'0:08.668',7.24
'0:08.672',8.6
'0:08.676',8.16
'0:08.680',5.41
'0:08.684',1.91
'0:08.688',-1.14
'0:08.691',-3.33
'0:08.695',-4.49
'0:08.699',-4.74
'0:08.703',-4.25
'0:08.707',-3.47
'0:08.711',-2.7
'0:08.715',-1.97
'0:08.719',-1.54
'0:08.723',-1.31
'0:08.727',-0.83
'0:08.730',-0.45
'0:08.734',-0.4
'0:08.738',-0.37
'0:08.742',-0.16
'0:08.746',0.02
'0:08.750',0.31
'0:08.754',0.57
'0:08.758',0.97
'0:08.762',1.25
'0:08.766',1.48
'0:08.770',1.67
'0:08.773',1.99
'0:08.777',2.43
'0:08.781',2.8
'0:08.785',3.12
'0:08.789',3.39
'0:08.793',3.74
'0:08.797',4.08
'0:08.801',4.15
'0:08.805',4.12
'0:08.809',4.06
'0:08.813',3.94
'0:08.816',3.61
'0:08.820',3.28
'0:08.824',2.99
'0:08.828',2.62
'0:08.832',2.12
'0:08.836',1.56
'0:08.840',1.07
'0:08.844',0.6
'0:08.848',0.24
'0:08.852',0.16
'0:08.855',-0.02
'0:08.859',-0.27
'0:08.863',-0.36
'0:08.867',-0.39
'0:08.871',-0.33
'0:08.875',-0.07
'0:08.879',0.26
'0:08.883',0.57
'0:08.887',0.63
'0:08.891',0.59
'0:08.895',0.5
'0:08.898',0.42
'0:08.902',0.29
'0:08.906',0.22
'0:08.910',0.33
'0:08.914',0.5
'0:08.918',0.54
'0:08.922',0.47
'0:08.926',0.4
'0:08.930',0.35
'0:08.934',0.3
'0:08.938',0
'0:08.941',-0.67
'0:08.945',-1.48
'0:08.949',-2.24
'0:08.953',-2.75
'0:08.957',-3.09
'0:08.961',-3.34
'0:08.965',-3.48
'0:08.969',-3.45
'0:08.973',-3.36
'0:08.977',-3.34
'0:08.980',-3.27
'0:08.984',-3.28
'0:08.988',-3.52
'0:08.992',-3.89
'0:08.996',-4.22
'0:09.000',-4.2
'0:09.004',-3.61
'0:09.008',-2.04
'0:09.012',0.71
'0:09.016',3.72
'0:09.020',5.61
'0:09.023',6.1
'0:09.027',4.18
'0:09.031',0.7
'0:09.035',-2.1
'0:09.039',-3.84
'0:09.043',-4.7
'0:09.047',-4.86
'0:09.051',-4.42
'0:09.055',-3.65
'0:09.059',-2.87
'0:09.063',-2.24
'0:09.066',-1.74
'0:09.070',-1.27
'0:09.074',-0.88
'0:09.078',-0.68
'0:09.082',-0.53
'0:09.086',-0.53
'0:09.090',-0.53
'0:09.094',-0.42
'0:09.098',-0.04
'0:09.102',0.61
'0:09.105',0.98
'0:09.109',1.16
'0:09.113',1.43
'0:09.117',1.7
'0:09.121',1.91
'0:09.125',2.15
'0:09.129',2.66
'0:09.133',3.16
'0:09.137',3.59
'0:09.141',4.06
'0:09.145',4.53
'0:09.148',4.88
'0:09.152',4.85
'0:09.156',4.46
'0:09.160',3.93
'0:09.164',3.47
'0:09.168',3.16
'0:09.172',2.89
'0:09.176',2.63
'0:09.180',2.33
'0:09.184',1.84
'0:09.188',1.5
'0:09.191',1.39
'0:09.195',1.18
'0:09.199',0.73
'0:09.203',0.43
'0:09.207',0.29
'0:09.211',0.05
'0:09.215',-0.25
'0:09.219',-0.65
'0:09.223',-0.97
'0:09.227',-0.95
'0:09.230',-0.57
'0:09.234',-0.15
'0:09.238',0.05
'0:09.242',0.08
'0:09.246',0.02
'0:09.250',-0.07
'0:09.254',-0.07
'0:09.258',-0.07
'0:09.262',-0.2
'0:09.266',-0.22
'0:09.270',-0.07
'0:09.273',0.03
'0:09.277',0.01
'0:09.281',-0.2
'0:09.285',-0.5
'0:09.289',-0.76
'0:09.293',-0.96
'0:09.297',-1.59
'0:09.301',-2.41
'0:09.305',-2.94
'0:09.309',-3.27
'0:09.313',-3.56
'0:09.316',-3.65
'0:09.320',-3.63
'0:09.324',-3.5
'0:09.328',-3.33
'0:09.332',-3.31
'0:09.336',-3.6
'0:09.340',-3.93
'0:09.344',-4.06
'0:09.348',-4.09
'0:09.352',-4.21
'0:09.355',-4.07
'0:09.359',-3.26
'0:09.363',-1.75
'0:09.367',0.33
'0:09.371',2.38
'0:09.375',3.33
'0:09.379',3.33
'0:09.383',1.87
'0:09.387',-0.85
'0:09.391',-3.13
'0:09.395',-4.49
'0:09.398',-4.84
'0:09.402',-4.57
'0:09.406',-3.88
'0:09.410',-3.08
'0:09.414',-2.3
'0:09.418',-1.5
'0:09.422',-0.82
'0:09.426',-0.29
'0:09.430',0
'0:09.434',0.18
'0:09.438',0.26
'0:09.441',0.45
'0:09.445',0.55
'0:09.449',0.66
'0:09.453',0.78
'0:09.457',0.91
'0:09.461',1.05
'0:09.465',1.15
'0:09.469',1.34
'0:09.473',1.6
'0:09.477',2.05
'0:09.480',2.69
'0:09.484',3.18
'0:09.488',3.65
'0:09.492',4.06
'0:09.496',4.28
'0:09.500',4.31
'0:09.504',4.47
'0:09.508',4.55
'0:09.512',4.5
'0:09.516',4.37
'0:09.520',4.24
'0:09.523',3.87
'0:09.527',3.35
'0:09.531',2.83
'0:09.535',2.13
'0:09.539',1.57
'0:09.543',0.93
'0:09.547',0.27
'0:09.551',-0.06
'0:09.555',-0.02
'0:09.559',0.04
'0:09.563',-0.28
'0:09.566',-0.7
'0:09.570',-0.99
'0:09.574',-1.3
'0:09.578',-1.35
'0:09.582',-0.99
'0:09.586',-0.47
'0:09.590',-0.06
'0:09.594',0.12
'0:09.598',0.02
'0:09.602',-0.29
'0:09.605',-0.34
'0:09.609',-0.44
'0:09.613',-0.52
'0:09.617',-0.63
'0:09.621',-0.53
'0:09.625',-0.41
'0:09.629',-0.17
'0:09.633',-0.02
'0:09.637',-0.33
'0:09.641',-0.47
'0:09.645',-0.84
'0:09.648',-1.48
'0:09.652',-2.06
'0:09.656',-2.42
'0:09.660',-2.72
'0:09.664',-3.01
'0:09.668',-3.32
'0:09.672',-3.46
'0:09.676',-3.47
'0:09.680',-3.36
'0:09.684',-3.23
'0:09.688',-3.12
'0:09.691',-3.02
'0:09.695',-3.24
'0:09.699',-3.57
'0:09.703',-3.86
'0:09.707',-4.05
'0:09.711',-3.79
'0:09.715',-2.93
'0:09.719',-1.16
'0:09.723',1.54
'0:09.727',4.51
'0:09.730',6.35
'0:09.734',6.95
'0:09.738',5.15
'0:09.742',1.77
'0:09.746',-1.6
'0:09.750',-3.93
'0:09.754',-5
'0:09.758',-5.64
'0:09.762',-5.7
'0:09.766',-5.02
'0:09.770',-4.11
'0:09.773',-3.37
'0:09.777',-2.87
'0:09.781',-2.46
'0:09.785',-1.97
'0:09.789',-1.45
'0:09.793',-1.34
'0:09.797',-1.08
'0:09.801',-0.59
'0:09.805',-0.21
'0:09.809',-0.14
'0:09.813',-0.04
'0:09.816',-0.01
'0:09.820',0.1
'0:09.824',0.2
'0:09.828',0.62
'0:09.832',1.29
'0:09.836',1.74
'0:09.840',1.91
'0:09.844',2.32
'0:09.848',2.59
'0:09.852',2.9
'0:09.855',3.15
'0:09.859',3.4
'0:09.863',3.72
'0:09.867',3.81
'0:09.871',3.39
'0:09.875',3.14
'0:09.879',2.79
'0:09.883',2.47
'0:09.887',2.12
'0:09.891',1.54
'0:09.895',1.04
'0:09.898',0.65
'0:09.902',0.45
'0:09.906',0.38
'0:09.910',0.35
'0:09.914',0.24
'0:09.918',0.22
'0:09.922',0.22
'0:09.926',0.29
'0:09.930',0.08
'0:09.934',-0.2
'0:09.938',-0.34
'0:09.941',-0.29
'0:09.945',-0.28
'0:09.949',-0.06
'0:09.953',0.1
'0:09.957',0.14
'0:09.961',0.22
'0:09.965',0.2
'0:09.969',0.26
'0:09.973',0.53
'0:09.977',0.77
'0:09.980',0.91
'0:09.984',1.06
'0:09.988',1.34
'0:09.992',1.46
'0:09.996',1.31
'0:10.000',0.77
'0:10.004',-0.11
'0:10.008',-0.94
'0:10.012',-1.45
'0:10.016',-1.81
'0:10.020',-1.98
'0:10.023',-2.02
'0:10.027',-2.2
'0:10.031',-2.48
'0:10.035',-2.64
'0:10.039',-2.69
'0:10.043',-2.8
'0:10.047',-2.69
'0:10.051',-2.58
'0:10.055',-2.72
'0:10.059',-2.92
'0:10.063',-2.81
'0:10.066',-2.45
'0:10.070',-1.57
'0:10.074',0.21
'0:10.078',2.97
'0:10.082',6.02
'0:10.086',8.29
'0:10.090',9.23
'0:10.094',7.17
'0:10.098',3.27
'0:10.102',-0.47
'0:10.105',-3
'0:10.109',-4.25
'0:10.113',-4.6
'0:10.117',-4.38
'0:10.121',-3.74
'0:10.125',-2.8
'0:10.129',-1.99
'0:10.133',-1.49
'0:10.137',-1.06
'0:10.141',-0.61
'0:10.145',-0.34
'0:10.148',-0.05
'0:10.152',0.11
'0:10.156',0.31
'0:10.160',0.74
'0:10.164',1.15
'0:10.168',1.35
'0:10.172',1.37
'0:10.176',1.28
'0:10.180',1.28
'0:10.184',1.5
'0:10.188',1.75
'0:10.191',2.07
'0:10.195',2.29
'0:10.199',2.47
'0:10.203',3.01
'0:10.207',3.88
'0:10.211',4.7
'0:10.215',5.15
'0:10.219',5.02
'0:10.223',4.5
'0:10.227',3.85
'0:10.230',3.3
'0:10.234',3.09
'0:10.238',2.94
'0:10.242',2.5
'0:10.246',2.11
'0:10.250',2.12
'0:10.254',2.16
'0:10.258',1.75
'0:10.262',1.13
'0:10.266',0.87
'0:10.270',0.83
'0:10.273',0.71
'0:10.277',0.62
'0:10.281',0.41
'0:10.285',0.31
'0:10.289',0.45
'0:10.293',0.6
'0:10.297',0.69
'0:10.301',0.54
'0:10.305',0.18
'0:10.309',-0.15
'0:10.313',-0.37
'0:10.316',-0.34
'0:10.320',-0.13
'0:10.324',0
'0:10.328',0.03
'0:10.332',0.11
'0:10.336',0.23
'0:10.340',0.27
'0:10.344',0.26
'0:10.348',0.04
'0:10.352',-0.54
'0:10.355',-0.98
'0:10.359',-1.23
'0:10.363',-1.18
'0:10.367',-1.13
'0:10.371',-1.45
'0:10.375',-2.04
'0:10.379',-2.55
'0:10.383',-2.7
'0:10.387',-2.88
'0:10.391',-3.15
'0:10.395',-3.29
'0:10.398',-3.41
'0:10.402',-3.38
'0:10.406',-3.61
'0:10.410',-4.17
'0:10.414',-4.61
'0:10.418',-4.39
'0:10.422',-3.24
'0:10.426',-1.17
'0:10.430',1.59
'0:10.434',3.72
'0:10.438',4.31
'0:10.441',3.74
'0:10.445',1.34
'0:10.449',-1.72
'0:10.453',-3.87
'0:10.457',-4.92
'0:10.461',-5.17
'0:10.465',-4.64
'0:10.469',-3.74
'0:10.473',-3
'0:10.477',-2.38
'0:10.480',-1.75
'0:10.484',-1.27
'0:10.488',-1.01
'0:10.492',-0.87
'0:10.496',-1.03
'0:10.500',-1.01
'0:10.504',-0.63
'0:10.508',-0.12
'0:10.512',0.16
'0:10.516',0.43
'0:10.520',0.85
'0:10.523',1.07
'0:10.527',1.18
'0:10.531',1.48
'0:10.535',1.87
'0:10.539',2.35
'0:10.543',2.86
'0:10.547',3.31
'0:10.551',3.71
'0:10.555',4.3
'0:10.559',4.97
'0:10.563',5.12
'0:10.566',5.06
'0:10.570',4.83
'0:10.574',4.55
'0:10.578',4.33
'0:10.582',3.84
'0:10.586',3.17
'0:10.590',2.64
'0:10.594',2.16
'0:10.598',1.58
'0:10.602',0.97
'0:10.605',0.5
'0:10.609',0.19
'0:10.613',0
'0:10.617',-0.13
'0:10.621',-0.23
'0:10.625',-0.37
'0:10.629',-0.63
'0:10.633',-0.9
'0:10.637',-1.1
'0:10.641',-1.24
'0:10.645',-1.24
'0:10.648',-1.13
'0:10.652',-1.03
'0:10.656',-1.02
'0:10.660',-1.05
'0:10.664',-1.34
'0:10.668',-1.48
'0:10.672',-1.45
'0:10.676',-1.19
'0:10.680',-0.96
'0:10.684',-0.74
'0:10.688',-0.63
'0:10.691',-0.52
'0:10.695',-0.41
'0:10.699',-0.29
'0:10.703',-0.35
'0:10.707',-0.6
'0:10.711',-1.02
'0:10.715',-1.56
'0:10.719',-2.06
'0:10.723',-2.48
'0:10.727',-2.87
'0:10.730',-3.17
'0:10.734',-3.17
'0:10.738',-3.16
'0:10.742',-3.21
'0:10.746',-3.23
'0:10.750',-3.18
'0:10.754',-3.15
'0:10.758',-3.06
'0:10.762',-3.26
'0:10.766',-3.6
'0:10.770',-4.06
'0:10.773',-4.16
'0:10.777',-3.49
'0:10.781',-2.16
'0:10.785',0.11
'0:10.789',2.81
'0:10.793',4.66
'0:10.797',5.42
'0:10.801',4.45
'0:10.805',1.4
'0:10.809',-1.47
'0:10.813',-3.27
'0:10.816',-4.19
'0:10.820',-4.56
'0:10.824',-4.49
'0:10.828',-3.86
'0:10.832',-2.98
'0:10.836',-2.21
'0:10.840',-1.79
'0:10.844',-1.5
'0:10.848',-1.22
'0:10.852',-0.81
'0:10.855',-0.46
'0:10.859',-0.18
'0:10.863',0.06
'0:10.867',0.07
'0:10.871',-0.11
'0:10.875',-0.09
'0:10.879',0.12
'0:10.883',0.46
'0:10.887',0.89
'0:10.891',1.28
'0:10.895',1.54
'0:10.898',1.86
'0:10.902',2.11
'0:10.906',2.37
'0:10.910',2.7
'0:10.914',3.13
'0:10.918',3.56
'0:10.922',3.74
'0:10.926',3.97
'0:10.930',3.9
'0:10.934',3.6
'0:10.938',2.89
'0:10.941',2.33
'0:10.945',2.15
'0:10.949',1.55
'0:10.953',1.08
'0:10.957',1
'0:10.961',0.79
'0:10.965',0.39
'0:10.969',-0.1
'0:10.973',-0.49
'0:10.977',-0.69
'0:10.980',-0.68
'0:10.984',-0.65
'0:10.988',-0.55
'0:10.992',-0.4
'0:10.996',-0.4
'0:11.000',-0.58
'0:11.004',-0.89
'0:11.008',-0.87
'0:11.012',-0.54
'0:11.016',-0.22
'0:11.020',0.04
'0:11.023',0.33
'0:11.027',0.5
'0:11.031',0.48
'0:11.035',0.22
'0:11.039',0.31
'0:11.043',0.61
'0:11.047',0.83
'0:11.051',0.69
'0:11.055',0.5
'0:11.059',0.49
'0:11.063',0.29
'0:11.066',-0.27
'0:11.070',-0.9
'0:11.074',-1.66
'0:11.078',-2.63
'0:11.082',-3.29
'0:11.086',-3.54
'0:11.090',-3.35
'0:11.094',-3.2
'0:11.098',-3.04
'0:11.102',-2.82
'0:11.105',-2.84
'0:11.109',-2.8
'0:11.113',-2.82
'0:11.117',-2.98
'0:11.121',-3.49
'0:11.125',-4.14
'0:11.129',-4.56
'0:11.133',-4.21
'0:11.137',-2.63
'0:11.141',0.39
'0:11.145',4.17
'0:11.148',7.06
'0:11.152',8.45
'0:11.156',8.14
'0:11.160',5.3
'0:11.164',1.58
'0:11.168',-1.64
'0:11.172',-3.86
'0:11.176',-5.08
'0:11.180',-5.36
'0:11.184',-5.06
'0:11.188',-4.39
'0:11.191',-3.61
'0:11.195',-2.84
'0:11.199',-2.22
'0:11.203',-1.88
'0:11.207',-1.72
'0:11.211',-1.73
'0:11.215',-1.62
'0:11.219',-1.36
'0:11.223',-1.12
'0:11.227',-1.03
'0:11.230',-0.85
'0:11.234',-0.34
'0:11.238',0.36
'0:11.242',0.85
'0:11.246',1.06
'0:11.250',1.11
'0:11.254',1.3
'0:11.258',1.82
'0:11.262',2.57
'0:11.266',2.99
'0:11.270',3.07
'0:11.273',3.12
'0:11.277',3.21
'0:11.281',3.37
'0:11.285',3.81
'0:11.289',4.28
'0:11.293',4.25
'0:11.297',3.7
'0:11.301',3.07
'0:11.305',2.59
'0:11.309',2.27
'0:11.313',2
'0:11.316',1.84
'0:11.320',1.5
'0:11.324',1.39
'0:11.328',1.28
'0:11.332',1.07
'0:11.336',0.95
'0:11.340',1.08
'0:11.344',1.13
'0:11.348',0.93
'0:11.352',0.62
'0:11.355',0.34
'0:11.359',0.28
'0:11.363',0.46
'0:11.367',0.79
'0:11.371',0.87
'0:11.375',0.97
'0:11.379',1.25
'0:11.383',1.46
'0:11.387',1.44
'0:11.391',1.39
'0:11.395',1.5
'0:11.398',1.69
'0:11.402',1.78
'0:11.406',1.86
'0:11.410',1.79
'0:11.414',1.63
'0:11.418',1.4
'0:11.422',0.92
'0:11.426',0.16
'0:11.430',-0.42
'0:11.434',-0.78
'0:11.438',-1.14
'0:11.441',-1.53
'0:11.445',-1.76
'0:11.449',-1.98
'0:11.453',-2.07
'0:11.457',-2.16
'0:11.461',-2.13
'0:11.465',-1.89
'0:11.469',-1.73
'0:11.473',-1.94
'0:11.477',-2.57
'0:11.480',-3.16
'0:11.484',-3.41
'0:11.488',-3.12
'0:11.492',-2.12
'0:11.496',-0.24
'0:11.500',2.59
'0:11.504',4.74
'0:11.508',5.57
'0:11.512',4.72
'0:11.516',2.02
'0:11.520',-0.82
'0:11.523',-3.01
'0:11.527',-4.31
'0:11.531',-5.1
'0:11.535',-5.19
'0:11.539',-4.57
'0:11.543',-3.57
'0:11.547',-2.34
'0:11.551',-1.4
'0:11.555',-0.82
'0:11.559',-0.45
'0:11.563',-0.34
'0:11.566',-0.34
'0:11.570',-0.33
'0:11.574',-0.23
'0:11.578',-0.08
'0:11.582',0.03
'0:11.586',0.09
'0:11.590',0.28
'0:11.594',0.54
'0:11.598',0.63
'0:11.602',0.66
'0:11.605',0.87
'0:11.609',1.31
'0:11.613',1.77
'0:11.617',2.24
'0:11.621',2.65
'0:11.625',2.92
'0:11.629',3.19
'0:11.633',3.53
'0:11.637',3.76
'0:11.641',3.88
'0:11.645',3.82
'0:11.648',3.75
'0:11.652',3.63
'0:11.656',3.16
'0:11.660',2.38
'0:11.664',1.7
'0:11.668',1.33
'0:11.672',1.16
'0:11.676',0.84
'0:11.680',0.34
'0:11.684',-0.06
'0:11.688',-0.43
'0:11.691',-0.74
'0:11.695',-0.98
'0:11.699',-1.12
'0:11.703',-1.2
'0:11.707',-1.34
'0:11.711',-1.28
'0:11.715',-1.11
'0:11.719',-0.87
'0:11.723',-0.63
'0:11.727',-0.43
'0:11.730',-0.34
'0:11.734',-0.38
'0:11.738',-0.37
'0:11.742',-0.3
'0:11.746',-0.33
'0:11.750',-0.5
'0:11.754',-0.69
'0:11.758',-0.75
'0:11.762',-0.75
'0:11.766',-0.73
'0:11.770',-0.73
'0:11.773',-0.84
'0:11.777',-1.07
'0:11.781',-1.43
'0:11.785',-2.07
'0:11.789',-2.57
'0:11.793',-2.9
'0:11.797',-3.26
'0:11.801',-3.56
'0:11.805',-3.76
'0:11.809',-3.92
'0:11.813',-3.84
'0:11.816',-3.67
'0:11.820',-3.63
'0:11.824',-3.56
'0:11.828',-3.4
'0:11.832',-3.48
'0:11.836',-3.84
'0:11.840',-4.13
'0:11.844',-4.02
'0:11.848',-3.2
'0:11.852',-1.76
'0:11.855',0.23
'0:11.859',2.29
'0:11.863',3.37
'0:11.867',3.7
'0:11.871',2.7
'0:11.875',-0.04
'0:11.879',-2.48
'0:11.883',-3.99
'0:11.887',-4.48
'0:11.891',-4.29
'0:11.895',-3.82
'0:11.898',-3.04
'0:11.902',-1.97
'0:11.906',-1.02
'0:11.910',-0.55
'0:11.914',-0.4
'0:11.918',-0.06
'0:11.922',0.33
'0:11.926',0.57
'0:11.930',0.7
'0:11.934',0.79
'0:11.938',0.88
'0:11.941',1.03
'0:11.945',1.27
'0:11.949',1.54
'0:11.953',1.86
'0:11.957',2.13
'0:11.961',2.37
'0:11.965',2.49
'0:11.969',2.56
'0:11.973',2.64
'0:11.977',3.04
'0:11.980',3.87
'0:11.984',4.37
'0:11.988',4.64
'0:11.992',4.84
'0:11.996',4.72
'0:12.000',4.48
'0:12.004',4.23
'0:12.008',3.98
'0:12.012',3.35
'0:12.016',2.7
'0:12.020',2.22
'0:12.023',1.83
'0:12.027',1.53
'0:12.031',1.31
'0:12.035',0.92
'0:12.039',0.36
'0:12.043',0.02
'0:12.047',-0.16
'0:12.051',-0.34
'0:12.055',-0.64
'0:12.059',-0.86
'0:12.063',-0.86
'0:12.066',-0.72
'0:12.070',-0.45
'0:12.074',-0.28
'0:12.078',-0.28
'0:12.082',-0.18
'0:12.086',-0.11
'0:12.090',-0.48
'0:12.094',-0.7
'0:12.098',-0.74
'0:12.102',-0.7
'0:12.105',-0.5
'0:12.109',-0.25
'0:12.113',-0.06
'0:12.117',0.06
'0:12.121',0.25
'0:12.125',0.44
'0:12.129',0.39
'0:12.133',0.07
'0:12.137',-0.73
'0:12.141',-1.49
'0:12.145',-2.14
'0:12.148',-2.73
'0:12.152',-3.13
'0:12.156',-3.23
'0:12.160',-3.34
'0:12.164',-3.54
'0:12.168',-3.81
'0:12.172',-3.9
'0:12.176',-3.78
'0:12.180',-3.51
'0:12.184',-3.11
'0:12.188',-3.1
'0:12.191',-3.53
'0:12.195',-4.35
'0:12.199',-4.94
'0:12.203',-5.07
'0:12.207',-4.39
'0:12.211',-2.48
'0:12.215',0.58
'0:12.219',3.68
'0:12.223',5.84
'0:12.227',6.71
'0:12.230',5.24
'0:12.234',1.98
'0:12.238',-1.46
'0:12.242',-3.89
'0:12.246',-5.34
'0:12.250',-5.85
'0:12.254',-5.81
'0:12.258',-5.32
'0:12.262',-4.55
'0:12.266',-4.16
'0:12.270',-4.17
'0:12.273',-4.16
'0:12.277',-4.16
'0:12.281',-4.16
'0:12.285',-4.16
'0:12.289',-4.16
'0:12.293',-1.84
'0:12.297',-1.62
'0:12.301',-0.94
'0:12.305',-0.46
'0:12.309',0.04
'0:12.313',0.15
'0:12.316',0.22
'0:12.320',0.3
'0:12.324',0.25
'0:12.328',0.49
'0:12.332',0.96
'0:12.336',1.58
'0:12.340',2.31
'0:12.344',3.03
'0:12.348',3.36
'0:12.352',3.37
'0:12.355',3.18
'0:12.359',2.94
'0:12.363',2.63
'0:12.367',2.27
'0:12.371',1.94
'0:12.375',1.79
'0:12.379',1.59
'0:12.383',1.27
'0:12.387',1.05
'0:12.391',0.76
'0:12.395',0.33
'0:12.398',-0.07
'0:12.402',-0.19
'0:12.406',-0.19
'0:12.410',-0.14
'0:12.414',0.01
'0:12.418',0.05
'0:12.422',-0.03
'0:12.426',-0.29
'0:12.430',-0.57
'0:12.434',-0.46
'0:12.438',-0.18
'0:12.441',-0.11
'0:12.445',-0.38
'0:12.449',-0.69
'0:12.453',-0.76
'0:12.457',-0.69
'0:12.461',-0.55
'0:12.465',-0.4
'0:12.469',-0.07
'0:12.473',0.22
'0:12.477',0.47
'0:12.480',0.74
'0:12.484',0.88
'0:12.488',0.83
'0:12.492',0.59
'0:12.496',0.07
'0:12.500',-0.59
'0:12.504',-1.13
'0:12.508',-1.51
'0:12.512',-1.83
'0:12.516',-2.08
'0:12.520',-2.26
'0:12.523',-2.15
'0:12.527',-1.91
'0:12.531',-1.78
'0:12.535',-1.86
'0:12.539',-2.04
'0:12.543',-2.11
'0:12.547',-2.34
'0:12.551',-2.73
'0:12.555',-2.98
'0:12.559',-2.92
'0:12.563',-2.56
'0:12.566',-1.41
'0:12.570',0.7
'0:12.574',3.58
'0:12.578',6.08
'0:12.582',7.44
'0:12.586',7.15
'0:12.590',4.53
'0:12.594',1.36
'0:12.598',-1.24
'0:12.602',-2.91
'0:12.605',-3.74
'0:12.609',-3.77
'0:12.613',-3.5
'0:12.617',-3.15
'0:12.621',-2.57
'0:12.625',-1.97
'0:12.629',-1.25
'0:12.633',-0.5
'0:12.637',-0.12
'0:12.641',0.14
'0:12.645',0.22
'0:12.648',0.38
'0:12.652',0.53
'0:12.656',0.93
'0:12.660',1.36
'0:12.664',1.6
'0:12.668',1.72
'0:12.672',1.87
'0:12.676',2.14
'0:12.680',2.5
'0:12.684',2.72
'0:12.688',2.83
'0:12.691',2.89
'0:12.695',3.11
'0:12.699',3.67
'0:12.703',4.14
'0:12.707',4.56
'0:12.711',4.75
'0:12.715',4.73
'0:12.719',4.78
'0:12.723',4.58
'0:12.727',4.03
'0:12.730',3.38
'0:12.734',2.76
'0:12.738',2.2
'0:12.742',1.81
'0:12.746',1.43
'0:12.750',1.28
'0:12.754',1.69
'0:12.758',2.17
'0:12.762',2.38
'0:12.766',2.55
'0:12.770',2.7
'0:12.773',2.84
'0:12.777',2.75
'0:12.781',2.61
'0:12.785',2.76
'0:12.789',3.07
'0:12.793',3.23
'0:12.797',3.08
'0:12.801',3.14
'0:12.805',3.13
'0:12.809',2.99
'0:12.813',2.97
'0:12.816',3.1
'0:12.820',3.09
'0:12.824',3.2
'0:12.828',3.51
'0:12.832',3.77
'0:12.836',3.88
'0:12.840',3.61
'0:12.844',2.98
'0:12.848',1.82
'0:12.852',0.7
'0:12.855',0.24
'0:12.859',0.24
'0:12.863',0.26
'0:12.867',0.11
'0:12.871',-0.07
'0:12.875',-0.47
'0:12.879',-0.88
'0:12.883',-1.21
'0:12.887',-1.61
'0:12.891',-1.88
'0:12.895',-1.97
'0:12.898',-1.81
'0:12.902',-1.79
'0:12.906',-2.24
'0:12.910',-3.04
'0:12.914',-3.48
'0:12.918',-3.14
'0:12.922',-2.09
'0:12.926',-0.42
'0:12.930',1.98
'0:12.934',4.03
'0:12.938',4.62
'0:12.941',4.01
'0:12.945',1.63
'0:12.949',-1.22
'0:12.953',-3.04
'0:12.957',-3.81
'0:12.961',-4.04
'0:12.965',-3.67
'0:12.969',-3.08
'0:12.973',-2.43
'0:12.977',-1.74
'0:12.980',-1.14
'0:12.984',-0.7
'0:12.988',-0.31
'0:12.992',-0.03
'0:12.996',-0.01
'0:13.000',-0.12
'0:13.004',-0.12
'0:13.008',0.04
'0:13.012',0.3
'0:13.016',0.44
'0:13.020',0.4
'0:13.023',0.39
'0:13.027',0.6
'0:13.031',0.93
'0:13.035',1.39
'0:13.039',1.7
'0:13.043',1.82
'0:13.047',2.04
'0:13.051',2.42
'0:13.055',3.07
'0:13.059',3.56
'0:13.063',3.99
'0:13.066',4.39
'0:13.070',4.51
'0:13.074',4.24
'0:13.078',3.94
'0:13.082',3.71
'0:13.086',3.63
'0:13.090',3.35
'0:13.094',2.64
'0:13.098',1.83
'0:13.102',0.98
'0:13.105',0.33
'0:13.109',0.14
'0:13.113',0.11
'0:13.117',-0.07
'0:13.121',-0.44
'0:13.125',-0.67
'0:13.129',-0.8
'0:13.133',-0.82
'0:13.137',-0.98
'0:13.141',-1.09
'0:13.145',-1.19
'0:13.148',-1.19
'0:13.152',-1.26
'0:13.156',-1.08
'0:13.160',-0.73
'0:13.164',-0.45
'0:13.168',-0.5
'0:13.172',-0.72
'0:13.176',-1.01
'0:13.180',-1.19
'0:13.184',-1.27
'0:13.188',-1.3
'0:13.191',-1.36
'0:13.195',-1.19
'0:13.199',-0.9
'0:13.203',-0.74
'0:13.207',-1.09
'0:13.211',-1.46
'0:13.215',-1.95
'0:13.219',-2.59
'0:13.223',-3.15
'0:13.227',-3.66
'0:13.230',-4.16
'0:13.234',-4.44
'0:13.238',-4.61
'0:13.242',-4.49
'0:13.246',-4.27
'0:13.250',-4.12
'0:13.254',-4.02
'0:13.258',-3.99
'0:13.262',-4.2
'0:13.266',-4.53
'0:13.270',-5.13
'0:13.273',-5.56
'0:13.277',-5.34
'0:13.281',-4.38
'0:13.285',-2.69
'0:13.289',-0.02
'0:13.293',2.64
'0:13.297',4.33
'0:13.301',5.07
'0:13.305',3.27
'0:13.309',-0.11
'0:13.313',-3.16
'0:13.316',-5.03
'0:13.320',-6.03
'0:13.324',-6.4
'0:13.328',-6.18
'0:13.332',-5.6
'0:13.336',-4.83
'0:13.340',-3.94
'0:13.344',-3.23
'0:13.348',-2.78
'0:13.352',-2.36
'0:13.355',-2.02
'0:13.359',-1.95
'0:13.363',-1.82
'0:13.367',-1.69
'0:13.371',-1.52
'0:13.375',-1.21
'0:13.379',-0.82
'0:13.383',-0.52
'0:13.387',-0.43
'0:13.391',-0.53
'0:13.395',-0.31
'0:13.398',0.08
'0:13.402',0.42
'0:13.406',0.9
'0:13.410',1.32
'0:13.414',1.61
'0:13.418',2.05
'0:13.422',2.33
'0:13.426',2.5
'0:13.430',2.63
'0:13.434',2.55
'0:13.438',2.17
'0:13.441',1.68
'0:13.445',1.54
'0:13.449',1.42
'0:13.453',1.05
'0:13.457',0.64
'0:13.461',0.26
'0:13.465',0.03
'0:13.469',-0.27
'0:13.473',-0.57
'0:13.477',-0.8
'0:13.480',-0.84
'0:13.484',-0.89
'0:13.488',-0.64
'0:13.492',-0.58
'0:13.496',-0.67
'0:13.500',-0.84
'0:13.504',-0.99
'0:13.508',-1.04
'0:13.512',-0.86
'0:13.516',-0.59
'0:13.520',-0.19
'0:13.523',0
'0:13.527',-0.2
'0:13.531',-0.39
'0:13.535',-0.29
'0:13.539',-0.24
'0:13.543',-0.19
'0:13.547',-0.22
'0:13.551',-0.11
'0:13.555',0.14
'0:13.559',0.51
'0:13.563',0.75
'0:13.566',0.74
'0:13.570',0.45
'0:13.574',-0.18
'0:13.578',-0.93
'0:13.582',-1.41
'0:13.586',-1.69
'0:13.590',-1.85
'0:13.594',-1.96
'0:13.598',-2.21
'0:13.602',-2.29
'0:13.605',-2.02
'0:13.609',-1.71
'0:13.613',-1.63
'0:13.617',-1.95
'0:13.621',-2.39
'0:13.625',-2.59
'0:13.629',-2.93
'0:13.633',-3.31
'0:13.637',-3.23
'0:13.641',-2.04
'0:13.645',0.01
'0:13.648',3.21
'0:13.652',6.45
'0:13.656',8.22
'0:13.660',8.82
'0:13.664',6.88
'0:13.668',3.21
'0:13.672',-0.34
'0:13.676',-2.98
'0:13.680',-4.37
'0:13.684',-4.61
'0:13.688',-4.31
'0:13.691',-3.59
'0:13.695',-2.42
'0:13.699',-1.73
'0:13.703',-1.45
'0:13.707',-0.96
'0:13.711',-0.21
'0:13.715',0.51
'0:13.719',1.03
'0:13.723',1.26
'0:13.727',1.61
'0:13.730',1.72
'0:13.734',1.56
'0:13.738',1.72
'0:13.742',1.73
'0:13.746',1.52
'0:13.750',1.52
'0:13.754',1.76
'0:13.758',2.13
'0:13.762',2.58
'0:13.766',3.08
'0:13.770',3.36
'0:13.773',3.24
'0:13.777',3.39
'0:13.781',4.12
'0:13.785',4.96
'0:13.789',5.44
'0:13.793',5.41
'0:13.797',4.92
'0:13.801',4.73
'0:13.805',4.3
'0:13.809',3.66
'0:13.813',3.1
'0:13.816',2.69
'0:13.820',2.5
'0:13.824',2.22
'0:13.828',1.76
'0:13.832',1.21
'0:13.836',0.5
'0:13.840',0.05
'0:13.844',0.1
'0:13.848',-0.14
'0:13.852',-0.34
'0:13.855',-0.32
'0:13.859',-0.21
'0:13.863',-0.05
'0:13.867',-0.06
'0:13.871',-0.36
'0:13.875',-0.4
'0:13.879',-0.11
'0:13.883',0.14
'0:13.887',0.09
'0:13.891',-0.31
'0:13.895',-0.78
'0:13.898',-0.76
'0:13.902',-0.13
'0:13.906',0.52
'0:13.910',0.66
'0:13.914',0.62
'0:13.918',0.66
'0:13.922',0.47
'0:13.926',0.1
'0:13.930',-0.39
'0:13.934',-0.56
'0:13.938',-0.79
'0:13.941',-1.66
'0:13.945',-2.4
'0:13.949',-2.75
'0:13.953',-2.62
'0:13.957',-2.4
'0:13.961',-2.4
'0:13.965',-2.56
'0:13.969',-2.61
'0:13.973',-2.59
'0:13.977',-2.45
'0:13.980',-2.99
'0:13.984',-3.98
'0:13.988',-4.37
'0:13.992',-3.82
'0:13.996',-2.65
'0:14.000',-1.32
'0:14.004',0.35
'0:14.008',2.64
'0:14.012',4.32
'0:14.016',4.66
'0:14.020',3.45
'0:14.023',0.49
'0:14.027',-2.37
'0:14.031',-4.2
'0:14.035',-4.61
'0:14.039',-4.03
'0:14.043',-3.09
'0:14.047',-2.34
'0:14.051',-1.91
'0:14.055',-1.55
'0:14.059',-1.19
'0:14.063',-0.82
'0:14.066',-0.32
'0:14.070',0.04
'0:14.074',0.59
'0:14.078',0.97
'0:14.082',0.98
'0:14.086',0.68
'0:14.090',0.47
'0:14.094',0.53
'0:14.098',0.88
'0:14.102',1.44
'0:14.105',1.84
'0:14.109',2.14
'0:14.113',2.33
'0:14.117',2.48
'0:14.121',2.56
'0:14.125',2.72
'0:14.129',2.98
'0:14.133',3.37
'0:14.137',3.73
'0:14.141',3.99
'0:14.145',3.98
'0:14.148',3.85
'0:14.152',3.83
'0:14.156',3.72
'0:14.160',3.47
'0:14.164',3.02
'0:14.168',2.44
'0:14.172',1.88
'0:14.176',1.38
'0:14.180',0.83
'0:14.184',0.13
'0:14.188',-0.36
'0:14.191',-0.71
'0:14.195',-1
'0:14.199',-1.3
'0:14.203',-1.5
'0:14.207',-1.77
'0:14.211',-1.76
'0:14.215',-1.75
'0:14.219',-1.82
'0:14.223',-1.78
'0:14.227',-1.7
'0:14.230',-1.75
'0:14.234',-1.82
'0:14.238',-1.7
'0:14.242',-1.58
'0:14.246',-1.63
'0:14.250',-1.69
'0:14.254',-1.75
'0:14.258',-1.7
'0:14.262',-1.63
'0:14.266',-1.38
'0:14.270',-1.01
'0:14.273',-0.67
'0:14.277',-0.34
'0:14.281',-0.08
'0:14.285',-0.01
'0:14.289',-0.38
'0:14.293',-0.97
'0:14.297',-1.58
'0:14.301',-2.12
'0:14.305',-2.54
'0:14.309',-2.93
'0:14.313',-3.13
'0:14.316',-3.14
'0:14.320',-3.28
'0:14.324',-3.38
'0:14.328',-3.29
'0:14.332',-3.1
'0:14.336',-2.97
'0:14.340',-3.02
'0:14.344',-3.27
'0:14.348',-3.68
'0:14.352',-3.87
'0:14.355',-3.78
'0:14.359',-3.37
'0:14.363',-2.15
'0:14.367',0.22
'0:14.371',3.03
'0:14.375',4.87
'0:14.379',5.7
'0:14.383',4.84
'0:14.387',1.85
'0:14.391',-1.05
'0:14.395',-3.23
'0:14.398',-4.24
'0:14.402',-4.41
'0:14.406',-4.39
'0:14.410',-4.13
'0:14.414',-3.53
'0:14.418',-2.74
'0:14.422',-2.02
'0:14.426',-1.46
'0:14.430',-0.85
'0:14.434',-0.52
'0:14.438',-0.51
'0:14.441',-0.51
'0:14.445',-0.42
'0:14.449',-0.18
'0:14.453',0.11
'0:14.457',0.64
'0:14.461',0.92
'0:14.465',1.05
'0:14.469',1.19
'0:14.473',1.38
'0:14.477',1.46
'0:14.480',1.55
'0:14.484',1.72
'0:14.488',2.22
'0:14.492',2.78
'0:14.496',3.31
'0:14.500',3.91
'0:14.504',4.12
'0:14.508',4.07
'0:14.512',4.11
'0:14.516',4.08
'0:14.520',3.68
'0:14.523',3.21
'0:14.527',2.77
'0:14.531',2.24
'0:14.535',2
'0:14.539',1.73
'0:14.543',1.35
'0:14.547',1.13
'0:14.551',0.62
'0:14.555',0.04
'0:14.559',-0.05
'0:14.563',0.12
'0:14.566',0.36
'0:14.570',0.24
'0:14.574',-0.12
'0:14.578',-0.23
'0:14.582',-0.12
'0:14.586',0
'0:14.590',0.14
'0:14.594',0.13
'0:14.598',-0.02
'0:14.602',-0.21
'0:14.605',-0.29
'0:14.609',-0.06
'0:14.613',0.19
'0:14.617',0.34
'0:14.621',0.4
'0:14.625',0.33
'0:14.629',0.16
'0:14.633',0.07
'0:14.637',0.22
'0:14.641',0.5
'0:14.645',0.72
'0:14.648',1.03
'0:14.652',0.95
'0:14.656',0.19
'0:14.660',-0.71
'0:14.664',-1.55
'0:14.668',-1.98
'0:14.672',-2.19
'0:14.676',-2.38
'0:14.680',-2.48
'0:14.684',-2.46
'0:14.688',-2.46
'0:14.691',-2.47
'0:14.695',-2.29
'0:14.699',-2.28
'0:14.703',-2.72
'0:14.707',-3.43
'0:14.711',-4.25
'0:14.715',-4.77
'0:14.719',-4.43
'0:14.723',-2.93
'0:14.727',-0.31
'0:14.730',3.13
'0:14.734',6.16
'0:14.738',8.12
'0:14.742',8.49
'0:14.746',5.98
'0:14.750',2.15
'0:14.754',-1.2
'0:14.758',-3.55
'0:14.762',-4.86
'0:14.766',-5.21
'0:14.770',-4.84
'0:14.773',-4.19
'0:14.777',-3.53
'0:14.781',-2.93
'0:14.785',-2.43
'0:14.789',-2.12
'0:14.793',-1.81
'0:14.797',-1.28
'0:14.801',-0.75
'0:14.805',-0.33
'0:14.809',0.11
'0:14.813',0.27
'0:14.816',0.3
'0:14.820',0.46
'0:14.824',0.91
'0:14.828',1.42
'0:14.832',1.61
'0:14.836',1.49
'0:14.840',1.65
'0:14.844',2.31
'0:14.848',2.89
'0:14.852',3.42
'0:14.855',4.09
'0:14.859',4.59
'0:14.863',4.71
'0:14.867',4.27
'0:14.871',3.82
'0:14.875',3.59
'0:14.879',3.7
'0:14.883',3.6
'0:14.887',3.07
'0:14.891',2.41
'0:14.895',1.96
'0:14.898',1.8
'0:14.902',1.64
'0:14.906',1.3
'0:14.910',0.78
'0:14.914',0.45
'0:14.918',0.53
'0:14.922',0.67
'0:14.926',0.27
'0:14.930',-0.44
'0:14.934',-0.84
'0:14.938',-1.05
'0:14.941',-1.28
'0:14.945',-1.43
'0:14.949',-1.27
'0:14.953',-0.74
'0:14.957',-0.37
'0:14.961',-0.39
'0:14.965',-0.51
'0:14.969',-0.51
'0:14.973',-0.3
'0:14.977',0.02
'0:14.980',0.01
'0:14.984',0.09
'0:14.988',0.3
'0:14.992',0.48
'0:14.996',0.68
'0:15.000',0.83
'0:15.004',0.73
'0:15.008',0.5
'0:15.012',0.11
'0:15.016',-0.53
'0:15.020',-1.22
'0:15.023',-1.64
'0:15.027',-2.03
'0:15.031',-2.44
'0:15.035',-2.74
'0:15.039',-2.96
'0:15.043',-3.13
'0:15.047',-3.21
'0:15.051',-3.12
'0:15.055',-3.29
'0:15.059',-3.53
'0:15.063',-3.6
'0:15.066',-3.63
'0:15.070',-3.6
'0:15.074',-3.75
'0:15.078',-3.64
'0:15.082',-2.84
'0:15.086',-1.05
'0:15.090',1.54
'0:15.094',3.79
'0:15.098',4.69
'0:15.102',4.48
'0:15.105',2.32
'0:15.109',-0.71
'0:15.113',-3.12
'0:15.117',-4.43
'0:15.121',-4.94
'0:15.125',-4.91
'0:15.129',-4.27
'0:15.133',-3.2
'0:15.137',-2.1
'0:15.141',-1.28
'0:15.145',-0.74
'0:15.148',-0.38
'0:15.152',-0.05
'0:15.156',0.17
'0:15.160',0.36
'0:15.164',0.38
'0:15.168',0.44
'0:15.172',0.63
'0:15.176',0.75
'0:15.180',0.87
'0:15.184',1.02
'0:15.188',1.31
'0:15.191',1.65
'0:15.195',2.03
'0:15.199',2.5
'0:15.203',2.87
'0:15.207',3.25
'0:15.211',3.86
'0:15.215',4.48
'0:15.219',4.75
'0:15.223',4.61
'0:15.227',4.53
'0:15.230',4.68
'0:15.234',4.61
'0:15.238',4.32
'0:15.242',4.08
'0:15.246',3.74
'0:15.250',3.31
'0:15.254',2.84
'0:15.258',2.26
'0:15.262',1.66
'0:15.266',1.21
'0:15.270',0.89
'0:15.273',0.71
'0:15.277',0.51
'0:15.281',0.32
'0:15.285',0.31
'0:15.289',0.43
'0:15.293',0.4
'0:15.297',0.07
'0:15.301',-0.14
'0:15.305',-0.17
'0:15.309',-0.45
'0:15.313',-0.67
'0:15.316',-0.61
'0:15.320',-0.3
'0:15.324',0.02
'0:15.328',0.23
'0:15.332',0.32
'0:15.336',0.14
'0:15.340',-0.07
'0:15.344',0.04
'0:15.348',0.19
'0:15.352',0.37
'0:15.355',0.54
'0:15.359',0.47
'0:15.363',0.42
'0:15.367',0.51
'0:15.371',0.7
'0:15.375',0.7
'0:15.379',0.26
'0:15.383',-0.48
'0:15.387',-1.15
'0:15.391',-1.64
'0:15.395',-1.99
'0:15.398',-2.29
'0:15.402',-2.64
'0:15.406',-2.89
'0:15.410',-2.81
'0:15.414',-2.6
'0:15.418',-2.54
'0:15.422',-2.43
'0:15.426',-2.64
'0:15.430',-2.96
'0:15.434',-3.46
'0:15.438',-3.79
'0:15.441',-3.74
'0:15.445',-3.14
'0:15.449',-1.8
'0:15.453',0.58
'0:15.457',3.22
'0:15.461',4.86
'0:15.465',5.41
'0:15.469',4.14
'0:15.473',1.21
'0:15.477',-1.69
'0:15.480',-4.04
'0:15.484',-5.19
'0:15.488',-5.22
'0:15.492',-4.65
'0:15.496',-4.03
'0:15.500',-3.38
'0:15.504',-2.75
'0:15.508',-2.33
'0:15.512',-2.01
'0:15.516',-1.69
'0:15.520',-1.3
'0:15.523',-1.02
'0:15.527',-0.64
'0:15.531',-0.3
'0:15.535',0.16
'0:15.539',0.62
'0:15.543',1.03
'0:15.547',1.2
'0:15.551',1.17
'0:15.555',1.12
'0:15.559',1.14
'0:15.563',1.48
'0:15.566',1.8
'0:15.570',2.21
'0:15.574',2.69
'0:15.578',3.07
'0:15.582',3.25
'0:15.586',3.27
'0:15.590',3.19
'0:15.594',3.26
'0:15.598',3.49
'0:15.602',3.41
'0:15.605',3.11
'0:15.609',2.56
'0:15.613',1.82
'0:15.617',1.16
'0:15.621',0.79
'0:15.625',0.52
'0:15.629',0.21
'0:15.633',-0.12
'0:15.637',-0.59
'0:15.641',-0.99
'0:15.645',-1.2
'0:15.648',-1.21
'0:15.652',-1.26
'0:15.656',-1.39
'0:15.660',-1.32
'0:15.664',-1.24
'0:15.668',-1.05
'0:15.672',-0.72
'0:15.676',-0.44
'0:15.680',-0.41
'0:15.684',-0.58
'0:15.688',-0.68
'0:15.691',-0.78
'0:15.695',-0.7
'0:15.699',-0.6
'0:15.703',-0.7
'0:15.707',-0.87
'0:15.711',-0.82
'0:15.715',-0.69
'0:15.719',-0.47
'0:15.723',-0.39
'0:15.727',-0.24
'0:15.730',0.02
'0:15.734',0.1
'0:15.738',-0.06
'0:15.742',-0.66
'0:15.746',-1.42
'0:15.750',-2.07
'0:15.754',-2.46
'0:15.758',-2.7
'0:15.762',-2.84
'0:15.766',-2.89
'0:15.770',-2.85
'0:15.773',-2.87
'0:15.777',-3.16
'0:15.781',-3.31
'0:15.785',-3.33
'0:15.789',-3.24
'0:15.793',-3.63
'0:15.797',-4.32
'0:15.801',-4.66
'0:15.805',-4.45
'0:15.809',-3.73
'0:15.813',-1.99
'0:15.816',1.01
'0:15.820',4.3
'0:15.824',6.6
'0:15.828',7.53
'0:15.832',6.1
'0:15.836',2.78
'0:15.840',-0.47
'0:15.844',-3.03
'0:15.848',-4.53
'0:15.852',-5.08
'0:15.855',-4.97
'0:15.859',-4.48
'0:15.863',-3.98
'0:15.867',-3.4
'0:15.871',-2.82
'0:15.875',-2.23
'0:15.879',-1.72
'0:15.883',-1.43
'0:15.887',-1.22
'0:15.891',-0.99
'0:15.895',-0.76
'0:15.898',-0.54
'0:15.902',-0.27
'0:15.906',0.02
'0:15.910',0.31
'0:15.914',0.51
'0:15.918',0.82
'0:15.922',1.24
'0:15.926',1.55
'0:15.930',1.89
'0:15.934',2.23
'0:15.938',2.48
'0:15.941',2.79
'0:15.945',3.23
'0:15.949',3.6
'0:15.953',3.82
'0:15.957',3.88
'0:15.961',3.79
'0:15.965',3.64
'0:15.969',3.19
'0:15.973',2.7
'0:15.977',2.26
'0:15.980',2.05
'0:15.984',1.95
'0:15.988',1.76
'0:15.992',1.52
'0:15.996',1.16
'0:16.000',0.91
'0:16.004',0.71
'0:16.008',0.45
'0:16.012',0.02
'0:16.016',-0.54
'0:16.020',-0.95
'0:16.023',-0.81
'0:16.027',-0.68
'0:16.031',-0.73
'0:16.035',-0.62
'0:16.039',-0.41
'0:16.043',-0.34
'0:16.047',-0.46
'0:16.051',-0.46
'0:16.055',-0.32
'0:16.059',-0.17
'0:16.063',0.02
'0:16.066',0.24
'0:16.070',0.41
'0:16.074',0.53
'0:16.078',0.78
'0:16.082',0.98
'0:16.086',0.9
'0:16.090',0.95
'0:16.094',1.02
'0:16.098',0.63
'0:16.102',-0.07
'0:16.105',-0.66
'0:16.109',-1.01
'0:16.113',-1.33
'0:16.117',-1.69
'0:16.121',-1.99
'0:16.125',-2.33
'0:16.129',-2.41
'0:16.133',-2.15
'0:16.137',-1.95
'0:16.141',-1.95
'0:16.145',-2.04
'0:16.148',-2.26
'0:16.152',-2.37
'0:16.156',-2.6
'0:16.160',-2.78
'0:16.164',-2.85
'0:16.168',-2.98
'0:16.172',-2.29
'0:16.176',-0.33
'0:16.180',2.48
'0:16.184',4.43
'0:16.188',5.08
'0:16.191',4.57
'0:16.195',2.14
'0:16.199',-0.8
'0:16.203',-3.02
'0:16.207',-3.93
'0:16.211',-3.95
'0:16.215',-3.48
'0:16.219',-2.48
'0:16.223',-1.64
'0:16.227',-0.99
'0:16.230',-0.54
'0:16.234',-0.4
'0:16.238',-0.28
'0:16.242',-0.06
'0:16.246',0.06
'0:16.250',0.03
'0:16.254',0.19
'0:16.258',0.56
'0:16.262',1.18
'0:16.266',1.53
'0:16.270',1.65
'0:16.273',1.71
'0:16.277',1.85
'0:16.281',2.13
'0:16.285',2.48
'0:16.289',2.84
'0:16.293',3.09
'0:16.297',3.41
'0:16.301',3.86
'0:16.305',4.54
'0:16.309',5.01
'0:16.313',5.27
'0:16.316',5.12
'0:16.320',4.9
'0:16.324',4.61
'0:16.328',4.28
'0:16.332',4.07
'0:16.336',3.69
'0:16.340',3.05
'0:16.344',2.45
'0:16.348',1.99
'0:16.352',1.53
'0:16.355',1.11
'0:16.359',0.62
'0:16.363',-0.05
'0:16.367',-0.38
'0:16.371',-0.32
'0:16.375',-0.33
'0:16.379',-0.27
'0:16.383',-0.14
'0:16.387',-0.19
'0:16.391',-0.33
'0:16.395',-0.6
'0:16.398',-0.85
'0:16.402',-0.99
'0:16.406',-0.76
'0:16.410',-0.28
'0:16.414',0.1
'0:16.418',0.13
'0:16.422',0.21
'0:16.426',0.25
'0:16.430',0.11
'0:16.434',-0.11
'0:16.438',-0.33
'0:16.441',-0.2
'0:16.445',0.3
'0:16.449',0.67
'0:16.453',0.87
'0:16.457',0.97
'0:16.461',0.92
'0:16.465',0.64
'0:16.469',0.27
'0:16.473',-0.2
'0:16.477',-0.62
'0:16.480',-1.19
'0:16.484',-1.83
'0:16.488',-2.3
'0:16.492',-2.51
'0:16.496',-2.6
'0:16.500',-2.58
'0:16.504',-2.56
'0:16.508',-2.51
'0:16.512',-2.31
'0:16.516',-2.27
'0:16.520',-2.48
'0:16.523',-2.76
'0:16.527',-3.2
'0:16.531',-3.36
'0:16.535',-3.21
'0:16.539',-2.22
'0:16.543',-0.17
'0:16.547',2.63
'0:16.551',4.64
'0:16.555',5.51
'0:16.559',5.26
'0:16.563',2.74
'0:16.566',-0.64
'0:16.570',-3.21
'0:16.574',-4.63
'0:16.578',-4.95
'0:16.582',-4.64
'0:16.586',-4.23
'0:16.590',-3.41
'0:16.594',-2.55
'0:16.598',-1.92
'0:16.602',-1.52
'0:16.605',-1.23
'0:16.609',-0.91
'0:16.613',-0.56
'0:16.617',-0.34
'0:16.621',-0.34
'0:16.625',-0.34
'0:16.629',-0.31
'0:16.633',-0.13
'0:16.637',0.31
'0:16.641',0.75
'0:16.645',0.9
'0:16.648',0.84
'0:16.652',0.87
'0:16.656',1.23
'0:16.660',1.75
'0:16.664',2.37
'0:16.668',2.76
'0:16.672',3
'0:16.676',3.13
'0:16.680',3.19
'0:16.684',3.19
'0:16.688',3.14
'0:16.691',3.03
'0:16.695',2.72
'0:16.699',2.28
'0:16.703',1.98
'0:16.707',1.67
'0:16.711',1.37
'0:16.715',1.04
'0:16.719',0.51
'0:16.723',0.06
'0:16.727',-0.08
'0:16.730',-0.22
'0:16.734',-0.5
'0:16.738',-0.7
'0:16.742',-0.79
'0:16.746',-0.99
'0:16.750',-1.02
'0:16.754',-1.34
'0:16.758',-1.63
'0:16.762',-1.63
'0:16.766',-1.61
'0:16.770',-1.4
'0:16.773',-1.1
'0:16.777',-1.12
'0:16.781',-1.15
'0:16.785',-1.07
'0:16.789',-0.98
'0:16.793',-0.86
'0:16.797',-0.73
'0:16.801',-0.75
'0:16.805',-0.85
'0:16.809',-1.02
'0:16.813',-1.02
'0:16.816',-0.81
'0:16.820',-0.56
'0:16.824',-0.39
'0:16.828',-0.4
'0:16.832',-0.48
'0:16.836',-0.91
'0:16.840',-1.64
'0:16.844',-2.27
'0:16.848',-3
'0:16.852',-3.45
'0:16.855',-3.59
'0:16.859',-3.65
'0:16.863',-3.71
'0:16.867',-3.75
'0:16.871',-3.78
'0:16.875',-3.85
'0:16.879',-3.8
'0:16.883',-3.82
'0:16.887',-4.04
'0:16.891',-4.33
'0:16.895',-4.48
'0:16.898',-4.43
'0:16.902',-3.85
'0:16.906',-2.34
'0:16.910',0.43
'0:16.914',3.9
'0:16.918',6.78
'0:16.922',8.46
'0:16.926',7.94
'0:16.930',4.79
'0:16.934',1.05
'0:16.938',-2.26
'0:16.941',-4.36
'0:16.945',-5.27
'0:16.949',-5.4
'0:16.953',-5.05
'0:16.957',-4.47
'0:16.961',-3.86
'0:16.965',-3.16
'0:16.969',-2.48
'0:16.973',-1.96
'0:16.977',-1.5
'0:16.980',-1.12
'0:16.984',-0.95
'0:16.988',-0.63
'0:16.992',-0.22
'0:16.996',-0.05
'0:17.000',0.05
'0:17.004',0.29
'0:17.008',0.49
'0:17.012',0.58
'0:17.016',0.73
'0:17.020',1.13
'0:17.023',1.52
'0:17.027',1.97
'0:17.031',2.54
'0:17.035',3.05
'0:17.039',3.48
'0:17.043',3.67
'0:17.047',3.77
'0:17.051',3.88
'0:17.055',3.81
'0:17.059',3.57
'0:17.063',3.25
'0:17.066',2.89
'0:17.070',2.71
'0:17.074',2.69
'0:17.078',2.47
'0:17.082',2.09
'0:17.086',1.57
'0:17.090',1.18
'0:17.094',0.95
'0:17.098',0.76
'0:17.102',0.69
'0:17.105',0.66
'0:17.109',0.47
'0:17.113',0.02
'0:17.117',-0.23
'0:17.121',-0.4
'0:17.125',-0.53
'0:17.129',-0.57
'0:17.133',-0.63
'0:17.137',-0.68
'0:17.141',-0.61
'0:17.145',-0.32
'0:17.148',0.23
'0:17.152',0.63
'0:17.156',0.73
'0:17.160',0.52
'0:17.164',0.26
'0:17.168',0.09
'0:17.172',0.39
'0:17.176',0.77
'0:17.180',0.84
'0:17.184',0.76
'0:17.188',0.9
'0:17.191',1
'0:17.195',0.82
'0:17.199',0.42
'0:17.203',-0.03
'0:17.207',-0.62
'0:17.211',-1.25
'0:17.215',-1.95
'0:17.219',-2.69
'0:17.223',-2.93
'0:17.227',-2.61
'0:17.230',-2.44
'0:17.234',-2.63
'0:17.238',-2.73
'0:17.242',-2.96
'0:17.246',-3.09
'0:17.250',-2.97
'0:17.254',-2.8
'0:17.258',-3.01
'0:17.262',-3.47
'0:17.266',-3.89
'0:17.270',-3.93
'0:17.273',-2.91
'0:17.277',-0.33
'0:17.281',3.04
'0:17.285',4.98
'0:17.289',5.43
'0:17.293',4.23
'0:17.297',1.09
'0:17.301',-1.78
'0:17.305',-3.5
'0:17.309',-4.27
'0:17.313',-4.45
'0:17.316',-4.01
'0:17.320',-2.91
'0:17.324',-1.64
'0:17.328',-0.73
'0:17.332',-0.23
'0:17.336',-0.12
'0:17.340',-0.17
'0:17.344',0.04
'0:17.348',0.39
'0:17.352',0.63
'0:17.355',0.73
'0:17.359',0.76
'0:17.363',0.9
'0:17.367',1.23
'0:17.371',1.6
'0:17.375',2.09
'0:17.379',2.46
'0:17.383',2.42
'0:17.387',2
'0:17.391',1.97
'0:17.395',2.44
'0:17.398',3.32
'0:17.402',4.08
'0:17.406',4.6
'0:17.410',4.96
'0:17.414',5.21
'0:17.418',5.22
'0:17.422',5.01
'0:17.426',4.74
'0:17.430',4.56
'0:17.434',4.12
'0:17.438',3.46
'0:17.441',2.96
'0:17.445',2.48
'0:17.449',2.04
'0:17.453',1.71
'0:17.457',1.42
'0:17.461',1.03
'0:17.465',0.62
'0:17.469',0.31
'0:17.473',0.04
'0:17.477',-0.14
'0:17.480',-0.26
'0:17.484',-0.48
'0:17.488',-0.72
'0:17.492',-0.85
'0:17.496',-0.89
'0:17.500',-0.97
'0:17.504',-0.99
'0:17.508',-0.85
'0:17.512',-0.78
'0:17.516',-0.64
'0:17.520',-0.56
'0:17.523',-0.41
'0:17.527',-0.33
'0:17.531',-0.48
'0:17.535',-0.67
'0:17.539',-0.82
'0:17.543',-0.87
'0:17.547',-0.69
'0:17.551',-0.42
'0:17.555',-0.03
'0:17.559',0.25
'0:17.563',0.15
'0:17.566',0.08
'0:17.570',-0.22
'0:17.574',-0.72
'0:17.578',-0.99
'0:17.582',-1.37
'0:17.586',-1.72
'0:17.590',-2.08
'0:17.594',-2.62
'0:17.598',-2.97
'0:17.602',-2.85
'0:17.605',-2.71
'0:17.609',-2.61
'0:17.613',-2.41
'0:17.617',-2.19
'0:17.621',-2.28
'0:17.625',-2.53
'0:17.629',-2.8
'0:17.633',-3.02
'0:17.637',-2.81
'0:17.641',-1.66
'0:17.645',0.16
'0:17.648',2.88
'0:17.652',4.84
'0:17.656',5.53
'0:17.660',5.05
'0:17.664',2.66
'0:17.668',-0.44
'0:17.672',-2.87
'0:17.676',-4.02
'0:17.680',-4.31
'0:17.684',-3.98
'0:17.688',-3.38
'0:17.691',-2.82
'0:17.695',-2.39
'0:17.699',-2.01
'0:17.703',-1.59
'0:17.707',-1.13
'0:17.711',-0.65
'0:17.715',-0.32
'0:17.719',-0.23
'0:17.723',-0.29
'0:17.727',-0.17
'0:17.730',0.03
'0:17.734',0.31
'0:17.738',0.47
'0:17.742',0.61
'0:17.746',0.76
'0:17.750',1.21
'0:17.754',1.7
'0:17.758',2.07
'0:17.762',2.25
'0:17.766',2.35
'0:17.770',2.6
'0:17.773',2.98
'0:17.777',3.28
'0:17.781',3.56
'0:17.785',3.73
'0:17.789',3.87
'0:17.793',3.74
'0:17.797',3.32
'0:17.801',2.98
'0:17.805',2.67
'0:17.809',2.28
'0:17.813',2.04
'0:17.816',1.58
'0:17.820',0.99
'0:17.824',0.43
'0:17.828',0.2
'0:17.832',0.05
'0:17.836',-0.01
'0:17.840',-0.11
'0:17.844',-0.21
'0:17.848',-0.41
'0:17.852',-0.64
'0:17.855',-0.96
'0:17.859',-1.04
'0:17.863',-1.16
'0:17.867',-1.21
'0:17.871',-1.14
'0:17.875',-1.1
'0:17.879',-0.92
'0:17.883',-0.77
'0:17.887',-0.49
'0:17.891',-0.11
'0:17.895',-0.08
'0:17.898',-0.57
'0:17.902',-0.87
'0:17.906',-0.94
'0:17.910',-0.8
'0:17.914',-0.54
'0:17.918',-0.25
'0:17.922',-0.1
'0:17.926',0.02
'0:17.930',0.27
'0:17.934',0.37
'0:17.938',0.25
'0:17.941',-0.22
'0:17.945',-1.12
'0:17.949',-1.93
'0:17.953',-2.62
'0:17.957',-3.13
'0:17.961',-3.3
'0:17.965',-3.33
'0:17.969',-3.35
'0:17.973',-3.39
'0:17.977',-3.16
'0:17.980',-2.95
'0:17.984',-2.71
'0:17.988',-2.75
'0:17.992',-3.01
'0:17.996',-3.02
'0:18.000',-3.06
'0:18.004',-3.39
'0:18.008',-3.56
'0:18.012',-2.5
'0:18.016',-0.04
'0:18.020',3.26
'0:18.023',6.13
'0:18.027',7.86
'0:18.031',7.62
'0:18.035',4.76
'0:18.039',1.07
'0:18.043',-2.12
'0:18.047',-4.18
'0:18.051',-5.06
'0:18.055',-5.09
'0:18.059',-4.72
'0:18.063',-4.09
'0:18.066',-3.4
'0:18.070',-2.57
'0:18.074',-1.72
'0:18.078',-1.19
'0:18.082',-0.9
'0:18.086',-0.7
'0:18.090',-0.66
'0:18.094',-0.68
'0:18.098',-0.73
'0:18.102',-0.64
'0:18.105',-0.04
'0:18.109',0.57
'0:18.113',0.88
'0:18.117',1
'0:18.121',1.07
'0:18.125',1.1
'0:18.129',1.16
'0:18.133',1.38
'0:18.137',1.86
'0:18.141',2.6
'0:18.145',3.16
'0:18.148',3.29
'0:18.152',3.2
'0:18.156',3.08
'0:18.160',3.07
'0:18.164',3.35
'0:18.168',3.56
'0:18.172',3.32
'0:18.176',2.91
'0:18.180',2.56
'0:18.184',2.11
'0:18.188',1.41
'0:18.191',1.15
'0:18.195',1.09
'0:18.199',0.9
'0:18.203',0.52
'0:18.207',0.2
'0:18.211',0.22
'0:18.215',0.32
'0:18.219',0.36
'0:18.223',0.41
'0:18.227',0.37
'0:18.230',0.2
'0:18.234',-0.13
'0:18.238',-0.43
'0:18.242',-0.81
'0:18.246',-1.11
'0:18.250',-1.08
'0:18.254',-0.69
'0:18.258',-0.3
'0:18.262',0.07
'0:18.266',0.27
'0:18.270',0.04
'0:18.273',-0.23
'0:18.277',-0.19
'0:18.281',0.16
'0:18.285',0.45
'0:18.289',0.56
'0:18.293',0.56
'0:18.297',0.61
'0:18.301',0.54
'0:18.305',0.25
'0:18.309',0.03
'0:18.313',-0.37
'0:18.316',-0.93
'0:18.320',-1.59
'0:18.324',-2.03
'0:18.328',-2.16
'0:18.332',-2.12
'0:18.336',-2.38
'0:18.340',-2.8
'0:18.344',-3.01
'0:18.348',-3.14
'0:18.352',-3.05
'0:18.355',-2.91
'0:18.359',-2.92
'0:18.363',-3.27
'0:18.367',-3.72
'0:18.371',-4.01
'0:18.375',-4.02
'0:18.379',-3.29
'0:18.383',-1.34
'0:18.387',1.51
'0:18.391',4.19
'0:18.395',5.44
'0:18.398',5.6
'0:18.402',5.61
'0:18.406',5.6
'0:18.410',5.6
'0:18.414',5.61
'0:18.418',5.6
'0:18.422',-1.13
'0:18.426',-3.16
'0:18.430',-2.16
'0:18.434',-1.42
'0:18.438',-0.88
'0:18.441',-0.44
'0:18.445',-0.43
'0:18.449',-0.13
'0:18.453',0.2
'0:18.457',0.32
'0:18.461',0.46
'0:18.465',0.68
'0:18.469',0.87
'0:18.473',1.02
'0:18.477',1
'0:18.480',0.97
'0:18.484',1.31
'0:18.488',1.78
'0:18.492',2.14
'0:18.496',2.72
'0:18.500',3.28
'0:18.504',3.83
'0:18.508',4.44
'0:18.512',4.87
'0:18.516',5.09
'0:18.520',5.07
'0:18.523',4.85
'0:18.527',4.61
'0:18.531',4.34
'0:18.535',4.22
'0:18.539',3.93
'0:18.543',3.57
'0:18.547',3.2
'0:18.551',2.72
'0:18.555',2.04
'0:18.559',1.54
'0:18.563',1.21
'0:18.566',0.86
'0:18.570',0.5
'0:18.574',0.16
'0:18.578',-0.15
'0:18.582',-0.52
'0:18.586',-0.66
'0:18.590',-0.67
'0:18.594',-0.8
'0:18.598',-0.76
'0:18.602',-0.68
'0:18.605',-0.82
'0:18.609',-0.92
'0:18.613',-0.83
'0:18.617',-0.51
'0:18.621',-0.12
'0:18.625',0.32
'0:18.629',0.31
'0:18.633',-0.1
'0:18.637',-0.47
'0:18.641',-0.75
'0:18.645',-0.87
'0:18.648',-0.8
'0:18.652',-0.62
'0:18.656',-0.25
'0:18.660',0.1
'0:18.664',0.37
'0:18.668',0.51
'0:18.672',0.44
'0:18.676',0.11
'0:18.680',-0.7
'0:18.684',-1.59
'0:18.688',-2.16
'0:18.691',-2.64
'0:18.695',-3.16
'0:18.699',-3.54
'0:18.703',-3.77
'0:18.707',-3.78
'0:18.711',-3.44
'0:18.715',-3.03
'0:18.719',-2.76
'0:18.723',-2.56
'0:18.727',-2.48
'0:18.730',-2.55
'0:18.734',-2.8
'0:18.738',-2.9
'0:18.742',-2.81
'0:18.746',-1.93
'0:18.750',0.09
'0:18.754',2.76
'0:18.758',4.37
'0:18.762',4.82
'0:18.766',4.13
'0:18.770',1.49
'0:18.773',-1.41
'0:18.777',-3.44
'0:18.781',-4.42
'0:18.785',-4.37
'0:18.789',-3.76
'0:18.793',-2.98
'0:18.797',-2.28
'0:18.801',-1.51
'0:18.805',-0.8
'0:18.809',-0.28
'0:18.813',0.07
'0:18.816',0.37
'0:18.820',0.56
'0:18.824',0.76
'0:18.828',0.95
'0:18.832',1.1
'0:18.836',1.17
'0:18.840',1.27
'0:18.844',1.32
'0:18.848',1.32
'0:18.852',1.41
'0:18.855',1.53
'0:18.859',1.84
'0:18.863',2.1
'0:18.867',2.38
'0:18.871',2.84
'0:18.875',3.42
'0:18.879',3.98
'0:18.883',4.62
'0:18.887',4.97
'0:18.891',5.02
'0:18.895',4.81
'0:18.898',4.47
'0:18.902',4.06
'0:18.906',3.34
'0:18.910',2.65
'0:18.914',2.48
'0:18.918',2.35
'0:18.922',1.74
'0:18.926',1.04
'0:18.930',0.52
'0:18.934',0.28
'0:18.938',0.13
'0:18.941',0.1
'0:18.945',0
'0:18.949',-0.09
'0:18.953',-0.23
'0:18.957',-0.38
'0:18.961',-0.51
'0:18.965',-0.42
'0:18.969',-0.37
'0:18.973',-0.69
'0:18.977',-0.87
'0:18.980',-0.78
'0:18.984',-0.82
'0:18.988',-0.78
'0:18.992',-0.61
'0:18.996',-0.68
'0:19.000',-0.79
'0:19.004',-0.68
'0:19.008',-0.64
'0:19.012',-0.49
'0:19.016',-0.46
'0:19.020',-0.4
'0:19.023',-0.01
'0:19.027',0.22
'0:19.031',0.37
'0:19.035',0.2
'0:19.039',-0.02
'0:19.043',-0.14
'0:19.047',-0.61
'0:19.051',-1.43
'0:19.055',-2.17
'0:19.059',-2.5
'0:19.063',-2.46
'0:19.066',-2.51
'0:19.070',-2.84
'0:19.074',-3.26
'0:19.078',-3.48
'0:19.082',-3.43
'0:19.086',-3.31
'0:19.090',-3.29
'0:19.094',-3.38
'0:19.098',-3.65
'0:19.102',-4.06
'0:19.105',-4.32
'0:19.109',-4.43
'0:19.113',-3.87
'0:19.117',-2.71
'0:19.121',-0.55
'0:19.125',2.46
'0:19.129',5.09
'0:19.133',6.96
'0:19.137',7.3
'0:19.141',4.82
'0:19.145',1.32
'0:19.148',-1.64
'0:19.152',-3.9
'0:19.156',-5.17
'0:19.160',-5.27
'0:19.164',-4.85
'0:19.168',-4.51
'0:19.172',-3.89
'0:19.176',-3.11
'0:19.180',-2.54
'0:19.184',-2.13
'0:19.188',-1.77
'0:19.191',-1.56
'0:19.195',-1.25
'0:19.199',-0.81
'0:19.203',-0.52
'0:19.207',-0.18
'0:19.211',-0.04
'0:19.215',0.24
'0:19.219',0.44
'0:19.223',0.61
'0:19.227',0.47
'0:19.230',0.49
'0:19.234',0.87
'0:19.238',1.27
'0:19.242',1.84
'0:19.246',2.35
'0:19.250',2.65
'0:19.254',3.13
'0:19.258',3.64
'0:19.262',3.88
'0:19.266',3.71
'0:19.270',3.66
'0:19.273',3.66
'0:19.277',3.66
'0:19.281',2.19
'0:19.285',1.76
'0:19.289',1.55
'0:19.293',1.46
'0:19.297',1.23
'0:19.301',0.86
'0:19.305',0.59
'0:19.309',0.4
'0:19.313',0.04
'0:19.316',-0.02
'0:19.320',0
'0:19.324',-0.11
'0:19.328',-0.16
'0:19.332',-0.22
'0:19.336',-0.31
'0:19.340',-0.45
'0:19.344',-0.77
'0:19.348',-0.73
'0:19.352',-0.37
'0:19.355',0.1
'0:19.359',0.03
'0:19.363',-0.24
'0:19.367',-0.39
'0:19.371',-0.34
'0:19.375',-0.17
'0:19.379',0.16
'0:19.383',0.72
'0:19.387',0.88
'0:19.391',0.79
'0:19.395',0.64
'0:19.398',0.61
'0:19.402',0.8
'0:19.406',1.03
'0:19.410',1.01
'0:19.414',0.65
'0:19.418',-0.07
'0:19.422',-0.9
'0:19.426',-1.42
'0:19.430',-1.65
'0:19.434',-1.87
'0:19.438',-2.32
'0:19.441',-2.67
'0:19.445',-2.6
'0:19.449',-2.5
'0:19.453',-2.37
'0:19.457',-2.29
'0:19.461',-2.31
'0:19.465',-2.46
'0:19.469',-2.84
'0:19.473',-3.23
'0:19.477',-3.53
'0:19.480',-3.46
'0:19.484',-2.39
'0:19.488',-0.3
'0:19.492',2.73
'0:19.496',5.69
'0:19.500',7.57
'0:19.504',8.07
'0:19.508',5.9
'0:19.512',2.27
'0:19.516',-0.99
'0:19.520',-3.23
'0:19.523',-4.23
'0:19.527',-4.51
