'0:00.000',0.83
'0:00.004',0.25
'0:00.008',-0.57
'0:00.012',-0.83
'0:00.016',-0.58
'0:00.020',-0.73
'0:00.023',-0.99
'0:00.027',-1.21
'0:00.031',-1.16
'0:00.035',-1.24
'0:00.039',-1.62
'0:00.043',-1.82
'0:00.047',-1.68
'0:00.051',-1.42
'0:00.055',-1.05
'0:00.059',-0.76
'0:00.063',-0.73
'0:00.066',-1.06
'0:00.070',-1.26
'0:00.074',-1.38
'0:00.078',-1.3
'0:00.082',-1.19
'0:00.086',-1.76
'0:00.090',-2.37
'0:00.094',-2.87
'0:00.098',-3.2
'0:00.102',-3.7
'0:00.105',-4.13
'0:00.109',-4.31
'0:00.113',-4.21
'0:00.117',-4.25
'0:00.121',-4.26
'0:00.125',-4.12
'0:00.129',-3.99
'0:00.133',-3.92
'0:00.137',-3.78
'0:00.141',-3.43
'0:00.145',-2.93
'0:00.148',-1.98
'0:00.152',-0.36
'0:00.156',1.7
'0:00.160',3.13
'0:00.164',3.37
'0:00.168',2.6
'0:00.172',0.18
'0:00.176',-2.33
'0:00.180',-4.22
'0:00.184',-5.08
'0:00.188',-5.09
'0:00.191',-4.61
'0:00.195',-3.78
'0:00.199',-2.69
'0:00.203',-1.48
'0:00.207',-0.3
'0:00.211',0.17
'0:00.215',0.39
'0:00.219',0.63
'0:00.223',0.78
'0:00.227',1.04
'0:00.230',1.28
'0:00.234',1.46
'0:00.238',1.52
'0:00.242',1.46
'0:00.246',1.54
'0:00.250',1.7
'0:00.254',1.85
'0:00.258',2.32
'0:00.262',3.06
'0:00.266',3.67
'0:00.270',4.19
'0:00.273',4.89
'0:00.277',5.43
'0:00.281',5.92
'0:00.285',6.67
'0:00.289',7.18
'0:00.293',7.41
'0:00.297',7.58
'0:00.301',7.66
'0:00.305',7.24
'0:00.309',6.92
'0:00.313',6.83
'0:00.316',6.78
'0:00.320',6.44
'0:00.324',5.47
'0:00.328',4.02
'0:00.332',3.32
'0:00.336',3.08
'0:00.340',2.93
'0:00.344',2.9
'0:00.348',3.38
'0:00.352',3.49
'0:00.355',2.98
'0:00.359',2.54
'0:00.363',2.7
'0:00.367',3.03
'0:00.371',3.44
'0:00.375',3.68
'0:00.379',3.8
'0:00.383',3.51
'0:00.387',3.51
'0:00.391',3.29
'0:00.395',3.22
'0:00.398',3.58
'0:00.402',3.7
'0:00.406',3.25
'0:00.410',2.35
'0:00.414',1.47
'0:00.418',0.83
'0:00.422',0.25
'0:00.426',-0.31
'0:00.430',-0.79
'0:00.434',-1.43
'0:00.438',-1.63
'0:00.441',-1.63
'0:00.445',-1.78
'0:00.449',-2.13
'0:00.453',-2.36
'0:00.457',-2.67
'0:00.461',-3.07
'0:00.465',-3.34
'0:00.469',-3.41
'0:00.473',-3.19
'0:00.477',-2.13
'0:00.480',0.69
'0:00.484',3.78
'0:00.488',5.79
'0:00.492',7.03
'0:00.496',6.68
'0:00.500',3.87
'0:00.504',0.18
'0:00.508',-2.9
'0:00.512',-5.26
'0:00.516',-6.15
'0:00.520',-6.14
'0:00.523',-6.09
'0:00.527',-6.16
'0:00.531',-5.78
'0:00.535',-6.43
'0:00.539',-17.87
'0:00.543',-23.49
'0:00.547',-17.25
'0:00.551',-10.2
'0:00.555',-4.77
'0:00.559',-1.65
'0:00.563',-0.61
'0:00.566',0.08
'0:00.570',0.73
'0:00.574',1.17
'0:00.578',1.03
'0:00.582',0.8
'0:00.586',1.41
'0:00.590',2.34
'0:00.594',3.09
'0:00.598',2.88
'0:00.602',2.32
'0:00.605',2.08
'0:00.609',2.25
'0:00.613',2.65
'0:00.617',2.78
'0:00.621',2.76
'0:00.625',2.78
'0:00.629',2.71
'0:00.633',2.83
'0:00.637',2.73
'0:00.641',2.49
'0:00.645',2.04
'0:00.648',1.34
'0:00.652',0.69
'0:00.656',0.2
'0:00.660',-0.34
'0:00.664',-0.83
'0:00.668',-1.26
'0:00.672',-1.53
'0:00.676',-1.59
'0:00.680',-1.63
'0:00.684',-1.3
'0:00.688',-0.61
'0:00.691',-0.09
'0:00.695',0.51
'0:00.699',0.81
'0:00.703',0.73
'0:00.707',0.77
'0:00.711',0.59
'0:00.715',0.29
'0:00.719',0.05
'0:00.723',-0.16
'0:00.727',-0.17
'0:00.730',0.22
'0:00.734',0.41
'0:00.738',-0.02
'0:00.742',-0.69
'0:00.746',-1.18
'0:00.750',-1.29
'0:00.754',-1.42
'0:00.758',-1.65
'0:00.762',-1.95
'0:00.766',-2.38
'0:00.770',-2.84
'0:00.773',-3.21
'0:00.777',-3.65
'0:00.781',-3.82
'0:00.785',-3.75
'0:00.789',-3.77
'0:00.793',-3.72
'0:00.797',-3.39
'0:00.801',-2.5
'0:00.805',-1
'0:00.809',1.14
'0:00.813',2.66
'0:00.816',3.21
'0:00.820',1.87
'0:00.824',-1.23
'0:00.828',-4.13
'0:00.832',-6.49
'0:00.836',-7.4
'0:00.840',-6.95
'0:00.844',-6.17
'0:00.848',-5.51
'0:00.852',-4.74
'0:00.855',-3.49
'0:00.859',-2.39
'0:00.863',-1.9
'0:00.867',-1.92
'0:00.871',-1.85
'0:00.875',-2.09
'0:00.879',-2.56
'0:00.883',-3.31
'0:00.887',-3.95
'0:00.891',-3.95
'0:00.895',-3.8
'0:00.898',-3.19
'0:00.902',-2.68
'0:00.906',-2.48
'0:00.910',-2.05
'0:00.914',-1.82
'0:00.918',-1.61
'0:00.922',-1.16
'0:00.926',-0.26
'0:00.930',0.78
'0:00.934',1.34
'0:00.938',1.44
'0:00.941',1.58
'0:00.945',1.73
'0:00.949',1.61
'0:00.953',1.44
'0:00.957',1.35
'0:00.961',1.32
'0:00.965',1.15
'0:00.969',1.02
'0:00.973',0.68
'0:00.977',-0.22
'0:00.980',-1.07
'0:00.984',-1.67
'0:00.988',-1.87
'0:00.992',-1.48
'0:00.996',-0.92
'0:01.000',-0.37
'0:01.004',0.05
'0:01.008',0.34
'0:01.012',0.37
'0:01.016',-0.04
'0:01.020',0.08
'0:01.023',0.71
'0:01.027',1.32
'0:01.031',1.75
'0:01.035',2.12
'0:01.039',2.54
'0:01.043',3.07
'0:01.047',3.27
'0:01.051',3.38
'0:01.055',3.26
'0:01.059',2.75
'0:01.063',2.1
'0:01.066',1.68
'0:01.070',1.07
'0:01.074',0.49
'0:01.078',0.3
'0:01.082',0
'0:01.086',-0.36
'0:01.090',-0.64
'0:01.094',-0.63
'0:01.098',-0.78
'0:01.102',-0.85
'0:01.105',-0.75
'0:01.109',-0.33
'0:01.113',0.2
'0:01.117',0.78
'0:01.121',1.47
'0:01.125',2.17
'0:01.129',3.2
'0:01.133',4.44
'0:01.137',5.21
'0:01.141',5.02
'0:01.145',4.62
'0:01.148',3.25
'0:01.152',0.9
'0:01.156',-1.07
'0:01.160',-2.19
'0:01.164',-2.31
'0:01.168',-2
'0:01.172',-1.38
'0:01.176',-0.53
'0:01.180',0.25
'0:01.184',1.13
'0:01.188',1.8
'0:01.191',2.02
'0:01.195',1.65
'0:01.199',1.39
'0:01.203',1.65
'0:01.207',2.02
'0:01.211',2.15
'0:01.215',2.31
'0:01.219',2.51
'0:01.223',2.69
'0:01.227',2.61
'0:01.230',2.64
'0:01.234',3.21
'0:01.238',3.92
'0:01.242',4.56
'0:01.246',5.14
'0:01.250',5.36
'0:01.254',5.55
'0:01.258',5.26
'0:01.262',5.02
'0:01.266',5.11
'0:01.270',4.95
'0:01.273',4.68
'0:01.277',4.19
'0:01.281',3.83
'0:01.285',3.99
'0:01.289',4.21
'0:01.293',3.88
'0:01.297',3.15
'0:01.301',2.41
'0:01.305',1.69
'0:01.309',1.13
'0:01.313',1.19
'0:01.316',1.43
'0:01.320',-3.64
'0:01.324',-10.23
'0:01.328',-8
'0:01.332',-7.99
'0:01.336',-7.99
'0:01.340',1.54
'0:01.344',2.51
'0:01.348',2.3
'0:01.352',2.13
'0:01.355',2.03
'0:01.359',1.95
'0:01.363',1.25
'0:01.367',-2.15
'0:01.371',-1.37
'0:01.375',0.35
'0:01.379',1.63
'0:01.383',2.4
'0:01.387',2.7
'0:01.391',2.39
'0:01.395',2.07
'0:01.398',1.67
'0:01.402',1.03
'0:01.406',0.59
'0:01.410',0.05
'0:01.414',-0.88
'0:01.418',-1.58
'0:01.422',-1.48
'0:01.426',-1.17
'0:01.430',-1.41
'0:01.434',-1.99
'0:01.438',-2.36
'0:01.441',-2.21
'0:01.445',-1.54
'0:01.449',-0.92
'0:01.453',0.92
'0:01.457',2.07
'0:01.461',4.42
'0:01.465',7
'0:01.469',8.14
'0:01.473',6.37
'0:01.477',2.52
'0:01.480',-1.07
'0:01.484',-3.75
'0:01.488',-5.37
'0:01.492',-5.94
'0:01.496',-6.19
'0:01.500',-5.81
'0:01.504',-5.04
'0:01.508',-4.18
'0:01.512',-3.26
'0:01.516',-3.05
'0:01.520',-3.05
'0:01.523',-2.8
'0:01.527',-2.58
'0:01.531',-2.4
'0:01.535',-2.17
'0:01.539',-2.04
'0:01.543',-2.04
'0:01.547',-1.89
'0:01.551',-1.55
'0:01.555',-1.19
'0:01.559',-0.72
'0:01.563',-0.43
'0:01.566',-0.48
'0:01.570',-0.59
'0:01.574',-0.36
'0:01.578',0.21
'0:01.582',0.71
'0:01.586',0.88
'0:01.590',0.81
'0:01.594',0.76
'0:01.598',0.44
'0:01.602',-0.09
'0:01.605',-0.26
'0:01.609',-0.41
'0:01.613',-0.97
'0:01.617',-1.43
'0:01.621',-1.87
'0:01.625',-1.92
'0:01.629',-1.49
'0:01.633',-1.34
'0:01.637',-1.78
'0:01.641',-2.53
'0:01.645',-3.1
'0:01.648',-3.39
'0:01.652',-3.17
'0:01.656',-3.02
'0:01.660',-3.04
'0:01.664',-2.8
'0:01.668',-2.44
'0:01.672',-2.36
'0:01.676',-1.98
'0:01.680',-1.3
'0:01.684',-0.46
'0:01.688',-0.13
'0:01.691',-0.14
'0:01.695',-0.41
'0:01.699',-0.75
'0:01.703',-0.73
'0:01.707',-0.6
'0:01.711',-0.71
'0:01.715',-1.8
'0:01.719',-3.24
'0:01.723',-4.22
'0:01.727',-4.9
'0:01.730',-5.46
'0:01.734',-5.57
'0:01.738',-5.53
'0:01.742',-5.55
'0:01.746',-5.63
'0:01.750',-5.57
'0:01.754',-5.41
'0:01.758',-5.28
'0:01.762',-5.36
'0:01.766',-5.43
'0:01.770',-5.09
'0:01.773',-4.82
'0:01.777',-3.67
'0:01.781',-1.52
'0:01.785',1.28
'0:01.789',3.7
'0:01.793',5.38
'0:01.797',5.39
'0:01.801',2.89
'0:01.805',-0.1
'0:01.809',-3.02
'0:01.813',-5.17
'0:01.816',-6.62
'0:01.820',-6.6
'0:01.824',-5.91
'0:01.828',-4.93
'0:01.832',-3.8
'0:01.836',-2.91
'0:01.840',-2.38
'0:01.844',-2.05
'0:01.848',-1.73
'0:01.852',-1.52
'0:01.855',-1
'0:01.859',-0.76
'0:01.863',-0.52
'0:01.867',0.1
'0:01.871',0.66
'0:01.875',1.01
'0:01.879',1.6
'0:01.883',2.69
'0:01.887',3.43
'0:01.891',3.62
'0:01.895',3.32
'0:01.898',3.37
'0:01.902',3.88
'0:01.906',4.65
'0:01.910',5.09
'0:01.914',5.12
'0:01.918',4.68
'0:01.922',3.98
'0:01.926',3.87
'0:01.930',3.97
'0:01.934',3.85
'0:01.938',3.65
'0:01.941',2.97
'0:01.945',2.42
'0:01.949',1.81
'0:01.953',1.4
'0:01.957',1.56
'0:01.961',1.59
'0:01.965',2.04
'0:01.969',2.85
'0:01.973',3.14
'0:01.977',2.93
'0:01.980',3.12
'0:01.984',3.88
'0:01.988',4.86
'0:01.992',5.78
'0:01.996',6.42
'0:02.000',6.87
'0:02.004',6.78
'0:02.008',6.45
'0:02.012',6.02
'0:02.016',5.95
'0:02.020',6.25
'0:02.023',5.87
'0:02.027',4.95
'0:02.031',4.46
'0:02.035',4.44
'0:02.039',4.19
'0:02.043',3.65
'0:02.047',2.66
'0:02.051',1.37
'0:02.055',0.15
'0:02.059',-0.41
'0:02.063',-0.46
'0:02.066',-0.48
'0:02.070',-0.61
'0:02.074',-1.09
'0:02.078',-1.01
'0:02.082',-0.63
'0:02.086',-0.51
'0:02.090',-0.78
'0:02.094',-1.07
'0:02.098',-1.04
'0:02.102',-0.43
'0:02.105',0.75
'0:02.109',2.27
'0:02.113',3.36
'0:02.117',3.36
'0:02.121',2.59
'0:02.125',0.31
'0:02.129',-2.3
'0:02.133',-4.51
'0:02.137',-6.21
'0:02.141',-6.82
'0:02.145',-6.41
'0:02.148',-5.59
'0:02.152',-4.6
'0:02.156',-3.87
'0:02.160',-3.87
'0:02.164',-3.87
'0:02.168',-3.87
'0:02.172',-1.96
'0:02.176',-1.58
'0:02.180',-1.24
'0:02.184',-0.95
'0:02.188',-0.9
'0:02.191',-0.97
'0:02.195',-0.81
'0:02.199',-0.44
'0:02.203',-0.46
'0:02.207',-0.41
'0:02.211',0.29
'0:02.215',1.3
'0:02.219',2.32
'0:02.223',3.2
'0:02.227',3.43
'0:02.230',2.47
'0:02.234',-1.82
'0:02.238',-6.25
'0:02.242',-19.77
'0:02.246',-30.53
'0:02.250',-35.73
'0:02.254',-26.25
'0:02.258',-10.58
'0:02.262',0.19
'0:02.266',5.95
'0:02.270',8.77
'0:02.273',9.94
'0:02.277',9.89
'0:02.281',9.45
'0:02.285',8.82
'0:02.289',8.28
'0:02.293',8.24
'0:02.297',8.18
'0:02.301',7.8
'0:02.305',7.33
'0:02.309',7.04
'0:02.313',7
'0:02.316',6.97
'0:02.320',6.82
'0:02.324',6.6
'0:02.328',6.43
'0:02.332',5.99
'0:02.336',5.48
'0:02.340',5.42
'0:02.344',5.45
'0:02.348',5.46
'0:02.352',5.6
'0:02.355',5.36
'0:02.359',4.9
'0:02.363',4.33
'0:02.367',3.58
'0:02.371',2.9
'0:02.375',2.22
'0:02.379',1.37
'0:02.383',0.91
'0:02.387',0.73
'0:02.391',0.47
'0:02.395',-0.1
'0:02.398',-0.43
'0:02.402',-0.51
'0:02.406',-0.66
'0:02.410',-0.8
'0:02.414',-1.24
'0:02.418',-1.44
'0:02.422',-1.43
'0:02.426',-1.6
'0:02.430',-1.34
'0:02.434',-0.52
'0:02.438',1.6
'0:02.441',4.54
'0:02.445',6.49
'0:02.449',7.15
'0:02.453',5.22
'0:02.457',2.02
'0:02.461',-0.86
'0:02.465',-3.19
'0:02.469',-4.52
'0:02.473',-5.19
'0:02.477',-5.77
'0:02.480',-5.89
'0:02.484',-5.09
'0:02.488',-3.85
'0:02.492',-2.87
'0:02.496',-2.66
'0:02.500',-2.83
'0:02.504',-2.97
'0:02.508',-3.41
'0:02.512',-4.14
'0:02.516',-4.4
'0:02.520',-4.24
'0:02.523',-4.4
'0:02.527',-4.02
'0:02.531',-3.79
'0:02.535',-3.48
'0:02.539',-2.92
'0:02.543',-2.48
'0:02.547',-2.09
'0:02.551',-1.93
'0:02.555',-1.92
'0:02.559',-1.79
'0:02.563',-1.28
'0:02.566',-0.88
'0:02.570',-0.51
'0:02.574',-0.22
'0:02.578',0.05
'0:02.582',0.4
'0:02.586',0.75
'0:02.590',0.92
'0:02.594',0.8
'0:02.598',0.15
'0:02.602',-0.48
'0:02.605',-0.99
'0:02.609',-1.34
'0:02.613',-1.48
'0:02.617',-1.59
'0:02.621',-1.82
'0:02.625',-1.68
'0:02.629',-1.31
'0:02.633',-0.68
'0:02.637',-0.17
'0:02.641',-0.09
'0:02.645',-0.26
'0:02.648',-0.31
'0:02.652',-0.56
'0:02.656',-0.42
'0:02.660',-0.17
'0:02.664',-0.19
'0:02.668',-0.01
'0:02.672',0.45
'0:02.676',1.13
'0:02.680',1.65
'0:02.684',1.83
'0:02.688',1.73
'0:02.691',1.46
'0:02.695',0.95
'0:02.699',0.16
'0:02.703',-0.48
'0:02.707',-0.68
'0:02.711',-0.77
'0:02.715',-0.95
'0:02.719',-1.23
'0:02.723',-1.37
'0:02.727',-1.48
'0:02.730',-1.75
'0:02.734',-2.22
'0:02.738',-2.85
'0:02.742',-3.5
'0:02.746',-3.62
'0:02.750',-3.18
'0:02.754',-2.5
'0:02.758',-1.03
'0:02.762',1.62
'0:02.766',4.89
'0:02.770',7.43
'0:02.773',8.64
'0:02.777',7.59
'0:02.781',4.06
'0:02.785',0.26
'0:02.789',-2.66
'0:02.793',-4.43
'0:02.797',-5.26
'0:02.801',-5.29
'0:02.805',-4.82
'0:02.809',-4.18
'0:02.813',-3.85
'0:02.816',-3.57
'0:02.820',-3.31
'0:02.824',-2.91
'0:02.828',-1.82
'0:02.832',-0.4
'0:02.836',0.76
'0:02.840',1.55
'0:02.844',2.22
'0:02.848',2.59
'0:02.852',2.71
'0:02.855',2.65
'0:02.859',2.37
'0:02.863',2.27
'0:02.867',2.54
'0:02.871',3.27
'0:02.875',3.71
'0:02.879',3.43
'0:02.883',3.2
'0:02.887',3.09
'0:02.891',3.02
'0:02.895',2.78
'0:02.898',2.8
'0:02.902',3.19
'0:02.906',3.37
'0:02.910',3.37
'0:02.914',3.07
'0:02.918',2.36
'0:02.922',1.51
'0:02.926',0.86
'0:02.930',0.52
'0:02.934',0.29
'0:02.938',-0.14
'0:02.941',-0.65
'0:02.945',-1.27
'0:02.949',-1.26
'0:02.953',-1.06
'0:02.957',-0.65
'0:02.961',-0.19
'0:02.965',0.05
'0:02.969',0.07
'0:02.973',-0.06
'0:02.977',0.18
'0:02.980',0.37
'0:02.984',0.22
'0:02.988',0.4
'0:02.992',1.01
'0:02.996',1.26
'0:03.000',0.6
'0:03.004',0.04
'0:03.008',0.64
'0:03.012',0.75
'0:03.016',0.1
'0:03.020',-0.36
'0:03.023',-0.66
'0:03.027',-1.63
'0:03.031',-2.28
'0:03.035',-2.1
'0:03.039',-2.06
'0:03.043',-2.17
'0:03.047',-3.26
'0:03.051',-4.06
'0:03.055',-3.6
'0:03.059',-2.78
'0:03.063',-2.29
'0:03.066',-2.24
'0:03.070',-2.39
'0:03.074',-2.34
'0:03.078',-2.35
'0:03.082',-2.01
'0:03.086',-0.74
'0:03.090',1.54
'0:03.094',3.09
'0:03.098',1.34
'0:03.102',0.38
'0:03.105',-0.86
'0:03.109',-2.86
'0:03.113',-4.01
'0:03.117',-3.99
'0:03.121',-3.47
'0:03.125',-2.77
'0:03.129',-2.33
'0:03.133',-2.09
'0:03.137',-1.96
'0:03.141',-1.28
'0:03.145',-0.42
'0:03.148',0.04
'0:03.152',-0.02
'0:03.156',-0.29
'0:03.160',-0.36
'0:03.164',-0.16
'0:03.168',-0.04
'0:03.172',0.16
'0:03.176',0.9
'0:03.180',1.58
'0:03.184',1.87
'0:03.188',1.95
'0:03.191',1.64
'0:03.195',1.51
'0:03.199',2.47
'0:03.203',3.37
'0:03.207',3.81
'0:03.211',3.75
'0:03.215',3.66
'0:03.219',3.81
'0:03.223',3.71
'0:03.227',3.81
'0:03.230',3.87
'0:03.234',3.61
'0:03.238',2.92
'0:03.242',2.26
'0:03.246',1.73
'0:03.250',1.14
'0:03.254',0.34
'0:03.258',-0.27
'0:03.262',-0.68
'0:03.266',-0.87
'0:03.270',-0.97
'0:03.273',-1.17
'0:03.277',-1.31
'0:03.281',-1.31
'0:03.285',-1.12
'0:03.289',-1.02
'0:03.293',-1.08
'0:03.297',-1.14
'0:03.301',-1.08
'0:03.305',-0.85
'0:03.309',-0.75
'0:03.313',-0.95
'0:03.316',-1.06
'0:03.320',-0.97
'0:03.324',-0.65
'0:03.328',-0.24
'0:03.332',0.33
'0:03.336',0.56
'0:03.340',0.27
'0:03.344',-0.79
'0:03.348',-2.28
'0:03.352',-3.19
'0:03.355',-3.66
'0:03.359',-4.11
'0:03.363',-4.41
'0:03.367',-4.56
'0:03.371',-4.68
'0:03.375',-5.07
'0:03.379',-5.58
'0:03.383',-5.85
'0:03.387',-5.64
'0:03.391',-5.53
'0:03.395',-5.53
'0:03.398',-5.55
'0:03.402',-5.3
'0:03.406',-4.62
'0:03.410',-3.42
'0:03.414',-1.61
'0:03.418',0.53
'0:03.422',2.17
'0:03.426',2.68
'0:03.430',1.11
'0:03.434',-2.13
'0:03.438',-4.9
'0:03.441',-6.83
'0:03.445',-7.5
'0:03.449',-7.46
'0:03.453',-6.83
'0:03.457',-6.32
'0:03.461',-5.56
'0:03.465',-4.2
'0:03.469',-3.02
'0:03.473',-2.04
'0:03.477',-1.43
'0:03.480',-0.72
'0:03.484',-0.02
'0:03.488',0.51
'0:03.492',0.57
'0:03.496',0.62
'0:03.500',0.72
'0:03.504',0.85
'0:03.508',0.79
'0:03.512',0.89
'0:03.516',1.65
'0:03.520',2.45
'0:03.523',3.18
'0:03.527',3.78
'0:03.531',3.92
'0:03.535',4.13
'0:03.539',4.1
'0:03.543',4.45
'0:03.547',5.01
'0:03.551',5.47
'0:03.555',5.75
'0:03.559',5.6
'0:03.563',5.23
'0:03.566',4.73
'0:03.570',4.08
'0:03.574',3.52
'0:03.578',3.43
'0:03.582',3.09
'0:03.586',2.62
'0:03.590',2.05
'0:03.594',1.68
'0:03.598',1.19
'0:03.602',0.83
'0:03.605',0.71
'0:03.609',0.68
'0:03.613',0.61
'0:03.617',0.64
'0:03.621',0.6
'0:03.625',0.81
'0:03.629',1.33
'0:03.633',2.05
'0:03.637',2.64
'0:03.641',2.71
'0:03.645',2.6
'0:03.648',2.34
'0:03.652',2.14
'0:03.656',2.25
'0:03.660',2.49
'0:03.664',2.59
'0:03.668',2.31
'0:03.672',1.85
'0:03.676',1.22
'0:03.680',0.53
'0:03.684',0.1
'0:03.688',-0.3
'0:03.691',-1
'0:03.695',-1.65
'0:03.699',-1.86
'0:03.703',-2.17
'0:03.707',-2.48
'0:03.711',-2.48
'0:03.715',-2.26
'0:03.719',-2.38
'0:03.723',-2.57
'0:03.727',-2.44
'0:03.730',-1.94
'0:03.734',-0.9
'0:03.738',0.94
'0:03.742',4.02
'0:03.746',7.13
'0:03.750',8.88
'0:03.754',8.29
'0:03.758',4.92
'0:03.762',1.16
'0:03.766',-1.9
'0:03.770',-3.67
'0:03.773',-4.79
'0:03.777',-4.86
'0:03.781',-4.43
'0:03.785',-3.99
'0:03.789',-3.89
'0:03.793',-3.81
'0:03.797',-3.4
'0:03.801',-2.93
'0:03.805',-2.16
'0:03.809',-1.38
'0:03.813',-0.94
'0:03.816',-0.97
'0:03.820',-0.77
'0:03.824',-0.16
'0:03.828',0.1
'0:03.832',0.33
'0:03.836',0.76
'0:03.840',0.95
'0:03.844',0.68
'0:03.848',0.42
'0:03.852',0.89
'0:03.855',1.45
'0:03.859',1.74
'0:03.863',2.22
'0:03.867',2.53
'0:03.871',2.41
'0:03.875',1.89
'0:03.879',1.42
'0:03.883',1.65
'0:03.887',2.41
'0:03.891',2.18
'0:03.895',1.36
'0:03.898',1.33
'0:03.902',1.51
'0:03.906',1.14
'0:03.910',0.53
'0:03.914',0.14
'0:03.918',-0.41
'0:03.922',-0.48
'0:03.926',-0.24
'0:03.930',-0.49
'0:03.934',-0.83
'0:03.938',-1.17
'0:03.941',-1.13
'0:03.945',-0.42
'0:03.949',-0.07
'0:03.953',-0.47
'0:03.957',-0.86
'0:03.961',-1.16
'0:03.965',-1.21
'0:03.969',-0.65
'0:03.973',-0.23
'0:03.977',-0.03
'0:03.980',-0.32
'0:03.984',-0.85
'0:03.988',-0.64
'0:03.992',-0.09
'0:03.996',-0.04
'0:04.000',-0.64
'0:04.004',-1.38
'0:04.008',-1.93
'0:04.012',-2.74
'0:04.016',-3.48
'0:04.020',-3.94
'0:04.023',-3.57
'0:04.027',-3.01
'0:04.031',-2.77
'0:04.035',-2.84
'0:04.039',-3.29
'0:04.043',-3.71
'0:04.047',-3.97
'0:04.051',-4.36
'0:04.055',-8.9
'0:04.059',-7.87
'0:04.063',-8.02
'0:04.066',-18.83
'0:04.070',-28.59
'0:04.074',-34.07
'0:04.078',-32.63
'0:04.082',-20.64
'0:04.086',-10.39
'0:04.090',-3.8
'0:04.094',0.28
'0:04.098',2.68
'0:04.102',3.81
'0:04.105',4.24
'0:04.109',4.6
'0:04.113',4.96
'0:04.117',5.71
'0:04.121',6.25
'0:04.125',6.44
'0:04.129',6.51
'0:04.133',6.44
'0:04.137',6.69
'0:04.141',6.95
'0:04.145',7.07
'0:04.148',7.14
'0:04.152',7.46
'0:04.156',7.57
'0:04.160',7.33
'0:04.164',7.31
'0:04.168',7.22
'0:04.172',6.89
'0:04.176',6.8
'0:04.180',6.93
'0:04.184',7.14
'0:04.188',7.36
'0:04.191',7.32
'0:04.195',7.32
'0:04.199',7.63
'0:04.203',7.67
'0:04.207',7.72
'0:04.211',7.84
'0:04.215',7.64
'0:04.219',7.01
'0:04.223',6.42
'0:04.227',5.79
'0:04.230',4.98
'0:04.234',3.77
'0:04.238',2.62
'0:04.242',2.04
'0:04.246',1.68
'0:04.250',1.48
'0:04.254',1.24
'0:04.258',0.69
'0:04.262',0.46
'0:04.266',0.6
'0:04.270',0.56
'0:04.273',0.69
'0:04.277',0.96
'0:04.281',1.18
'0:04.285',1.12
'0:04.289',1.23
'0:04.293',1.66
'0:04.297',2.08
'0:04.301',2.13
'0:04.305',1.53
'0:04.309',1.22
'0:04.313',1.16
'0:04.316',0.71
'0:04.320',0.4
'0:04.324',-0.05
'0:04.328',-0.42
'0:04.332',-0.86
'0:04.336',-1.4
'0:04.340',-2.06
'0:04.344',-2.36
'0:04.348',-2.43
'0:04.352',-2.33
'0:04.355',-1.91
'0:04.359',-1.79
'0:04.363',-2.3
'0:04.367',-2.61
'0:04.371',-3.3
'0:04.375',-3.62
'0:04.379',-3.75
'0:04.383',-3.36
'0:04.387',-2.23
'0:04.391',-0.58
'0:04.395',2.2
'0:04.398',4.95
'0:04.402',6.3
'0:04.406',6.15
'0:04.410',3.36
'0:04.414',-0.75
'0:04.418',-4.09
'0:04.422',-5.91
'0:04.426',-6.17
'0:04.430',-5.76
'0:04.434',-5.52
'0:04.438',-5.24
'0:04.441',-4.42
'0:04.445',-3.8
'0:04.449',-3.09
'0:04.453',-1.99
'0:04.457',-1.07
'0:04.461',-0.99
'0:04.465',-1.04
'0:04.469',-0.84
'0:04.473',-0.35
'0:04.477',0.31
'0:04.480',0.69
'0:04.484',0.88
'0:04.488',1.05
'0:04.492',1.07
'0:04.496',0.96
'0:04.500',1.08
'0:04.504',1.35
'0:04.508',1.69
'0:04.512',2.12
'0:04.516',2.93
'0:04.520',3.84
'0:04.523',4.26
'0:04.527',4
'0:04.531',3.39
'0:04.535',2.87
'0:04.539',2.43
'0:04.543',1.97
'0:04.547',1.39
'0:04.551',0.7
'0:04.555',0.04
'0:04.559',-0.26
'0:04.563',-0.15
'0:04.566',0.01
'0:04.570',0.07
'0:04.574',-0.23
'0:04.578',-0.56
'0:04.582',-0.61
'0:04.586',-0.61
'0:04.590',-0.55
'0:04.594',-0.32
'0:04.598',-0.17
'0:04.602',-0.28
'0:04.605',-0.02
'0:04.609',0.3
'0:04.613',0.37
'0:04.617',0.31
'0:04.621',0.25
'0:04.625',0.33
'0:04.629',0.48
'0:04.633',0.88
'0:04.637',1.36
'0:04.641',1.71
'0:04.645',1.44
'0:04.648',0.78
'0:04.652',-0.14
'0:04.656',-0.89
'0:04.660',-1.04
'0:04.664',-0.74
'0:04.668',-0.58
'0:04.672',-1.17
'0:04.676',-2.11
'0:04.680',-2.28
'0:04.684',-1.99
'0:04.688',-1.85
'0:04.691',-1.94
'0:04.695',-2.15
'0:04.699',-2.39
'0:04.703',-2.66
'0:04.707',-2.54
'0:04.711',-1.57
'0:04.715',0.2
'0:04.719',3.14
'0:04.723',5.94
'0:04.727',6.16
'0:04.730',-2.01
'0:04.734',-3.32
'0:04.738',-3.99
'0:04.742',-3.68
'0:04.746',-3.83
'0:04.750',-5.67
'0:04.754',-4.97
'0:04.758',-4.12
'0:04.762',-3.33
'0:04.766',-2.03
'0:04.770',-0.72
'0:04.773',-0.02
'0:04.777',0.54
'0:04.781',0.95
'0:04.785',0.87
'0:04.789',0.67
'0:04.793',0.4
'0:04.797',0.83
'0:04.801',1.65
'0:04.805',2.1
'0:04.809',2.16
'0:04.813',1.72
'0:04.816',1.39
'0:04.820',1.8
'0:04.824',2.15
'0:04.828',2.12
'0:04.832',1.68
'0:04.836',0.93
'0:04.840',0.76
'0:04.844',0.82
'0:04.848',1.42
'0:04.852',2.73
'0:04.855',4.2
'0:04.859',4.83
'0:04.863',4.71
'0:04.867',3.98
'0:04.871',3.3
'0:04.875',3.16
'0:04.879',2.69
'0:04.883',1.75
'0:04.887',1.45
'0:04.891',1.46
'0:04.895',0.78
'0:04.898',-0.14
'0:04.902',-0.81
'0:04.906',-0.87
'0:04.910',-0.93
'0:04.914',-0.73
'0:04.918',-0.56
'0:04.922',-1.9
'0:04.926',-2.05
'0:04.930',-1.68
'0:04.934',-0.83
'0:04.938',0.01
'0:04.941',0.25
'0:04.945',-0.11
'0:04.949',-0.12
'0:04.953',-0.02
'0:04.957',-0.07
'0:04.961',-0.08
'0:04.965',0.14
'0:04.969',0.49
'0:04.973',0.35
'0:04.977',-0.08
'0:04.980',-0.43
'0:04.984',-1.16
'0:04.988',-1.69
'0:04.992',-2.01
'0:04.996',-2.43
'0:05.000',-2.87
'0:05.004',-2.82
'0:05.008',-2.66
'0:05.012',-2.58
'0:05.016',-2.71
'0:05.020',-2.98
'0:05.023',-3.05
'0:05.027',-3.05
'0:05.031',-3.25
'0:05.035',-3.15
'0:05.039',-2.5
'0:05.043',-1.01
'0:05.047',0.8
'0:05.051',1.67
'0:05.055',1.76
'0:05.059',0.34
'0:05.063',-2.32
'0:05.066',-4.58
'0:05.070',-5.73
'0:05.074',-5.84
'0:05.078',-5.44
'0:05.082',-4.78
'0:05.086',-4.25
'0:05.090',-3.84
'0:05.094',-3.32
'0:05.098',-2.9
'0:05.102',-2.37
'0:05.105',-1.95
'0:05.109',-1.31
'0:05.113',-1.05
'0:05.117',-0.96
'0:05.121',-0.79
'0:05.125',-0.69
'0:05.129',-0.6
'0:05.133',-0.25
'0:05.137',0.02
'0:05.141',0.06
'0:05.145',0.36
'0:05.148',0.79
'0:05.152',1.29
'0:05.156',1.77
'0:05.160',2.31
'0:05.164',2.85
'0:05.168',2.97
'0:05.172',3.07
'0:05.176',3.4
'0:05.180',3.65
'0:05.184',3.73
'0:05.188',3.85
'0:05.191',3.69
'0:05.195',3.25
'0:05.199',2.7
'0:05.203',2.34
'0:05.207',1.66
'0:05.211',1.03
'0:05.215',0.39
'0:05.219',-0.13
'0:05.223',-0.54
'0:05.227',-0.61
'0:05.230',-0.4
'0:05.234',-0.37
'0:05.238',-0.61
'0:05.242',-0.89
'0:05.246',-0.99
'0:05.250',-1.05
'0:05.254',-0.92
'0:05.258',-0.9
'0:05.262',-1.11
'0:05.266',-0.8
'0:05.270',-0.32
'0:05.273',-0.06
'0:05.277',-0.03
'0:05.281',-0.29
'0:05.285',-0.38
'0:05.289',-0.23
'0:05.293',-0.02
'0:05.297',0.16
'0:05.301',-0.02
'0:05.305',-0.78
'0:05.309',-1.54
'0:05.313',-1.84
'0:05.316',-1.74
'0:05.320',-1.8
'0:05.324',-1.75
'0:05.328',-2.17
'0:05.332',-3
'0:05.336',-3.19
'0:05.340',-3.21
'0:05.344',-2.97
'0:05.348',-3.07
'0:05.352',-3.72
'0:05.355',-4.17
'0:05.359',-3.81
'0:05.363',-2.55
'0:05.367',-0.99
'0:05.371',1.26
'0:05.375',4.13
'0:05.379',6.44
'0:05.383',7.03
'0:05.387',4.79
'0:05.391',1.36
'0:05.395',-1.09
'0:05.398',-2.89
'0:05.402',-4.4
'0:05.406',-5.12
'0:05.410',-4.92
'0:05.414',-4.21
'0:05.418',-3.22
'0:05.422',-2.08
'0:05.426',-1.44
'0:05.430',-1.33
'0:05.434',-0.99
'0:05.438',-0.78
'0:05.441',-0.65
'0:05.445',-0.38
'0:05.449',-0.31
'0:05.453',-0.42
'0:05.457',-0.56
'0:05.461',-0.58
'0:05.465',-0.47
'0:05.469',-0.23
'0:05.473',0.45
'0:05.477',1.1
'0:05.480',1.56
'0:05.484',1.6
'0:05.488',1.52
'0:05.492',1.7
'0:05.496',2.08
'0:05.500',2.4
'0:05.504',2.83
'0:05.508',3.37
'0:05.512',3.53
'0:05.516',3.63
'0:05.520',3.68
'0:05.523',3.57
'0:05.527',3.3
'0:05.531',2.84
'0:05.535',2.28
'0:05.539',1.62
'0:05.543',1.01
'0:05.547',0.86
'0:05.551',0.81
'0:05.555',0.68
'0:05.559',0.87
'0:05.563',1.33
'0:05.566',1.83
'0:05.570',2.25
'0:05.574',2.37
'0:05.578',2.41
'0:05.582',2.7
'0:05.586',3.34
'0:05.590',4.03
'0:05.594',4.55
'0:05.598',4.86
'0:05.602',5.08
'0:05.605',5.09
'0:05.609',4.67
'0:05.613',4.36
'0:05.617',3.95
'0:05.621',3.21
'0:05.625',2.75
'0:05.629',2.94
'0:05.633',3.06
'0:05.637',2.58
'0:05.641',1.73
'0:05.645',0.81
'0:05.648',0.13
'0:05.652',-0.03
'0:05.656',-0.6
'0:05.660',-1.35
'0:05.664',-1.43
'0:05.668',-0.95
'0:05.672',-0.63
'0:05.676',-0.88
'0:05.680',-1.46
'0:05.684',-2.05
'0:05.688',-2.32
'0:05.691',-1.61
'0:05.695',0.57
'0:05.699',4.55
'0:05.703',7.52
'0:05.707',7.53
'0:05.711',4.66
'0:05.715',0.94
'0:05.719',-1.59
'0:05.723',-3.53
'0:05.727',-5.05
'0:05.730',-5.38
'0:05.734',-4.63
'0:05.738',-4.28
'0:05.742',-4.27
'0:05.746',-2.91
'0:05.750',-1.07
'0:05.754',-0.04
'0:05.758',0.25
'0:05.762',0.07
'0:05.766',0.06
'0:05.770',0.34
'0:05.773',0.47
'0:05.777',0.49
'0:05.781',0.5
'0:05.785',0.43
'0:05.789',1.02
'0:05.793',1.89
'0:05.797',1.8
'0:05.801',0.84
'0:05.805',-0.4
'0:05.809',-0.8
'0:05.813',0
'0:05.816',0.65
'0:05.820',0.82
'0:05.824',1.37
'0:05.828',2.69
'0:05.832',3.7
'0:05.836',3.77
'0:05.840',2.72
'0:05.844',1.04
'0:05.848',-8.09
'0:05.852',-12.75
'0:05.855',-7.93
'0:05.859',-3.17
'0:05.863',-1.08
'0:05.867',-0.11
'0:05.871',1.09
'0:05.875',1.67
'0:05.879',1.38
'0:05.883',0.55
'0:05.887',0.03
'0:05.891',-0.26
'0:05.895',-0.62
'0:05.898',-0.63
'0:05.902',-0.36
'0:05.906',-0.77
'0:05.910',-0.76
'0:05.914',0.23
'0:05.918',0.89
'0:05.922',1.46
'0:05.926',1.74
'0:05.930',1.77
'0:05.934',1.55
'0:05.938',1.34
'0:05.941',1.18
'0:05.945',1.11
'0:05.949',0.65
'0:05.953',-0.11
'0:05.957',-0.98
'0:05.961',-1.54
'0:05.965',-1.88
'0:05.969',-2.03
'0:05.973',-2.16
'0:05.977',-2.16
'0:05.980',-2.36
'0:05.984',-2.37
'0:05.988',-2.5
'0:05.992',-2.56
'0:05.996',-2.64
'0:06.000',-2.72
'0:06.004',-2.68
'0:06.008',-2.43
'0:06.012',-1.79
'0:06.016',-0.67
'0:06.020',0.88
'0:06.023',1.59
'0:06.027',1.66
'0:06.031',1.14
'0:06.035',-1.2
'0:06.039',-3.82
'0:06.043',-5.35
'0:06.047',-5.75
'0:06.051',-5.47
'0:06.055',-4.87
'0:06.059',-4.28
'0:06.063',-3.72
'0:06.066',-3.01
'0:06.070',-2.18
'0:06.074',-1.68
'0:06.078',-1.38
'0:06.082',-1
'0:06.086',-0.65
'0:06.090',-0.26
'0:06.094',0.45
'0:06.098',0.66
'0:06.102',0.83
'0:06.105',1.21
'0:06.109',1.38
'0:06.113',1.75
'0:06.117',2.07
'0:06.121',2.38
'0:06.125',2.67
'0:06.129',2.62
'0:06.133',2.62
'0:06.137',2.76
'0:06.141',2.94
'0:06.145',3.19
'0:06.148',3.05
'0:06.152',3.16
'0:06.156',3.56
'0:06.160',3.63
'0:06.164',3.54
'0:06.168',3.02
'0:06.172',2.69
'0:06.176',2.63
'0:06.180',2.04
'0:06.184',1.13
'0:06.188',0.44
'0:06.191',0.09
'0:06.195',-0.19
'0:06.199',-0.69
'0:06.203',-1.08
'0:06.207',-1.19
'0:06.211',-1.33
'0:06.215',-1.27
'0:06.219',-1.1
'0:06.223',-0.97
'0:06.227',-0.46
'0:06.230',-0.28
'0:06.234',-0.2
'0:06.238',-0.16
'0:06.242',0.04
'0:06.246',0.21
'0:06.250',0.38
'0:06.254',0.33
'0:06.258',0.45
'0:06.262',0.74
'0:06.266',0.71
'0:06.270',0.89
'0:06.273',0.63
'0:06.277',-0.11
'0:06.281',-1.1
'0:06.285',-1.63
'0:06.289',-1.8
'0:06.293',-1.81
'0:06.297',-1.87
'0:06.301',-2.01
'0:06.305',-2.34
'0:06.309',-2.82
'0:06.313',-3.22
'0:06.316',-3.41
'0:06.320',-3.45
'0:06.324',-3.75
'0:06.328',-3.88
'0:06.332',-3.57
'0:06.336',-2.89
'0:06.340',-1.45
'0:06.344',0.62
'0:06.348',3.84
'0:06.352',7.48
'0:06.355',9.87
'0:06.359',10.19
'0:06.363',7.48
'0:06.367',3.47
'0:06.371',-0.74
'0:06.375',-3.99
'0:06.379',-5.81
'0:06.383',-6.53
'0:06.387',-6.38
'0:06.391',-5.69
'0:06.395',-4.86
'0:06.398',-4.08
'0:06.402',-3.16
'0:06.406',-2.61
'0:06.410',-2.3
'0:06.414',-2.16
'0:06.418',-1.94
'0:06.422',-1.78
'0:06.426',-1.61
'0:06.430',-1.43
'0:06.434',-1.1
'0:06.438',-0.65
'0:06.441',0.03
'0:06.445',0.41
'0:06.449',0.74
'0:06.453',1.04
'0:06.457',1.26
'0:06.461',1.18
'0:06.465',0.96
'0:06.469',1.16
'0:06.473',1.54
'0:06.477',1.66
'0:06.480',1.7
'0:06.484',1.79
'0:06.488',2.15
'0:06.492',2.44
'0:06.496',2.43
'0:06.500',2.18
'0:06.504',1.73
'0:06.508',1.21
'0:06.512',0.63
'0:06.516',0.22
'0:06.520',0.28
'0:06.523',0.38
'0:06.527',-0.02
'0:06.531',-0.48
'0:06.535',-0.23
'0:06.539',0.47
'0:06.543',0.8
'0:06.547',0.62
'0:06.551',0.33
'0:06.555',0.51
'0:06.559',1.32
'0:06.563',2.17
'0:06.566',2.23
'0:06.570',2.36
'0:06.574',2.43
'0:06.578',2.13
'0:06.582',1.6
'0:06.586',1.27
'0:06.590',1.55
'0:06.594',2.36
'0:06.598',2.75
'0:06.602',2.45
'0:06.605',1.86
'0:06.609',1.25
'0:06.613',0.69
'0:06.617',0.33
'0:06.621',-1.58
'0:06.625',-2.35
'0:06.629',-2.77
'0:06.633',-2.89
'0:06.637',-2.31
'0:06.641',-1.61
'0:06.645',-1.57
'0:06.648',-1.73
'0:06.652',-1.72
'0:06.656',-1.96
'0:06.660',-2.33
'0:06.664',-2.23
'0:06.668',-0.97
'0:06.672',1.43
'0:06.676',3.44
'0:06.680',3.81
'0:06.684',3.37
'0:06.688',1.5
'0:06.691',-1.15
'0:06.695',-2.94
'0:06.699',-4.12
'0:06.703',-4.39
'0:06.707',-4.37
'0:06.711',-4.44
'0:06.715',-3.71
'0:06.719',-2.46
'0:06.723',-1.55
'0:06.727',-1.24
'0:06.730',-1.82
'0:06.734',-2.61
'0:06.738',-2.31
'0:06.742',-0.66
'0:06.746',0.52
'0:06.750',0.85
'0:06.754',0.92
'0:06.758',1.07
'0:06.762',1.23
'0:06.766',1.03
'0:06.770',0.61
'0:06.773',-0.1
'0:06.777',-0.83
'0:06.781',-1.13
'0:06.785',-0.58
'0:06.789',0.79
'0:06.793',1.9
'0:06.797',2.13
'0:06.801',2.48
'0:06.805',-0.83
'0:06.809',-12.7
'0:06.813',-13.99
'0:06.816',-7
'0:06.820',-1.31
'0:06.824',2.18
'0:06.828',4.06
'0:06.832',4.83
'0:06.836',4.97
'0:06.840',4.6
'0:06.844',3.63
'0:06.848',2.58
'0:06.852',2.27
'0:06.855',2.14
'0:06.859',2.13
'0:06.863',2.33
'0:06.867',2.4
'0:06.871',2.26
'0:06.875',2.02
'0:06.879',1.73
'0:06.883',1.96
'0:06.887',2.41
'0:06.891',2.33
'0:06.895',1.75
'0:06.898',1.68
'0:06.902',1.55
'0:06.906',1.19
'0:06.910',1.07
'0:06.914',0.93
'0:06.918',0.96
'0:06.922',1.3
'0:06.926',1.96
'0:06.930',2.36
'0:06.934',2.36
'0:06.938',1.18
'0:06.941',-0.38
'0:06.945',-1.78
'0:06.949',-2.55
'0:06.953',-2.31
'0:06.957',-1.72
'0:06.961',-1.65
'0:06.965',-1.94
'0:06.969',-2.23
'0:06.973',-2.45
'0:06.977',-3.14
'0:06.980',-3.75
'0:06.984',-3.15
'0:06.988',-2.5
'0:06.992',-1.86
'0:06.996',-0.69
'0:07.000',1.02
'0:07.004',2.19
'0:07.008',2.57
'0:07.012',2.36
'0:07.016',0.5
'0:07.020',-1.61
'0:07.023',-2.99
'0:07.027',-4.12
'0:07.031',-4.38
'0:07.035',-3.88
'0:07.039',-3.29
'0:07.043',-3.13
'0:07.047',-2.76
'0:07.051',-1.83
'0:07.055',-0.95
'0:07.059',-0.58
'0:07.063',-0.28
'0:07.066',-0.3
'0:07.070',-0.3
'0:07.074',-0.25
'0:07.078',-0.06
'0:07.082',-0.04
'0:07.086',-0.38
'0:07.090',-0.37
'0:07.094',0.25
'0:07.098',0.75
'0:07.102',1.07
'0:07.105',1.58
'0:07.109',1.71
'0:07.113',1.7
'0:07.117',1.56
'0:07.121',1.97
'0:07.125',2.4
'0:07.129',2.73
'0:07.133',3.25
'0:07.137',3.47
'0:07.141',3.54
'0:07.145',3.44
'0:07.148',3.24
'0:07.152',2.63
'0:07.156',2.16
'0:07.160',1.93
'0:07.164',1.71
'0:07.168',1.4
'0:07.172',0.53
'0:07.176',-0.54
'0:07.180',-1.06
'0:07.184',-1.12
'0:07.188',-1.07
'0:07.191',-0.85
'0:07.195',-0.78
'0:07.199',-1.16
'0:07.203',-1.22
'0:07.207',-1.21
'0:07.211',-1.22
'0:07.215',-1.21
'0:07.219',0.73
'0:07.223',0.97
'0:07.227',1.48
'0:07.230',1.34
'0:07.234',0.81
'0:07.238',0.65
'0:07.242',0.53
'0:07.246',0.85
'0:07.250',0.93
'0:07.254',0.92
'0:07.258',0.92
'0:07.262',-0.91
'0:07.266',-1.54
'0:07.270',-2.17
'0:07.273',-2.54
'0:07.277',-2.65
'0:07.281',-2.7
'0:07.285',-2.71
'0:07.289',-2.62
'0:07.293',-2.37
'0:07.297',-2.41
'0:07.301',-2.83
'0:07.305',-3.32
'0:07.309',-3.24
'0:07.313',-2.77
'0:07.316',-1.87
'0:07.320',-0.36
'0:07.324',2.02
'0:07.328',5.41
'0:07.332',8.57
'0:07.336',10
'0:07.340',8.32
'0:07.344',4.08
'0:07.348',-0.35
'0:07.352',-4.04
'0:07.355',-6.21
'0:07.359',-7.1
'0:07.363',-7.03
'0:07.367',-6.27
'0:07.371',-5.36
'0:07.375',-4.51
'0:07.379',-3.97
'0:07.383',-3.65
'0:07.387',-2.86
'0:07.391',-2.1
'0:07.395',-1.77
'0:07.398',-2
'0:07.402',-2
'0:07.406',-1.65
'0:07.410',-1.07
'0:07.414',-0.74
'0:07.418',-0.83
'0:07.422',-0.96
'0:07.426',-0.74
'0:07.430',-0.05
'0:07.434',0.62
'0:07.438',0.79
'0:07.441',1.22
'0:07.445',1.91
'0:07.449',2.24
'0:07.453',2.24
'0:07.457',2.39
'0:07.461',2.39
'0:07.465',2.6
'0:07.469',2.92
'0:07.473',3.19
'0:07.477',2.84
'0:07.480',1.89
'0:07.484',1.37
'0:07.488',0.9
'0:07.492',0.51
'0:07.496',0.68
'0:07.500',0.84
'0:07.504',1.03
'0:07.508',1.02
'0:07.512',0.89
'0:07.516',1.21
'0:07.520',1.52
'0:07.523',1.55
'0:07.527',1.21
'0:07.531',0.67
'0:07.535',0.62
'0:07.539',1.03
'0:07.543',1.34
'0:07.547',1.19
'0:07.551',1.55
'0:07.555',2.87
'0:07.559',3.22
'0:07.563',2.67
'0:07.566',2.38
'0:07.570',1.68
'0:07.574',1.44
'0:07.578',1.31
'0:07.582',0.37
'0:07.586',-0.7
'0:07.590',-0.89
'0:07.594',-0.72
'0:07.598',-1.24
'0:07.602',-2.04
'0:07.605',-2.78
'0:07.609',-2.36
'0:07.613',-1.71
'0:07.617',-2.97
'0:07.621',-4.42
'0:07.625',-4.15
'0:07.629',-3.96
'0:07.633',-3.82
'0:07.637',-3.26
'0:07.641',-2.42
'0:07.645',-1.55
'0:07.648',-0.2
'0:07.652',1.53
'0:07.656',2.41
'0:07.660',2.8
'0:07.664',3.04
'0:07.668',1.28
'0:07.672',-1.65
'0:07.676',-4.4
'0:07.680',-6.2
'0:07.684',-6.27
'0:07.688',-5.3
'0:07.691',-4.29
'0:07.695',-3.13
'0:07.699',-2.2
'0:07.703',-1.44
'0:07.707',-0.9
'0:07.711',-0.65
'0:07.715',-0.68
'0:07.719',-0.57
'0:07.723',-0.21
'0:07.727',0.16
'0:07.730',-2.17
'0:07.734',-14.99
'0:07.738',-17.24
'0:07.742',-10.49
'0:07.746',-4.7
'0:07.750',-0.83
'0:07.754',1.36
'0:07.758',2.95
'0:07.762',4.29
'0:07.766',4.72
'0:07.770',4.93
'0:07.773',5.21
'0:07.777',5.65
'0:07.781',5.71
'0:07.785',5.79
'0:07.789',5.99
'0:07.793',6.54
'0:07.797',6.89
'0:07.801',6.5
'0:07.805',5.88
'0:07.809',5.39
'0:07.813',4.6
'0:07.816',3.81
'0:07.820',3.14
'0:07.824',2.58
'0:07.828',2.05
'0:07.832',1.81
'0:07.836',1.74
'0:07.840',1.48
'0:07.844',1.1
'0:07.848',0.9
'0:07.852',1.19
'0:07.855',1.57
'0:07.859',1.76
'0:07.863',1.91
'0:07.867',1.87
'0:07.871',1.6
'0:07.875',1.05
'0:07.879',0.85
'0:07.883',1.05
'0:07.887',1.32
'0:07.891',1.02
'0:07.895',0.83
'0:07.898',1
'0:07.902',1.46
'0:07.906',1.08
'0:07.910',0.27
'0:07.914',-0.17
'0:07.918',-0.61
'0:07.922',-1.14
'0:07.926',-1.51
'0:07.930',-1.66
'0:07.934',-2
'0:07.938',-2.02
'0:07.941',-1.49
'0:07.945',-1.56
'0:07.949',-2.27
'0:07.953',-2.55
'0:07.957',-2.96
'0:07.961',-3.03
'0:07.965',-2.73
'0:07.969',-2.07
'0:07.973',-0.86
'0:07.977',0.41
'0:07.980',2.27
'0:07.984',4.5
'0:07.988',5.31
'0:07.992',4.74
'0:07.996',2.43
'0:08.000',-0.75
'0:08.004',-3.33
'0:08.008',-4.95
'0:08.012',-5.69
'0:08.016',-5.77
'0:08.020',-5.29
'0:08.023',-4.92
'0:08.027',-4.35
'0:08.031',-3.81
'0:08.035',-3.15
'0:08.039',-2.39
'0:08.043',-1.87
'0:08.047',-1.63
'0:08.051',-1.69
'0:08.055',-2.02
'0:08.059',-2.09
'0:08.063',-2.19
'0:08.066',-1.56
'0:08.070',-0.7
'0:08.074',-0.37
'0:08.078',-0.29
'0:08.082',-0.08
'0:08.086',0.09
'0:08.090',0.32
'0:08.094',0.7
'0:08.098',1.52
'0:08.102',2.51
'0:08.105',2.94
'0:08.109',2.81
'0:08.113',2.93
'0:08.117',3.18
'0:08.121',3.36
'0:08.125',3.49
'0:08.129',2.87
'0:08.133',2.06
'0:08.137',1.59
'0:08.141',1.32
'0:08.145',1.11
'0:08.148',0.72
'0:08.152',0.53
'0:08.156',0.45
'0:08.160',0.45
'0:08.164',0.04
'0:08.168',-0.54
'0:08.172',-0.89
'0:08.176',-0.92
'0:08.180',-0.97
'0:08.184',-1
'0:08.188',-0.73
'0:08.191',-0.37
'0:08.195',-0.17
'0:08.199',0.43
'0:08.203',1.09
'0:08.207',1.34
'0:08.211',1.35
'0:08.215',1.34
'0:08.219',1.58
'0:08.223',1.84
'0:08.227',1.97
'0:08.230',1.61
'0:08.234',1.13
'0:08.238',0.61
'0:08.242',-0.06
'0:08.246',-0.92
'0:08.250',-1.75
'0:08.254',-2.08
'0:08.258',-2.14
'0:08.262',-2.25
'0:08.266',-2.33
'0:08.270',-2.4
'0:08.273',-2.54
'0:08.277',-2.89
'0:08.281',-3.16
'0:08.285',-3.23
'0:08.289',-3.43
'0:08.293',-3.27
'0:08.297',-2.78
'0:08.301',-1.71
'0:08.305',0.3
'0:08.309',3.43
'0:08.313',6.48
'0:08.316',8.38
'0:08.320',8.66
'0:08.324',6.34
'0:08.328',2.84
'0:08.332',-0.72
'0:08.336',-3.25
'0:08.340',-4.71
'0:08.344',-5.42
'0:08.348',-5.26
'0:08.352',-4.61
'0:08.355',-3.94
'0:08.359',-3.22
'0:08.363',-2.51
'0:08.367',-2.33
'0:08.371',-2.23
'0:08.375',-1.96
'0:08.379',-1.9
'0:08.383',-1.61
'0:08.387',-1.25
'0:08.391',-0.59
'0:08.395',0.2
'0:08.398',0.61
'0:08.402',0.73
'0:08.406',0.92
'0:08.410',1.1
'0:08.414',1.6
'0:08.418',1.89
'0:08.422',2.06
'0:08.426',2.4
'0:08.430',2.82
'0:08.434',3.24
'0:08.438',3.25
'0:08.441',2.74
'0:08.445',2.48
'0:08.449',2.32
'0:08.453',2.76
'0:08.457',3.91
'0:08.461',4.59
'0:08.465',4.35
'0:08.469',3.89
'0:08.473',3.61
'0:08.477',3.52
'0:08.480',3.19
'0:08.484',2.41
'0:08.488',1.57
'0:08.492',0.72
'0:08.496',-0.15
'0:08.500',-0.94
'0:08.504',-1.66
'0:08.508',-2.23
'0:08.512',-2.09
'0:08.516',-0.93
'0:08.520',0.33
'0:08.523',0.56
'0:08.527',0.61
'0:08.531',0.25
'0:08.535',-0.36
'0:08.539',-0.28
'0:08.543',0.45
'0:08.547',1.26
'0:08.551',2.06
'0:08.555',2.51
'0:08.559',1.9
'0:08.563',0.72
'0:08.566',-0.34
'0:08.570',-1.09
'0:08.574',-1
'0:08.578',-0.76
'0:08.582',-1.32
'0:08.586',-1.82
'0:08.590',-2.11
'0:08.594',-2.24
'0:08.598',-2.55
'0:08.602',-3.02
'0:08.605',-3.66
'0:08.609',-3.84
'0:08.613',-3.9
'0:08.617',-3.73
'0:08.621',-3.36
'0:08.625',-2.63
'0:08.629',-1.55
'0:08.633',-0.08
'0:08.637',1.72
'0:08.641',2.01
'0:08.645',1.32
'0:08.648',-0.18
'0:08.652',-2.25
'0:08.656',-4.15
'0:08.660',-5.46
'0:08.664',-6.05
'0:08.668',-5.76
'0:08.672',-4.64
'0:08.676',-3.54
'0:08.680',-2.62
'0:08.684',-1.95
'0:08.688',-1.32
'0:08.691',-0.56
'0:08.695',0.33
'0:08.699',0.8
'0:08.703',0.5
'0:08.707',0.28
'0:08.711',0.67
'0:08.715',1.17
'0:08.719',1.46
'0:08.723',1.24
'0:08.727',1.08
'0:08.730',0.87
'0:08.734',0.87
'0:08.738',1.13
'0:08.742',1.5
'0:08.746',2.03
'0:08.750',2.65
'0:08.754',2.91
'0:08.758',3.23
'0:08.762',3.42
'0:08.766',4.03
'0:08.770',4.76
'0:08.773',4.88
'0:08.777',4.42
'0:08.781',3.66
'0:08.785',3.02
'0:08.789',2.36
'0:08.793',2.11
'0:08.797',1.98
'0:08.801',1.03
'0:08.805',0.28
'0:08.809',-0.11
'0:08.813',-0.22
'0:08.816',-0.28
'0:08.820',-0.27
'0:08.824',-0.19
'0:08.828',-0.04
'0:08.832',0.6
'0:08.836',1.16
'0:08.840',0.9
'0:08.844',0.77
'0:08.848',0.37
'0:08.852',-0.07
'0:08.855',-0.06
'0:08.859',0.25
'0:08.863',0.56
'0:08.867',0.83
'0:08.871',0.6
'0:08.875',0.5
'0:08.879',0.5
'0:08.883',0.67
'0:08.887',0.65
'0:08.891',0.4
'0:08.895',0.43
'0:08.898',0.17
'0:08.902',-0.41
'0:08.906',-1.38
'0:08.910',-1.68
'0:08.914',-1.5
'0:08.918',-1.58
'0:08.922',-1.89
'0:08.926',-2.27
'0:08.930',-2.77
'0:08.934',-3
'0:08.938',-3.02
'0:08.941',-3.75
'0:08.945',-4.5
'0:08.949',-4.26
'0:08.953',-3.3
'0:08.957',-1.45
'0:08.961',0.94
'0:08.965',3.86
'0:08.969',6.41
'0:08.973',7.19
'0:08.977',5.88
'0:08.980',2.56
'0:08.984',-0.81
'0:08.988',-3.32
'0:08.992',-4.71
'0:08.996',-5.14
'0:09.000',-5.04
'0:09.004',-5.04
'0:09.008',-5.04
'0:09.012',-4.21
'0:09.016',-3.3
'0:09.020',-2.93
'0:09.023',-2.73
'0:09.027',-2.41
'0:09.031',-1.66
'0:09.035',-1.58
'0:09.039',-1.6
'0:09.043',-1.69
'0:09.047',-1.08
'0:09.051',-0.18
'0:09.055',0.2
'0:09.059',0.21
'0:09.063',0.39
'0:09.066',0.84
'0:09.070',0.9
'0:09.074',1.25
'0:09.078',1.42
'0:09.082',1.42
'0:09.086',2.17
'0:09.090',2.91
'0:09.094',2.78
'0:09.098',2.85
'0:09.102',2.77
'0:09.105',2.79
'0:09.109',2.88
'0:09.113',2.83
'0:09.117',2.75
'0:09.121',2.38
'0:09.125',2.07
'0:09.129',1.67
'0:09.133',1.44
'0:09.137',0.85
'0:09.141',0.35
'0:09.145',0.08
'0:09.148',0.02
'0:09.152',-0.13
'0:09.156',0.04
'0:09.160',0.31
'0:09.164',-0.23
'0:09.168',-0.89
'0:09.172',-1.28
'0:09.176',-0.83
'0:09.180',-0.57
'0:09.184',-0.27
'0:09.188',-0.04
'0:09.191',0.17
'0:09.195',0.65
'0:09.199',0.94
'0:09.203',1.17
'0:09.207',1.49
'0:09.211',1.55
'0:09.215',1.14
'0:09.219',0.51
'0:09.223',-0.06
'0:09.227',-0.45
'0:09.230',-0.9
'0:09.234',-1.76
'0:09.238',-2.63
'0:09.242',-2.89
'0:09.246',-2.45
'0:09.250',-2.01
'0:09.254',-1.73
'0:09.258',-1.62
'0:09.262',-1.83
'0:09.266',-2.35
'0:09.270',-3.11
'0:09.273',-3.56
'0:09.277',-3.52
'0:09.281',-2.28
'0:09.285',0.04
'0:09.289',3.33
'0:09.293',6.9
'0:09.297',9.11
'0:09.301',9.34
'0:09.305',6.54
'0:09.309',2.61
'0:09.313',-1.15
'0:09.316',-4.05
'0:09.320',-5.38
'0:09.324',-5.5
'0:09.328',-5.21
'0:09.332',-4.54
'0:09.336',-3.79
'0:09.340',-3.36
'0:09.344',-3.02
'0:09.348',-2.74
'0:09.352',-2.45
'0:09.355',-2.18
'0:09.359',-1.94
'0:09.363',-1.81
'0:09.367',-1.5
'0:09.371',-1
'0:09.375',-0.94
'0:09.379',-0.87
'0:09.383',-0.47
'0:09.387',-0.01
'0:09.391',0.02
'0:09.395',-0.12
'0:09.398',0.13
'0:09.402',0.39
'0:09.406',1.18
'0:09.410',2.23
'0:09.414',2.87
'0:09.418',3.11
'0:09.422',3.12
'0:09.426',3.26
'0:09.430',3.62
'0:09.434',3.58
'0:09.438',2.97
'0:09.441',2.07
'0:09.445',1.65
'0:09.449',1.19
'0:09.453',0.1
'0:09.457',-0.41
'0:09.461',0.02
'0:09.465',0.65
'0:09.469',1.41
'0:09.473',2.16
'0:09.477',1.99
'0:09.480',1.02
'0:09.484',0.33
'0:09.488',0
'0:09.492',-0.26
'0:09.496',-1.09
'0:09.500',-2.22
'0:09.504',-5.98
'0:09.508',-6.88
'0:09.512',-3.58
'0:09.516',-0.6
'0:09.520',1.03
'0:09.523',1.89
'0:09.527',2.28
'0:09.531',1.63
'0:09.535',-7.87
'0:09.539',-19.69
'0:09.543',-16.65
'0:09.547',-8.85
'0:09.551',-3.33
'0:09.555',-0.35
'0:09.559',0.4
'0:09.563',0.22
'0:09.566',-0.25
'0:09.570',-0.17
'0:09.574',0.17
'0:09.578',0.3
'0:09.582',-0.06
'0:09.586',-0.37
'0:09.590',-0.4
'0:09.594',-0.11
'0:09.598',0.79
'0:09.602',1.07
'0:09.605',0.91
'0:09.609',0.16
'0:09.613',-0.2
'0:09.617',0.7
'0:09.621',2.74
'0:09.625',3.87
'0:09.629',3.58
'0:09.633',0.84
'0:09.637',-2.33
'0:09.641',-3.41
'0:09.645',-2.76
'0:09.648',-2.33
'0:09.652',-1.93
'0:09.656',-0.83
'0:09.660',0.51
'0:09.664',1.03
'0:09.668',0.72
'0:09.672',0.32
'0:09.676',0.02
'0:09.680',0.35
'0:09.684',0.46
'0:09.688',0.73
'0:09.691',1.06
'0:09.695',1.09
'0:09.699',0.38
'0:09.703',-0.39
'0:09.707',0.85
'0:09.711',1.88
'0:09.715',1.87
'0:09.719',2.32
'0:09.723',3.06
'0:09.727',3.72
'0:09.730',4.1
'0:09.734',4.73
'0:09.738',5.26
'0:09.742',5.48
'0:09.746',5.92
'0:09.750',6
'0:09.754',5.78
'0:09.758',5.11
'0:09.762',4.51
'0:09.766',3.76
'0:09.770',2.91
'0:09.773',2.05
'0:09.777',1.43
'0:09.781',0.89
'0:09.785',-0.21
'0:09.789',-1.51
'0:09.793',-1.83
'0:09.797',-1.07
'0:09.801',-0.13
'0:09.805',0.16
'0:09.809',-0.56
'0:09.813',-1.05
'0:09.816',-1.21
'0:09.820',-0.95
'0:09.824',-0.9
'0:09.828',-1.01
'0:09.832',-0.94
'0:09.836',-0.67
'0:09.840',-0.63
'0:09.844',-0.74
'0:09.848',-0.87
'0:09.852',-0.71
'0:09.855',-0.49
'0:09.859',-0.62
'0:09.863',-0.63
'0:09.867',-0.66
'0:09.871',-0.79
'0:09.875',-0.9
'0:09.879',-0.74
'0:09.883',-0.89
'0:09.887',-1.55
'0:09.891',-2.36
'0:09.895',-2.53
'0:09.898',-2.53
'0:09.902',-2.53
'0:09.906',-4.86
'0:09.910',-5.53
'0:09.914',-5.69
'0:09.918',-5.38
'0:09.922',-4.88
'0:09.926',-4.88
'0:09.930',-4.5
'0:09.934',-4.02
'0:09.938',-3.45
'0:09.941',-2.15
'0:09.945',-0.13
'0:09.949',1.62
'0:09.953',2.28
'0:09.957',1.75
'0:09.961',-0.58
'0:09.965',-2.81
'0:09.969',-4.21
'0:09.973',-4.87
'0:09.977',-4.99
'0:09.980',-4.85
'0:09.984',-4.36
'0:09.988',-3.61
'0:09.992',-2.66
'0:09.996',-1.98
'0:10.000',-1.34
'0:10.004',-0.4
'0:10.008',0.61
'0:10.012',0.92
'0:10.016',1
'0:10.020',1.08
'0:10.023',1.16
'0:10.027',1.17
'0:10.031',1.06
'0:10.035',1.04
'0:10.039',1.21
'0:10.043',1.53
'0:10.047',2.02
'0:10.051',2.56
'0:10.055',3.08
'0:10.059',3.8
'0:10.063',4.2
'0:10.066',4.48
'0:10.070',4.5
'0:10.074',4.66
'0:10.078',4.69
'0:10.082',4.75
'0:10.086',4.86
'0:10.090',4.76
'0:10.094',4.38
'0:10.098',4.03
'0:10.102',3.67
'0:10.105',3.47
'0:10.109',2.92
'0:10.113',2.54
'0:10.117',1.67
'0:10.121',0.67
'0:10.125',0.19
'0:10.129',-0.32
'0:10.133',-0.27
'0:10.137',0.21
'0:10.141',0.79
'0:10.145',1.21
'0:10.148',0.93
'0:10.152',0.31
'0:10.156',-0.28
'0:10.160',-0.6
'0:10.164',-0.24
'0:10.168',0.5
'0:10.172',1.13
'0:10.176',1.48
'0:10.180',1.3
'0:10.184',0.91
'0:10.188',1.14
'0:10.191',2.25
'0:10.195',2.97
'0:10.199',3.11
'0:10.203',2.99
'0:10.207',3.01
'0:10.211',3.5
'0:10.215',4.08
'0:10.219',3.79
'0:10.223',2.92
'0:10.227',2.26
'0:10.230',1.84
'0:10.234',1.39
'0:10.238',0.97
'0:10.242',0.9
'0:10.246',0.93
'0:10.250',0.56
'0:10.254',-0.05
'0:10.258',-0.47
'0:10.262',-0.23
'0:10.266',1.22
'0:10.270',3.45
'0:10.273',6.27
'0:10.277',8.77
'0:10.281',10.21
'0:10.285',9.13
'0:10.289',5.59
'0:10.293',1.87
'0:10.297',-1.15
'0:10.301',-3.04
'0:10.305',-3.78
'0:10.309',-3.88
'0:10.313',-4.45
'0:10.316',-4.9
'0:10.320',-4.92
'0:10.324',-5.01
'0:10.328',-4.62
'0:10.332',-3.44
'0:10.336',-2.46
'0:10.340',-2
'0:10.344',-1.67
'0:10.348',-1.47
'0:10.352',-1.27
'0:10.355',-1
'0:10.359',-0.66
'0:10.363',-0.31
'0:10.367',-0.41
'0:10.371',-0.52
'0:10.375',-0.54
'0:10.379',0.2
'0:10.383',0.91
'0:10.387',0.81
'0:10.391',-1.69
'0:10.395',-1.36
'0:10.398',-0.41
'0:10.402',0.65
'0:10.406',1.7
'0:10.410',2.19
'0:10.414',2.09
'0:10.418',2.2
'0:10.422',-4.75
'0:10.426',-19.2
'0:10.430',-18.08
'0:10.434',-10.05
'0:10.438',-4.05
'0:10.441',-0.26
'0:10.445',2
'0:10.449',3.1
'0:10.453',3.18
'0:10.457',2.91
'0:10.461',2.22
'0:10.465',1.17
'0:10.469',0.72
'0:10.473',0.78
'0:10.477',1.03
'0:10.480',1.4
'0:10.484',1.73
'0:10.488',1.82
'0:10.492',1.44
'0:10.496',0.84
'0:10.500',0.87
'0:10.504',1.4
'0:10.508',2.05
'0:10.512',3.24
'0:10.516',4.19
'0:10.520',4.13
'0:10.523',4.06
'0:10.527',3.57
'0:10.531',2.39
'0:10.535',1.24
'0:10.539',0.88
'0:10.543',0.39
'0:10.547',-0.52
'0:10.551',-1.73
'0:10.555',-2.37
'0:10.559',-2.61
'0:10.563',-3.63
'0:10.566',-4.31
'0:10.570',-3.7
'0:10.574',-3.03
'0:10.578',-2.82
'0:10.582',-2.94
'0:10.586',-3.49
'0:10.590',-3.45
'0:10.594',-2.67
'0:10.598',-1.28
'0:10.602',0.04
'0:10.605',1.19
'0:10.609',1.88
'0:10.613',0.29
'0:10.617',-2.62
'0:10.621',-5.21
'0:10.625',-7.21
'0:10.629',-7.2
'0:10.633',-5.42
'0:10.637',-3.78
'0:10.641',-3.16
'0:10.645',-2.73
'0:10.648',-2.55
'0:10.652',-2.15
'0:10.656',-1.27
'0:10.660',-0.38
'0:10.664',-0.16
'0:10.668',-0.32
'0:10.672',-0.55
'0:10.676',-0.64
'0:10.680',-0.85
'0:10.684',-0.69
'0:10.688',-0.55
'0:10.691',-0.59
'0:10.695',-0.7
'0:10.699',-0.69
'0:10.703',-0.32
'0:10.707',0.15
'0:10.711',0.73
'0:10.715',1.1
'0:10.719',1.48
'0:10.723',2.06
'0:10.727',2.79
'0:10.730',3.13
'0:10.734',3.14
'0:10.738',3.04
'0:10.742',3.22
'0:10.746',2.88
'0:10.750',1.89
'0:10.754',0.59
'0:10.758',-0.32
'0:10.762',-0.92
'0:10.766',-1.73
'0:10.770',-2.46
'0:10.773',-3.11
'0:10.777',-3.22
'0:10.781',-3.21
'0:10.785',-2.99
'0:10.789',-2.8
'0:10.793',-2.3
'0:10.797',-1.74
'0:10.801',-1.99
'0:10.805',-1.97
'0:10.809',-1.67
'0:10.813',-1.46
'0:10.816',-1.04
'0:10.820',-0.8
'0:10.824',-0.64
'0:10.828',-0.52
'0:10.832',-0.44
'0:10.836',-0.54
'0:10.840',-0.86
'0:10.844',-0.81
'0:10.848',-0.52
'0:10.852',-0.07
'0:10.855',0.07
'0:10.859',-0.36
'0:10.863',-0.94
'0:10.867',-1.21
'0:10.871',-1.52
'0:10.875',-1.69
'0:10.879',-1.74
'0:10.883',-1.67
'0:10.887',-1.2
'0:10.891',-0.91
'0:10.895',-0.87
'0:10.898',-0.81
'0:10.902',-1.29
'0:10.906',-1.92
'0:10.910',-2.08
'0:10.914',-1.54
'0:10.918',-0.67
'0:10.922',0.96
'0:10.926',3.29
'0:10.930',5.82
'0:10.934',7.39
'0:10.938',7.92
'0:10.941',5.91
'0:10.945',2.82
'0:10.949',-0.07
'0:10.953',-1.99
'0:10.957',-2.85
'0:10.961',-2.97
'0:10.965',-2.65
'0:10.969',-2.24
'0:10.973',-2.26
'0:10.977',-2.09
'0:10.980',-1.95
'0:10.984',-1.35
'0:10.988',-0.62
'0:10.992',-0.18
'0:10.996',-0.15
'0:11.000',0.29
'0:11.004',0.89
'0:11.008',1.58
'0:11.012',2.39
'0:11.016',3.68
'0:11.020',4.64
'0:11.023',5.27
'0:11.027',6
'0:11.031',6.47
'0:11.035',6.21
'0:11.039',5.72
'0:11.043',5.49
'0:11.047',5.11
'0:11.051',5.15
'0:11.055',5.41
'0:11.059',5.37
'0:11.063',5
'0:11.066',4.75
'0:11.070',5.08
'0:11.074',5.48
'0:11.078',4.98
'0:11.082',3.7
'0:11.086',2.86
'0:11.090',2.78
'0:11.094',2.77
'0:11.098',2.51
'0:11.102',2.2
'0:11.105',1.97
'0:11.109',2.25
'0:11.113',2.47
'0:11.117',2.36
'0:11.121',2.16
'0:11.125',2.06
'0:11.129',1.76
'0:11.133',1.45
'0:11.137',1.12
'0:11.141',0.32
'0:11.145',-0.42
'0:11.148',-0.49
'0:11.152',0.01
'0:11.156',0.84
'0:11.160',1.82
'0:11.164',2.23
'0:11.168',1.98
'0:11.172',1.53
'0:11.176',0.75
'0:11.180',-0.23
'0:11.184',-1.06
'0:11.188',-1.7
'0:11.191',-1.75
'0:11.195',-1
'0:11.199',-0.98
'0:11.203',-2.29
'0:11.207',-3.29
'0:11.211',-3.81
'0:11.215',-4.08
'0:11.219',-3.75
'0:11.223',-3.38
'0:11.227',-3.4
'0:11.230',-3.79
'0:11.234',-4.11
'0:11.238',-3.99
'0:11.242',-3.25
'0:11.246',-2.31
'0:11.250',-0.28
'0:11.254',2.73
'0:11.258',5.13
'0:11.262',5.83
'0:11.266',1.04
'0:11.270',-2.87
'0:11.273',-5.06
'0:11.277',-9.87
'0:11.281',-18.39
'0:11.285',-18.45
'0:11.289',-13.09
'0:11.293',-8.28
'0:11.297',-4.81
'0:11.301',-2.01
'0:11.305',0.23
'0:11.309',1.66
'0:11.313',2.18
'0:11.316',2.55
'0:11.320',3.14
'0:11.324',3.28
'0:11.328',2.71
'0:11.332',1.88
'0:11.336',1.18
'0:11.340',0.65
'0:11.344',0.9
'0:11.348',1.11
'0:11.352',0.7
'0:11.355',1.35
'0:11.359',2.36
'0:11.363',3.1
'0:11.367',3.72
'0:11.371',4.19
'0:11.375',4.45
'0:11.379',3.92
'0:11.383',3.92
'0:11.387',4.2
'0:11.391',3.99
'0:11.395',4.19
'0:11.398',4.52
'0:11.402',4.42
'0:11.406',3.83
'0:11.410',2.8
'0:11.414',2.15
'0:11.418',1.92
'0:11.422',1.64
'0:11.426',0.83
'0:11.430',-0.33
'0:11.434',-1.37
'0:11.438',-1.85
'0:11.441',-1.51
'0:11.445',-1.21
'0:11.449',-1.38
'0:11.453',-1.87
'0:11.457',-1.83
'0:11.461',-1.28
'0:11.465',-0.33
'0:11.469',0.34
'0:11.473',0.19
'0:11.477',-0.15
'0:11.480',-0.27
'0:11.484',-0.72
'0:11.488',-1.18
'0:11.492',-0.79
'0:11.496',0.14
'0:11.500',0.46
'0:11.504',-0.1
'0:11.508',-1.21
'0:11.512',-2.43
'0:11.516',-3.56
'0:11.520',-3.84
'0:11.523',-3.71
'0:11.527',-3.51
'0:11.531',-3.12
'0:11.535',-2.85
'0:11.539',-3.31
'0:11.543',-3.92
'0:11.547',-4.27
'0:11.551',-4.56
'0:11.555',-4.59
'0:11.559',-4.37
'0:11.563',-4.23
'0:11.566',-3.99
'0:11.570',-3.05
'0:11.574',-1.38
'0:11.578',0.34
'0:11.582',1.27
'0:11.586',1.35
'0:11.590',-0.13
'0:11.594',-3
'0:11.598',-5.61
'0:11.602',-7.34
'0:11.605',-8.15
'0:11.609',-7.98
'0:11.613',-7.27
'0:11.617',-6.65
'0:11.621',-6.18
'0:11.625',-6.03
'0:11.629',-5.66
'0:11.633',-5.07
'0:11.637',-4.51
'0:11.641',-4.02
'0:11.645',-3.49
'0:11.648',-3.07
'0:11.652',-2.59
'0:11.656',-2.24
'0:11.660',-1.79
'0:11.664',-1.32
'0:11.668',-0.9
'0:11.672',-0.48
'0:11.676',-0.45
'0:11.680',-0.64
'0:11.684',-0.47
'0:11.688',-0.24
'0:11.691',0.28
'0:11.695',0.97
'0:11.699',1.93
'0:11.703',2.66
'0:11.707',3.37
'0:11.711',3.89
'0:11.715',4.26
'0:11.719',4.43
'0:11.723',4.03
'0:11.727',3.66
'0:11.730',3.31
'0:11.734',2.95
'0:11.738',2.62
'0:11.742',2.38
'0:11.746',2.24
'0:11.750',2.35
'0:11.754',2.3
'0:11.758',1.88
'0:11.762',1.56
'0:11.766',1.25
'0:11.770',0.92
'0:11.773',0.7
'0:11.777',0.72
'0:11.781',1.02
'0:11.785',1.23
'0:11.789',1.68
'0:11.793',2.35
'0:11.797',2.68
'0:11.801',2.71
'0:11.805',2.57
'0:11.809',2.75
'0:11.813',3.02
'0:11.816',3.12
'0:11.820',3.17
'0:11.824',3.19
'0:11.828',3.08
'0:11.832',2.3
'0:11.836',1.57
'0:11.840',0.73
'0:11.844',-0.21
'0:11.848',-0.8
'0:11.852',-1.09
'0:11.855',-1.47
'0:11.859',-1.75
'0:11.863',-1.69
'0:11.867',-2.02
'0:11.871',-2.39
'0:11.875',-2.7
'0:11.879',-2.87
'0:11.883',-2.51
'0:11.887',-1.81
'0:11.891',-1.08
'0:11.895',-0.25
'0:11.898',1.21
'0:11.902',3.96
'0:11.906',7.04
'0:11.910',9.38
'0:11.914',10.94
'0:11.918',10.1
'0:11.922',7.27
'0:11.926',3.49
'0:11.930',0.41
'0:11.934',-1.24
'0:11.938',-1.91
'0:11.941',-1.71
'0:11.945',-1.23
'0:11.949',-0.5
'0:11.953',-0.07
'0:11.957',0.3
'0:11.961',0.8
'0:11.965',1.5
'0:11.969',1.84
'0:11.973',2.09
'0:11.977',2.44
'0:11.980',2.55
'0:11.984',2.29
'0:11.988',2.11
'0:11.992',1.89
'0:11.996',1.78
'0:12.000',2
'0:12.004',2.56
'0:12.008',2.8
'0:12.012',2.43
'0:12.016',1.94
'0:12.020',1.91
'0:12.023',2.38
'0:12.027',3.19
'0:12.031',3.91
'0:12.035',4.14
'0:12.039',3.77
'0:12.043',3.11
'0:12.047',2.77
'0:12.051',2.52
'0:12.055',2.21
'0:12.059',2.37
'0:12.063',2.49
'0:12.066',2.43
'0:12.070',2.15
'0:12.074',1.31
'0:12.078',0.38
'0:12.082',-0.37
'0:12.086',-0.58
'0:12.090',-0.56
'0:12.094',-0.64
'0:12.098',-0.81
'0:12.102',-1.09
'0:12.105',-1.01
'0:12.109',-0.72
'0:12.113',-0.74
'0:12.117',-1.09
'0:12.121',-1.43
'0:12.125',-1.1
'0:12.129',-0.22
'0:12.133',0.16
'0:12.137',0.15
'0:12.141',0
'0:12.145',-0.14
'0:12.148',-0.1
'0:12.152',0.52
'0:12.156',0.82
'0:12.160',0.69
'0:12.164',0.16
'0:12.168',-0.53
'0:12.172',-1.52
'0:12.176',-2.55
'0:12.180',-3.09
'0:12.184',-3.61
'0:12.188',-3.67
'0:12.191',-3.41
'0:12.195',-3.06
'0:12.199',-2.71
'0:12.203',-2.54
'0:12.207',-3
'0:12.211',-3.65
'0:12.215',-3.95
'0:12.219',-4.05
'0:12.223',-3.34
'0:12.227',-1.2
'0:12.230',1.78
'0:12.234',4.6
'0:12.238',6.27
'0:12.242',6.34
'0:12.246',3.4
'0:12.250',-0.5
'0:12.254',-3.91
'0:12.258',-6.27
'0:12.262',-7.25
'0:12.266',-7.13
'0:12.270',-6.34
'0:12.273',-5.67
'0:12.277',-5.13
'0:12.281',-4.57
'0:12.285',-3.98
'0:12.289',-3.74
'0:12.293',-3.45
'0:12.297',-2.84
'0:12.301',-2.31
'0:12.305',-2.4
'0:12.309',-2.48
'0:12.313',-1.72
'0:12.316',-0.82
'0:12.320',-0.11
'0:12.324',0.1
'0:12.328',-0.15
'0:12.332',-0.3
'0:12.336',-0.32
'0:12.340',-0.03
'0:12.344',0.54
'0:12.348',0.57
'0:12.352',0.71
'0:12.355',0.83
'0:12.359',0.53
'0:12.363',0.78
'0:12.367',1.51
'0:12.371',1.61
'0:12.375',1.44
'0:12.379',1.48
'0:12.383',1.39
'0:12.387',0.93
'0:12.391',0.78
'0:12.395',0.62
'0:12.398',0.11
'0:12.402',0.01
'0:12.406',0.38
'0:12.410',0.48
'0:12.414',0.66
'0:12.418',1
'0:12.422',0.99
'0:12.426',0.46
'0:12.430',-0.08
'0:12.434',-0.58
'0:12.438',-0.57
'0:12.441',-0.22
'0:12.445',0.19
'0:12.449',0.62
'0:12.453',0.77
'0:12.457',0.63
'0:12.461',0.67
'0:12.465',0.24
'0:12.469',-0.02
'0:12.473',0.46
'0:12.477',0.97
'0:12.480',0.82
'0:12.484',0.2
'0:12.488',-0.71
'0:12.492',-1.69
'0:12.496',-2.5
'0:12.500',-3.01
'0:12.504',-3.91
'0:12.508',-4.42
'0:12.512',-4.02
'0:12.516',-3.41
'0:12.520',-3.26
'0:12.523',-3.35
'0:12.527',-3.95
'0:12.531',-4.59
'0:12.535',-4.99
'0:12.539',-5.15
'0:12.543',-4.54
'0:12.547',-3.55
'0:12.551',-2.12
'0:12.555',-0.13
'0:12.559',1.13
'0:12.563',0.99
'0:12.566',-1.01
'0:12.570',-4.17
'0:12.574',-6.69
'0:12.578',-7.97
'0:12.582',-8.63
'0:12.586',-8.39
'0:12.590',-7.65
'0:12.594',-6.3
'0:12.598',-5.11
'0:12.602',-4.19
'0:12.605',-3.51
'0:12.609',-3.23
'0:12.613',-2.9
'0:12.617',-2.57
'0:12.621',-2.29
'0:12.625',-1.94
'0:12.629',-1.37
'0:12.633',-0.93
'0:12.637',-0.85
'0:12.641',-0.9
'0:12.645',-0.99
'0:12.648',-0.67
'0:12.652',-0.01
'0:12.656',0.28
'0:12.660',0.55
'0:12.664',0.88
'0:12.668',1.22
'0:12.672',1.85
'0:12.676',2.58
'0:12.680',3.57
'0:12.684',4.2
'0:12.688',4.29
'0:12.691',4.4
'0:12.695',4.51
'0:12.699',4.24
'0:12.703',3.99
'0:12.707',3.91
'0:12.711',3.48
'0:12.715',2.92
'0:12.719',2.36
'0:12.723',1.95
'0:12.727',1.97
'0:12.730',1.84
'0:12.734',1.83
'0:12.738',1.82
'0:12.742',1.62
'0:12.746',1.56
'0:12.750',1.94
'0:12.754',2.54
'0:12.758',3.09
'0:12.762',3.64
'0:12.766',4.34
'0:12.770',5.04
'0:12.773',5.95
'0:12.777',6.49
'0:12.781',6.38
'0:12.785',6.33
'0:12.789',6.44
'0:12.793',6.21
'0:12.797',6.06
'0:12.801',5.94
'0:12.805',6.02
'0:12.809',6.12
'0:12.813',5.8
'0:12.816',5.24
'0:12.820',4.15
'0:12.824',2.81
'0:12.828',1.7
'0:12.832',0.77
'0:12.836',0.08
'0:12.840',-0.36
'0:12.844',-0.49
'0:12.848',-0.56
'0:12.852',-0.86
'0:12.855',-0.83
'0:12.859',-1.03
'0:12.863',-1.03
'0:12.867',-0.79
'0:12.871',-0.25
'0:12.875',0.68
'0:12.879',1.97
'0:12.883',4.33
'0:12.887',6.66
'0:12.891',7.89
'0:12.895',7.97
'0:12.898',5.42
'0:12.902',1.92
'0:12.906',-1
'0:12.910',-3.22
'0:12.914',-4.61
'0:12.918',-4.98
'0:12.922',-4.21
'0:12.926',-2.97
'0:12.930',-1.86
'0:12.934',-1.61
'0:12.938',-1.5
'0:12.941',-1.19
'0:12.945',-0.62
'0:12.949',-0.35
'0:12.953',-0.48
'0:12.957',-0.46
'0:12.961',-0.67
'0:12.965',-0.79
'0:12.969',-0.76
'0:12.973',-0.55
'0:12.977',-0.27
'0:12.980',0.22
'0:12.984',0.37
'0:12.988',0.42
'0:12.992',0.26
'0:12.996',0.26
'0:13.000',0.51
'0:13.004',0.94
'0:13.008',1.35
'0:13.012',1.44
'0:13.016',1.54
'0:13.020',1.91
'0:13.023',1.91
'0:13.027',1.85
'0:13.031',1.84
'0:13.035',1.63
'0:13.039',1.04
'0:13.043',0.48
'0:13.047',-0.2
'0:13.051',-0.69
'0:13.055',-0.88
'0:13.059',-1.29
'0:13.063',-1.4
'0:13.066',-1.33
'0:13.070',-1.22
'0:13.074',-1.55
'0:13.078',-2.07
'0:13.082',-2.14
'0:13.086',-2.17
'0:13.090',-2.03
'0:13.094',-1.81
'0:13.098',-1.62
'0:13.102',-1.24
'0:13.105',-0.58
'0:13.109',0.03
'0:13.113',0.22
'0:13.117',0.31
'0:13.121',0.37
'0:13.125',0.4
'0:13.129',0.16
'0:13.133',-0.57
'0:13.137',-1.13
'0:13.141',-1.49
'0:13.145',-2.35
'0:13.148',-2.67
'0:13.152',-2.74
'0:13.156',-3.05
'0:13.160',-3.46
'0:13.164',-3.96
'0:13.168',-4.14
'0:13.172',-4.07
'0:13.176',-3.67
'0:13.180',-3.45
'0:13.184',-4.17
'0:13.188',-4.66
'0:13.191',-4.24
'0:13.195',-3.62
'0:13.199',-2.76
'0:13.203',-1.48
'0:13.207',0.18
'0:13.211',2.32
'0:13.215',4.11
'0:13.219',4.64
'0:13.223',2.38
'0:13.227',-0.63
'0:13.230',-2.99
'0:13.234',-4.54
'0:13.238',-5.21
'0:13.242',-5.31
'0:13.246',-4.54
'0:13.250',-3.67
'0:13.254',-3.12
'0:13.258',-2.78
'0:13.262',-2.59
'0:13.266',-2.3
'0:13.270',-1.42
'0:13.273',-0.97
'0:13.277',-1.14
'0:13.281',-1.28
'0:13.285',-0.79
'0:13.289',-0.56
'0:13.293',0.14
'0:13.297',1.21
'0:13.301',1.82
'0:13.305',1.67
'0:13.309',1.08
'0:13.313',0.7
'0:13.316',0.61
'0:13.320',1.35
'0:13.324',2.52
'0:13.328',3.22
'0:13.332',3.66
'0:13.336',3.91
'0:13.340',3.45
'0:13.344',2.93
'0:13.348',2.9
'0:13.352',2.78
'0:13.355',1.91
'0:13.359',0.68
'0:13.363',-0.58
'0:13.367',-0.47
'0:13.371',-0.05
'0:13.375',-0.13
'0:13.379',-0.36
'0:13.383',-0.59
'0:13.387',-0.92
'0:13.391',-1.52
'0:13.395',-1.83
'0:13.398',-1.76
'0:13.402',-1.46
'0:13.406',-1.32
'0:13.410',-1.38
'0:13.414',-1.36
'0:13.418',-1.16
'0:13.422',-0.67
'0:13.426',-0.52
'0:13.430',-0.56
'0:13.434',-0.46
'0:13.438',0.07
'0:13.441',0.15
'0:13.445',0.16
'0:13.449',-0.09
'0:13.453',-0.58
'0:13.457',-1.56
'0:13.461',-2.8
'0:13.465',-3.79
'0:13.469',-4.29
'0:13.473',-5.22
'0:13.477',-5.48
'0:13.480',-5.27
'0:13.484',-4.6
'0:13.488',-4.46
'0:13.492',-4.41
'0:13.496',-4
'0:13.500',-3.96
'0:13.504',-4.34
'0:13.508',-4.78
'0:13.512',-5.05
'0:13.516',-5.3
'0:13.520',-5.17
'0:13.523',-4.48
'0:13.527',-3.42
'0:13.531',-1.46
'0:13.535',0.4
'0:13.539',0.87
'0:13.543',0.65
'0:13.547',-1.08
'0:13.551',-3.25
'0:13.555',-4.62
'0:13.559',-5.37
'0:13.563',-5.69
'0:13.566',-5.38
'0:13.570',-4.42
'0:13.574',-3.2
'0:13.578',-1.73
'0:13.582',-0.63
'0:13.586',-0.23
'0:13.590',-0.1
'0:13.594',-0.14
'0:13.598',-0.13
'0:13.602',-0.15
'0:13.605',0.13
'0:13.609',0.75
'0:13.613',1.05
'0:13.617',1.36
'0:13.621',2.18
'0:13.625',3.34
'0:13.629',4.64
'0:13.633',5.8
'0:13.637',6.72
'0:13.641',7.3
'0:13.645',7.16
'0:13.648',6.96
'0:13.652',7.77
'0:13.656',8.57
'0:13.660',8.82
'0:13.664',8.87
'0:13.668',8.81
'0:13.672',8.76
'0:13.676',8.82
'0:13.680',8.61
'0:13.684',7.66
'0:13.688',6.97
'0:13.691',6.82
'0:13.695',6.43
'0:13.699',5.65
'0:13.703',4.82
'0:13.707',3.95
'0:13.711',2.92
'0:13.715',2.57
'0:13.719',2.17
'0:13.723',2.2
'0:13.727',2.85
'0:13.730',3.56
'0:13.734',3.7
'0:13.738',3.28
'0:13.742',2.36
'0:13.746',2.05
'0:13.750',2.46
'0:13.754',3
'0:13.758',3.41
'0:13.762',3.21
'0:13.766',3.12
'0:13.770',3.1
'0:13.773',3.33
'0:13.777',3.36
'0:13.781',3.52
'0:13.785',3.37
'0:13.789',2.72
'0:13.793',2.06
'0:13.797',1.42
'0:13.801',0.79
'0:13.805',0.49
'0:13.809',0.42
'0:13.813',0.18
'0:13.816',-0.74
'0:13.820',-1.5
'0:13.824',-1.94
'0:13.828',-2.1
'0:13.832',-2.15
'0:13.836',-2.72
'0:13.840',-2.9
'0:13.844',-5.33
'0:13.848',-6.13
'0:13.852',-3.98
'0:13.855',-3.48
'0:13.859',-12.05
'0:13.863',-10.1
'0:13.867',-1.77
'0:13.871',3.9
'0:13.875',4.7
'0:13.879',2.63
'0:13.883',-0.28
'0:13.887',-2.21
'0:13.891',-3.32
'0:13.895',-4.01
'0:13.898',-4.2
'0:13.902',-3.98
'0:13.906',-3.42
'0:13.910',-2.37
'0:13.914',-1.24
'0:13.918',-0.37
'0:13.922',0.25
'0:13.926',0.46
'0:13.930',0.53
'0:13.934',0.72
'0:13.938',0.83
'0:13.941',0.85
'0:13.945',0.89
'0:13.949',0.95
'0:13.953',1.04
'0:13.957',1.26
'0:13.961',1.29
'0:13.965',1.25
'0:13.969',1.07
'0:13.973',1.26
'0:13.977',1.34
'0:13.980',1.23
'0:13.984',1.42
'0:13.988',1.55
'0:13.992',1.26
'0:13.996',0.9
'0:14.000',0.72
'0:14.004',0.97
'0:14.008',0.93
'0:14.012',0.67
'0:14.016',0.47
'0:14.020',-0.04
'0:14.023',-0.31
'0:14.027',-0.37
'0:14.031',-0.84
'0:14.035',-1.35
'0:14.039',-1.48
'0:14.043',-1.56
'0:14.047',-1.99
'0:14.051',-2.13
'0:14.055',-2.08
'0:14.059',-1.58
'0:14.063',-1.5
'0:14.066',-1.59
'0:14.070',-1.45
'0:14.074',-1.48
'0:14.078',-1.53
'0:14.082',-1.44
'0:14.086',-1.16
'0:14.090',-0.79
'0:14.094',-0.33
'0:14.098',-0.23
'0:14.102',-0.52
'0:14.105',-0.57
'0:14.109',-0.21
'0:14.113',-0.07
'0:14.117',-0.06
'0:14.121',-0.6
'0:14.125',-1.41
'0:14.129',-1.88
'0:14.133',-2.12
'0:14.137',-2.12
'0:14.141',-2.07
'0:14.145',-1.96
'0:14.148',-1.87
'0:14.152',-2.23
'0:14.156',-2.26
'0:14.160',-2.3
'0:14.164',-2.77
'0:14.168',-3.21
'0:14.172',-3
'0:14.176',-2.3
'0:14.180',-1
'0:14.184',1.88
'0:14.188',4.24
'0:14.191',5.15
'0:14.195',3.74
'0:14.199',-0.08
'0:14.203',-3.38
'0:14.207',-5
'0:14.211',-5.53
'0:14.215',-5.44
'0:14.219',-4.91
'0:14.223',-4.17
'0:14.227',-3.83
'0:14.230',-3.61
'0:14.234',-3.28
'0:14.238',-2.75
'0:14.242',-2.49
'0:14.246',-2.14
'0:14.250',-1.49
'0:14.254',-1.05
'0:14.258',-1.21
'0:14.262',-1.04
'0:14.266',-0.84
'0:14.270',-0.88
'0:14.273',-0.5
'0:14.277',-0.06
'0:14.281',0.39
'0:14.285',0.96
'0:14.289',0.63
'0:14.293',-0.07
'0:14.297',-0.17
'0:14.301',0.5
'0:14.305',1.43
'0:14.309',2.21
'0:14.313',3.34
'0:14.316',4.64
'0:14.320',6.07
'0:14.324',6.53
'0:14.328',6.18
'0:14.332',4.82
'0:14.336',2.58
'0:14.340',1.11
'0:14.344',0.79
'0:14.348',0.57
'0:14.352',0.44
'0:14.355',0.83
'0:14.359',1.12
'0:14.363',1.09
'0:14.367',0.24
'0:14.371',-0.52
'0:14.375',-0.31
'0:14.379',0.56
'0:14.383',0.93
'0:14.387',0.26
'0:14.391',-0.3
'0:14.395',-0.16
'0:14.398',0.25
'0:14.402',0.31
'0:14.406',-0.25
'0:14.410',-0.24
'0:14.414',0.68
'0:14.418',1.6
'0:14.422',1.95
'0:14.426',2.03
'0:14.430',2.01
'0:14.434',1.68
'0:14.438',1.17
'0:14.441',0.47
'0:14.445',-0.35
'0:14.449',-0.96
'0:14.453',-1.59
'0:14.457',-2.25
'0:14.461',-2.5
'0:14.465',-2.7
'0:14.469',-2.57
'0:14.473',-2.75
'0:14.477',-2.94
'0:14.480',-3.1
'0:14.484',-3.56
'0:14.488',-4.01
'0:14.492',-4.57
'0:14.496',-4.4
'0:14.500',-2.8
'0:14.504',-0.68
'0:14.508',1.27
'0:14.512',2.36
'0:14.516',2.01
'0:14.520',-0.79
'0:14.523',-3.94
'0:14.527',-4.88
'0:14.531',-4.94
'0:14.535',-4.93
'0:14.539',-4.64
'0:14.543',-3.34
'0:14.547',-2.03
'0:14.551',-1.66
'0:14.555',-1.81
'0:14.559',-2
'0:14.563',-1.44
'0:14.566',-0.1
'0:14.570',0.66
'0:14.574',1.15
'0:14.578',1.19
'0:14.582',1.16
'0:14.586',1.52
'0:14.590',1.8
'0:14.594',2.13
'0:14.598',2.29
'0:14.602',2.2
'0:14.605',2.12
'0:14.609',2.41
'0:14.613',3.08
'0:14.617',3.73
'0:14.621',4.21
'0:14.625',3.97
'0:14.629',3.8
'0:14.633',3.72
'0:14.637',3.95
'0:14.641',4.57
'0:14.645',4.87
'0:14.648',5.02
'0:14.652',4.58
'0:14.656',4.1
'0:14.660',3.76
'0:14.664',3.45
'0:14.668',3.09
'0:14.672',3.04
'0:14.676',2.95
'0:14.680',2
'0:14.684',0.65
'0:14.688',-0.34
'0:14.691',-0.72
'0:14.695',-0.87
'0:14.699',-0.88
'0:14.703',-0.33
'0:14.707',0.48
'0:14.711',0.76
'0:14.715',0.53
'0:14.719',0.44
'0:14.723',0.43
'0:14.727',0.69
'0:14.730',1.13
'0:14.734',1.59
'0:14.738',1.84
'0:14.742',2.16
'0:14.746',2.31
'0:14.750',2.26
'0:14.754',1.69
'0:14.758',1.25
'0:14.762',0.92
'0:14.766',0.43
'0:14.770',0.1
'0:14.773',-0.43
'0:14.777',-0.91
'0:14.781',-1.28
'0:14.785',-1.31
'0:14.789',-1.75
'0:14.793',-2.23
'0:14.797',-2.52
'0:14.801',-2.73
'0:14.805',-3.15
'0:14.809',-3.52
'0:14.813',-3.6
'0:14.816',-3.49
'0:14.820',-2.94
'0:14.824',-1.73
'0:14.828',-0.27
'0:14.832',1.95
'0:14.836',4.65
'0:14.840',6.45
'0:14.844',6.44
'0:14.848',3.74
'0:14.852',-0.08
'0:14.855',-3.52
'0:14.859',-5.98
'0:14.863',-7.27
'0:14.867',-7.59
'0:14.871',-7.47
'0:14.875',-6.94
'0:14.879',-6.17
'0:14.883',-5.47
'0:14.887',-4.9
'0:14.891',-4.36
'0:14.895',-3.89
'0:14.898',-3.55
'0:14.902',-3.09
'0:14.906',-2.48
'0:14.910',-2.13
'0:14.914',-1.86
'0:14.918',-1.27
'0:14.922',-0.67
'0:14.926',-0.34
'0:14.930',-0.36
'0:14.934',-0.38
'0:14.938',-0.34
'0:14.941',-0.22
'0:14.945',0.05
'0:14.949',0.42
'0:14.953',0.87
'0:14.957',1.3
'0:14.961',1.59
'0:14.965',1.91
'0:14.969',2.01
'0:14.973',1.92
'0:14.977',2
'0:14.980',2.35
'0:14.984',2.51
'0:14.988',2.3
'0:14.992',2.13
'0:14.996',1.66
'0:15.000',1.12
'0:15.004',0.66
'0:15.008',0.25
'0:15.012',-0.07
'0:15.016',0.11
'0:15.020',0.59
'0:15.023',0.76
'0:15.027',0.62
'0:15.031',0.29
'0:15.035',-0.11
'0:15.039',-0.11
'0:15.043',0.49
'0:15.047',1.26
'0:15.051',1.75
'0:15.055',1.76
'0:15.059',1.6
'0:15.063',1.35
'0:15.066',1.29
'0:15.070',1.5
'0:15.074',1.72
'0:15.078',1.49
'0:15.082',1.09
'0:15.086',0.79
'0:15.090',0.81
'0:15.094',0.53
'0:15.098',-0.25
'0:15.102',-1.33
'0:15.105',-2.47
'0:15.109',-2.77
'0:15.113',-2.71
'0:15.117',-2.35
'0:15.121',-1.99
'0:15.125',-1.68
'0:15.129',-1.77
'0:15.133',-2.17
'0:15.137',-2.37
'0:15.141',-1.93
'0:15.145',-1.2
'0:15.148',-0.38
'0:15.152',1.23
'0:15.156',3.47
'0:15.160',4.91
'0:15.164',4.85
'0:15.168',3.6
'0:15.172',0.76
'0:15.176',-1.79
'0:15.180',-3.61
'0:15.184',-4.59
'0:15.188',-4.48
'0:15.191',-3.29
'0:15.195',-2.31
'0:15.199',-1.82
'0:15.203',-1.2
'0:15.207',-0.44
'0:15.211',-0.12
'0:15.215',-0.5
'0:15.219',-1.48
'0:15.223',-1.37
'0:15.227',0.05
'0:15.230',1.82
'0:15.234',2.32
'0:15.238',1.93
'0:15.242',1.43
'0:15.246',0.81
'0:15.250',0.54
'0:15.254',0.69
'0:15.258',0.48
'0:15.262',0.29
'0:15.266',1.17
'0:15.270',1.94
'0:15.273',2.09
'0:15.277',2.7
'0:15.281',3.99
'0:15.285',5.11
'0:15.289',5.55
'0:15.293',5.65
'0:15.297',4.83
'0:15.301',3.56
'0:15.305',2.85
'0:15.309',2.79
'0:15.313',2.93
'0:15.316',3.02
'0:15.320',2.42
'0:15.324',0.91
'0:15.328',0.05
'0:15.332',-0.56
'0:15.336',-0.74
'0:15.340',-0.74
'0:15.344',-0.8
'0:15.348',-0.7
'0:15.352',-0.83
'0:15.355',-1.17
'0:15.359',-0.99
'0:15.363',-0.16
'0:15.367',0.46
'0:15.371',0.03
'0:15.375',-0.5
'0:15.379',0.13
'0:15.383',0.95
'0:15.387',1.45
'0:15.391',1.39
'0:15.395',0.72
'0:15.398',0.76
'0:15.402',0.94
'0:15.406',1.03
'0:15.410',0.55
'0:15.414',-0.47
'0:15.418',-4.24
'0:15.422',-8.57
'0:15.426',-7.19
'0:15.430',-5.56
'0:15.434',-4.48
'0:15.438',-3.7
'0:15.441',-3.21
'0:15.445',-3.16
'0:15.449',-3.49
'0:15.453',-3.79
'0:15.457',-3.74
'0:15.461',-11.54
'0:15.465',-24.77
'0:15.469',-33.79
'0:15.473',-32.03
'0:15.477',-21.64
'0:15.480',-9.67
'0:15.484',-0.94
'0:15.488',4.12
'0:15.492',6.38
'0:15.496',5.27
'0:15.500',3.09
'0:15.504',0.96
'0:15.508',0.15
'0:15.512',0.67
'0:15.516',1.38
'0:15.520',2.17
'0:15.523',2.91
'0:15.527',3.14
'0:15.531',3.4
'0:15.535',3.75
'0:15.539',3.97
'0:15.543',4.11
'0:15.547',4.19
'0:15.551',4.42
'0:15.555',4.91
'0:15.559',5.25
'0:15.563',5.05
'0:15.566',4.58
'0:15.570',4.37
'0:15.574',4.18
'0:15.578',4.21
'0:15.582',4.44
'0:15.586',4.55
'0:15.590',4.84
'0:15.594',5.37
'0:15.598',5.61
'0:15.602',5.62
'0:15.605',6.04
'0:15.609',6.26
'0:15.613',6.2
'0:15.617',6.09
'0:15.621',6.18
'0:15.625',6.12
'0:15.629',5.7
'0:15.633',4.9
'0:15.637',4.18
'0:15.641',4.06
'0:15.645',3.49
'0:15.648',2.86
'0:15.652',2.15
'0:15.656',1.6
'0:15.660',1.05
'0:15.664',0.64
'0:15.668',0.75
'0:15.672',0.7
'0:15.676',0.1
'0:15.680',-0.23
'0:15.684',0.04
'0:15.688',0.45
'0:15.691',0.65
'0:15.695',0.59
'0:15.699',0.51
'0:15.703',0.68
'0:15.707',0.66
'0:15.711',0.66
'0:15.715',0.54
'0:15.719',0.58
'0:15.723',0.67
'0:15.727',0.66
'0:15.730',0.81
'0:15.734',0.65
'0:15.738',-0.05
'0:15.742',-1.12
'0:15.746',-1.82
'0:15.750',-2.32
'0:15.754',-2.33
'0:15.758',-2.45
'0:15.762',-2.38
'0:15.766',-2.1
'0:15.770',-2.25
'0:15.773',-2.48
'0:15.777',-2.23
'0:15.781',-2.09
'0:15.785',-2.58
'0:15.789',-2.79
'0:15.793',-2.43
'0:15.797',-1.71
'0:15.801',-0.35
'0:15.805',1.98
'0:15.809',4.55
'0:15.813',6.04
'0:15.816',6.43
'0:15.820',6.19
'0:15.824',0.04
'0:15.828',-3.25
'0:15.832',-5.72
'0:15.836',-7.03
'0:15.840',-7.08
'0:15.844',-6.64
'0:15.848',-5.71
'0:15.852',-5.05
'0:15.855',-4.29
'0:15.859',-3.51
'0:15.863',-2.8
'0:15.867',-1.87
'0:15.871',-1.44
'0:15.875',-1.3
'0:15.879',-1.08
'0:15.883',-0.89
'0:15.887',-0.75
'0:15.891',-0.67
'0:15.895',-0.5
'0:15.898',-0.13
'0:15.902',-0.23
'0:15.906',-0.04
'0:15.910',0.22
'0:15.914',0.5
'0:15.918',1
'0:15.922',1.45
'0:15.926',2.22
'0:15.930',3.39
'0:15.934',4.61
'0:15.938',5.28
'0:15.941',4.17
'0:15.945',2.87
'0:15.949',2.01
'0:15.953',1.52
'0:15.957',1.34
'0:15.961',1.27
'0:15.965',0.92
'0:15.969',0.62
'0:15.973',0.41
'0:15.977',0.64
'0:15.980',0.74
'0:15.984',0.46
'0:15.988',0.37
'0:15.992',0.65
'0:15.996',0.84
'0:16.000',1.57
'0:16.004',2.44
'0:16.008',2.76
'0:16.012',3.06
'0:16.016',3.1
'0:16.020',2.8
'0:16.023',2.73
'0:16.027',2.95
'0:16.031',3.43
'0:16.035',3.22
'0:16.039',2.64
'0:16.043',2.16
'0:16.047',2.16
'0:16.051',2.35
'0:16.055',1.79
'0:16.059',0.67
'0:16.063',-0.45
'0:16.066',-0.78
'0:16.070',-0.68
'0:16.074',-0.48
'0:16.078',0.28
'0:16.082',1.12
'0:16.086',1.37
'0:16.090',1.05
'0:16.094',0.17
'0:16.098',-0.81
'0:16.102',-1.17
'0:16.105',-1.23
'0:16.109',-1.79
'0:16.113',-2.35
'0:16.117',-2.3
'0:16.121',-1.84
'0:16.125',-0.25
'0:16.129',2.63
'0:16.133',5.87
'0:16.137',7.96
'0:16.141',8.07
'0:16.145',5.03
'0:16.148',0.52
'0:16.152',-3.35
'0:16.156',-5.82
'0:16.160',-6.76
'0:16.164',-6.29
'0:16.168',-5.21
'0:16.172',-4.76
'0:16.176',-4.46
'0:16.180',-3.53
'0:16.184',-2.65
'0:16.188',-2.99
'0:16.191',-3.59
'0:16.195',-3.3
'0:16.199',-2.68
'0:16.203',-1.97
'0:16.207',-1.75
'0:16.211',-1.62
'0:16.215',-1.49
'0:16.219',-1.18
'0:16.223',-0.89
'0:16.227',-0.61
'0:16.230',-0.53
'0:16.234',-0.44
'0:16.238',-0.02
'0:16.242',0.61
'0:16.246',1.16
'0:16.250',1.61
'0:16.254',1.76
'0:16.258',1.45
'0:16.262',1.41
'0:16.266',1.92
'0:16.270',2.29
'0:16.273',2.29
'0:16.277',2.2
'0:16.281',2.14
'0:16.285',1.69
'0:16.289',1.47
'0:16.293',1.19
'0:16.297',1.17
'0:16.301',0.99
'0:16.305',0.19
'0:16.309',-0.29
'0:16.313',0.32
'0:16.316',0.74
'0:16.320',1.1
'0:16.324',1.22
'0:16.328',1.19
'0:16.332',1.22
'0:16.336',1.17
'0:16.340',0.72
'0:16.344',0.02
'0:16.348',-0.2
'0:16.352',0.33
'0:16.355',0.36
'0:16.359',0.01
'0:16.363',-0.02
'0:16.367',0.04
'0:16.371',0.42
'0:16.375',0.66
'0:16.379',0.3
'0:16.383',-0.34
'0:16.387',-0.65
'0:16.391',-0.91
'0:16.395',-1.25
'0:16.398',-1.84
'0:16.402',-2.39
'0:16.406',-2.76
'0:16.410',-2.88
'0:16.414',-2.86
'0:16.418',-3.67
'0:16.422',-4.62
'0:16.426',-4.12
'0:16.430',-3.47
'0:16.434',-3.32
'0:16.438',-4.07
'0:16.441',-4.53
'0:16.445',-3.5
'0:16.449',-1.55
'0:16.453',0.37
'0:16.457',1.79
'0:16.461',2.53
'0:16.465',2.55
'0:16.469',0.53
'0:16.473',-2.26
'0:16.477',-4.41
'0:16.480',-5.65
'0:16.484',-6.29
'0:16.488',-6.28
'0:16.492',-5.29
'0:16.496',-4.09
'0:16.500',-3.22
'0:16.504',-3.04
'0:16.508',-3.07
'0:16.512',-2.56
'0:16.516',-1.66
'0:16.520',-1.39
'0:16.523',-1.23
'0:16.527',-0.63
'0:16.531',-0.55
'0:16.535',-0.82
'0:16.539',-0.6
'0:16.543',-0.3
'0:16.547',-0.18
'0:16.551',0.23
'0:16.555',0.47
'0:16.559',0.46
'0:16.563',0.46
'0:16.566',1.28
'0:16.570',1.66
'0:16.574',2.22
'0:16.578',2.6
'0:16.582',2.82
'0:16.586',3.06
'0:16.590',3.17
'0:16.594',3.21
'0:16.598',3.34
'0:16.602',3.32
'0:16.605',2.88
'0:16.609',2.15
'0:16.613',1.4
'0:16.617',0.73
'0:16.621',0.4
'0:16.625',0.44
'0:16.629',0.42
'0:16.633',-0.07
'0:16.637',-0.4
'0:16.641',-0.87
'0:16.645',-1.28
'0:16.648',-1.69
'0:16.652',-1.9
'0:16.656',-1.82
'0:16.660',-1.38
'0:16.664',-1.12
'0:16.668',-1.12
'0:16.672',-1.12
'0:16.676',-1.12
'0:16.680',-1.12
'0:16.684',-1.12
'0:16.688',-1.12
'0:16.691',-1.12
'0:16.695',-1.12
'0:16.699',0.14
'0:16.703',0.37
'0:16.707',0.4
'0:16.711',0.58
'0:16.715',0.85
'0:16.719',0.7
'0:16.723',-0.03
'0:16.727',-1.31
'0:16.730',-2.45
'0:16.734',-2.89
'0:16.738',-2.93
'0:16.742',-2.71
'0:16.746',-2.33
'0:16.750',-2.19
'0:16.754',-2.35
'0:16.758',-2.6
'0:16.762',-2.74
'0:16.766',-2.69
'0:16.770',-2.2
'0:16.773',-0.83
'0:16.777',1.16
'0:16.781',3.53
'0:16.785',5.53
'0:16.789',6.29
'0:16.793',5.82
'0:16.797',3.11
'0:16.801',0.25
'0:16.805',-1.85
'0:16.809',-3.53
'0:16.813',-4.45
'0:16.816',-4.84
'0:16.820',-4.46
'0:16.824',-3.25
'0:16.828',-2.11
'0:16.832',-1.36
'0:16.836',-1.03
'0:16.840',-0.55
'0:16.844',-0.3
'0:16.848',0.03
'0:16.852',0.79
'0:16.855',1.55
'0:16.859',2.36
'0:16.863',2.96
'0:16.867',2.63
'0:16.871',2.16
'0:16.875',1.84
'0:16.879',1.71
'0:16.883',1.85
'0:16.887',2.44
'0:16.891',2.88
'0:16.895',3.49
'0:16.898',3.55
'0:16.902',3.2
'0:16.906',3.28
'0:16.910',3.5
'0:16.914',3.73
'0:16.918',3.95
'0:16.922',3.84
'0:16.926',3.65
'0:16.930',3.47
'0:16.934',3.16
'0:16.938',3.01
'0:16.941',2.98
'0:16.945',2.55
'0:16.949',2.17
'0:16.953',1.3
'0:16.957',0.45
'0:16.961',-0.16
'0:16.965',-0.05
'0:16.969',0.05
'0:16.973',0.32
'0:16.977',0.52
'0:16.980',0.37
'0:16.984',0.46
'0:16.988',0.36
'0:16.992',0.06
'0:16.996',0.07
'0:17.000',0.45
'0:17.004',1.15
'0:17.008',1.26
'0:17.012',0.68
'0:17.016',0.36
'0:17.020',0.32
'0:17.023',0.36
'0:17.027',0.65
'0:17.031',0.55
'0:17.035',0.1
'0:17.039',-0.37
'0:17.043',-0.38
'0:17.047',-0.36
'0:17.051',-0.81
'0:17.055',-2.1
'0:17.059',-3.58
'0:17.063',-4.54
'0:17.066',-4.67
'0:17.070',-4
'0:17.074',-3.39
'0:17.078',-3.1
'0:17.082',-3.39
'0:17.086',-3.67
'0:17.090',-3.77
'0:17.094',-3.25
'0:17.098',-1.43
'0:17.102',0.87
'0:17.105',4.19
'0:17.109',7.47
'0:17.113',9.05
'0:17.117',8.53
'0:17.121',5.28
'0:17.125',1.14
'0:17.129',-2.57
'0:17.133',-4.64
'0:17.137',-5.48
'0:17.141',-5.86
'0:17.145',-5.77
'0:17.148',-5.48
'0:17.152',-4.8
'0:17.156',-4.59
'0:17.160',-4.74
'0:17.164',-4.8
'0:17.168',-4.59
'0:17.172',-4.23
'0:17.176',-3.59
'0:17.180',-2.83
'0:17.184',-2.35
'0:17.188',-1.98
'0:17.191',-1.6
'0:17.195',-1.37
'0:17.199',-1.23
'0:17.203',-0.95
'0:17.207',-0.6
'0:17.211',-0.05
'0:17.215',0.4
'0:17.219',0.65
'0:17.223',0.92
'0:17.227',1.12
'0:17.230',1.14
'0:17.234',1.1
'0:17.238',1.1
'0:17.242',1.24
'0:17.246',1.28
'0:17.250',0.96
'0:17.254',0.48
'0:17.258',0.16
'0:17.262',-0.15
'0:17.266',-0.42
'0:17.270',-0.51
'0:17.273',-0.67
'0:17.277',-0.93
'0:17.281',-1.27
'0:17.285',-1.69
'0:17.289',-1.82
'0:17.293',-1.83
'0:17.297',-1.74
'0:17.301',-1.28
'0:17.305',-0.91
'0:17.309',-0.63
'0:17.313',-0.18
'0:17.316',0.17
'0:17.320',0.12
'0:17.324',-0.04
'0:17.328',0.21
'0:17.332',0.73
'0:17.336',1.09
'0:17.340',1.42
'0:17.344',1.74
'0:17.348',1.81
'0:17.352',1.48
'0:17.355',1.15
'0:17.359',0.94
'0:17.363',0.25
'0:17.367',-0.35
'0:17.371',-0.83
'0:17.375',-1.14
'0:17.379',-1.26
'0:17.383',-1.35
'0:17.387',-1.78
'0:17.391',-2
'0:17.395',-1.98
'0:17.398',-1.89
'0:17.402',-2.15
'0:17.406',-2.5
'0:17.410',-2.51
'0:17.414',-2.63
'0:17.418',-2.07
'0:17.422',-0.78
'0:17.426',0.92
'0:17.430',3.43
'0:17.434',5.43
'0:17.438',6.01
'0:17.441',4.91
'0:17.445',1.77
'0:17.449',-1.35
'0:17.453',-3.7
'0:17.457',-4.91
'0:17.461',-5.3
'0:17.465',-5.29
'0:17.469',-4.83
'0:17.473',-3.68
'0:17.477',-2.48
'0:17.480',-1.38
'0:17.484',-0.65
'0:17.488',-0.16
'0:17.492',0.1
'0:17.496',-0.45
'0:17.500',-0.92
'0:17.504',-0.51
'0:17.508',0.11
'0:17.512',0.62
'0:17.516',0.97
'0:17.520',1.16
'0:17.523',1.45
'0:17.527',1.7
'0:17.531',1.82
'0:17.535',2.11
'0:17.539',2.18
'0:17.543',2.38
'0:17.547',2.08
'0:17.551',2.3
'0:17.555',2.72
'0:17.559',2.62
'0:17.563',2.34
'0:17.566',2.64
'0:17.570',3.31
'0:17.574',3.52
'0:17.578',3.23
'0:17.582',2.99
'0:17.586',2.69
'0:17.590',2.37
'0:17.594',2.1
'0:17.598',1.5
'0:17.602',0.54
'0:17.605',-0.14
'0:17.609',-0.3
'0:17.613',-0.13
'0:17.617',0.25
'0:17.621',0.48
'0:17.625',0.51
'0:17.629',0.5
'0:17.633',0.28
'0:17.637',0.24
'0:17.641',0.66
'0:17.645',1.06
'0:17.648',1.35
'0:17.652',1.77
'0:17.656',1.7
'0:17.660',1.12
'0:17.664',0.69
'0:17.668',1.03
'0:17.672',1.64
'0:17.676',1.97
'0:17.680',1.73
'0:17.684',0.89
'0:17.688',-0.02
'0:17.691',-0.8
'0:17.695',-1.55
'0:17.699',-2.17
'0:17.703',-2.59
'0:17.707',-2.85
'0:17.711',-2.88
'0:17.715',-2.57
'0:17.719',-2.53
'0:17.723',-2.72
'0:17.727',-2.91
'0:17.730',-3.23
'0:17.734',-3.29
'0:17.738',-2.73
'0:17.742',-1.95
'0:17.746',-1.29
'0:17.750',-0.34
'0:17.754',0.85
'0:17.758',0.68
'0:17.762',0.02
'0:17.766',-0.93
'0:17.770',-2.4
'0:17.773',-3.75
'0:17.777',-4.7
'0:17.781',-5.08
'0:17.785',-4.92
'0:17.789',-4.15
'0:17.793',-3.09
'0:17.797',-2.17
'0:17.801',-1.58
'0:17.805',-1.22
'0:17.809',-1.08
'0:17.813',-0.98
'0:17.816',-0.65
'0:17.820',0.11
'0:17.824',0.9
'0:17.828',1.43
'0:17.832',1.63
'0:17.836',1.45
'0:17.840',1.13
'0:17.844',1.14
'0:17.848',1.5
'0:17.852',1.84
'0:17.855',1.99
'0:17.859',2.28
'0:17.863',2.76
'0:17.867',3.42
'0:17.871',3.91
'0:17.875',4.44
'0:17.879',4.99
'0:17.883',4.98
'0:17.887',5.09
'0:17.891',5.36
'0:17.895',5.13
'0:17.898',4.65
'0:17.902',4.07
'0:17.906',3.59
'0:17.910',3.23
'0:17.914',2.98
'0:17.918',2.95
'0:17.922',2.72
'0:17.926',2.2
'0:17.930',1.43
'0:17.934',0.89
'0:17.938',0.53
'0:17.941',0.21
'0:17.945',-0.04
'0:17.949',-0.03
'0:17.953',0.37
'0:17.957',1.14
'0:17.961',1.7
'0:17.965',1.32
'0:17.969',0.79
'0:17.973',0.63
'0:17.977',0.93
'0:17.980',1.73
'0:17.984',2.37
'0:17.988',2.58
'0:17.992',2.34
'0:17.996',1.72
'0:18.000',0.58
'0:18.004',-0.05
'0:18.008',-0.31
'0:18.012',-0.79
'0:18.016',-1.41
'0:18.020',-1.74
'0:18.023',-2.05
'0:18.027',-2.45
'0:18.031',-2.75
'0:18.035',-3.41
'0:18.039',-3.65
'0:18.043',-3.35
'0:18.047',-2.68
'0:18.051',-2.18
'0:18.055',-1.88
'0:18.059',-2.2
'0:18.063',-2.64
'0:18.066',-2.64
'0:18.070',-2
'0:18.074',-0.58
'0:18.078',2.15
'0:18.082',4.93
'0:18.086',6.63
'0:18.090',6.16
'0:18.094',3.03
'0:18.098',-0.41
'0:18.102',-3.48
'0:18.105',-5.4
'0:18.109',-6.52
'0:18.113',-7.08
'0:18.117',-6.72
'0:18.121',-5.62
'0:18.125',-4.52
'0:18.129',-4.1
'0:18.133',-3.65
'0:18.137',-3.27
'0:18.141',-2.83
'0:18.145',-2.76
'0:18.148',-2.5
'0:18.152',-2.32
'0:18.156',-2.17
'0:18.160',-1.95
'0:18.164',-2.04
'0:18.168',-2.01
'0:18.172',-1.44
'0:18.176',-1.02
'0:18.180',-0.9
'0:18.184',-0.59
'0:18.188',-0.58
'0:18.191',-0.44
'0:18.195',-0.13
'0:18.199',0.37
'0:18.203',1.12
'0:18.207',2.04
'0:18.211',2.53
'0:18.215',2.21
'0:18.219',1.6
'0:18.223',1.04
'0:18.227',0.63
'0:18.230',0.56
'0:18.234',0.58
'0:18.238',0.58
'0:18.242',0.04
'0:18.246',-0.14
'0:18.250',-0.19
'0:18.254',-0.29
'0:18.258',-0.53
'0:18.262',-0.54
'0:18.266',-0.63
'0:18.270',-0.74
'0:18.273',-0.88
'0:18.277',-0.72
'0:18.281',-0.03
'0:18.285',0.86
'0:18.289',0.77
'0:18.293',0.41
'0:18.297',0.11
'0:18.301',0.19
'0:18.305',0.61
'0:18.309',0.95
'0:18.313',1.33
'0:18.316',1.74
'0:18.320',2.06
'0:18.324',2.03
'0:18.328',1.8
'0:18.332',1.5
'0:18.336',1.04
'0:18.340',0.65
'0:18.344',-0.02
'0:18.348',-0.63
'0:18.352',-1.05
'0:18.355',-1.55
'0:18.359',-1.76
'0:18.363',-1.54
'0:18.367',-1.69
'0:18.371',-1.73
'0:18.375',-1.69
'0:18.379',-1.77
'0:18.383',-2
'0:18.387',-1.88
'0:18.391',-1.5
'0:18.395',-0.46
'0:18.398',1.55
'0:18.402',4.42
'0:18.406',7.27
'0:18.410',8.89
'0:18.414',8.26
'0:18.418',5.02
'0:18.422',1.12
'0:18.426',-2.37
'0:18.430',-4.63
'0:18.434',-5.51
'0:18.438',-5.24
'0:18.441',-4.09
'0:18.445',-2.72
'0:18.449',-1.68
'0:18.453',-1.27
'0:18.457',-1.29
'0:18.461',-1.24
'0:18.465',-1.31
'0:18.469',-1.19
'0:18.473',-1.33
'0:18.477',-1.45
'0:18.480',-0.58
'0:18.484',0.67
'0:18.488',1.19
'0:18.492',0.92
'0:18.496',0.51
'0:18.500',0.7
'0:18.504',0.93
'0:18.508',0.71
'0:18.512',0.84
'0:18.516',1.62
'0:18.520',2.44
'0:18.523',2.77
'0:18.527',2.97
'0:18.531',3.5
'0:18.535',3.61
'0:18.539',3.09
'0:18.543',2.68
'0:18.547',2.84
'0:18.551',3.25
'0:18.555',3.5
'0:18.559',3.38
'0:18.563',2.83
'0:18.566',1.89
'0:18.570',1.34
'0:18.574',1.15
'0:18.578',0.66
'0:18.582',0.25
'0:18.586',0.01
'0:18.590',-0.07
'0:18.594',0.14
'0:18.598',0.47
'0:18.602',-0.01
'0:18.605',-0.88
'0:18.609',-0.95
'0:18.613',-0.63
'0:18.617',-0.25
'0:18.621',-0.34
'0:18.625',-0.09
'0:18.629',0.96
'0:18.633',1.76
'0:18.637',1.7
'0:18.641',1.05
'0:18.645',0.6
'0:18.648',0.51
'0:18.652',-0.26
'0:18.656',-1.28
'0:18.660',-1.42
'0:18.664',-0.66
'0:18.668',-0.36
'0:18.672',-0.78
'0:18.676',-1.6
'0:18.680',-2.3
'0:18.684',-2.55
'0:18.688',-2.76
'0:18.691',-3.22
'0:18.695',-3.97
'0:18.699',-4.38
'0:18.703',-4.04
'0:18.707',-3.69
'0:18.711',-3.36
'0:18.715',-2.85
'0:18.719',-2.1
'0:18.723',-0.59
'0:18.727',1.51
'0:18.730',2.54
'0:18.734',2.43
'0:18.738',1.48
'0:18.742',-0.91
'0:18.746',-3.03
'0:18.750',-4.56
'0:18.754',-5.66
'0:18.758',-6.13
'0:18.762',-5.35
'0:18.766',-4.09
'0:18.770',-3
'0:18.773',-2.47
'0:18.777',-1.6
'0:18.781',-0.61
'0:18.785',-0.09
'0:18.789',0.15
'0:18.793',0.01
'0:18.797',-0.22
'0:18.801',-0.43
'0:18.805',-0.42
'0:18.809',0.01
'0:18.813',0.71
'0:18.816',1.24
'0:18.820',1.37
'0:18.824',1.35
'0:18.828',1.43
'0:18.832',1.77
'0:18.836',2.1
'0:18.840',2.17
'0:18.844',2.06
'0:18.848',2.09
'0:18.852',2.5
'0:18.855',2.87
'0:18.859',3.39
'0:18.863',3.72
'0:18.867',3.8
'0:18.871',3.65
'0:18.875',3.12
'0:18.879',2.6
'0:18.883',2.22
'0:18.887',1.68
'0:18.891',1.18
'0:18.895',0.88
'0:18.898',0.42
'0:18.902',-0.26
'0:18.906',-0.62
'0:18.910',-0.68
'0:18.914',-0.74
'0:18.918',-0.87
'0:18.922',-0.71
'0:18.926',-0.42
'0:18.930',-0.41
'0:18.934',-0.35
'0:18.938',-0.14
'0:18.941',-0.16
'0:18.945',0.16
'0:18.949',0.43
'0:18.953',0.37
'0:18.957',0.27
'0:18.961',0.45
'0:18.965',0.96
'0:18.969',1.01
'0:18.973',0.44
'0:18.977',0.18
'0:18.980',0.05
'0:18.984',-0.24
'0:18.988',-1.01
'0:18.992',-1.77
'0:18.996',-2.35
'0:19.000',-2.58
'0:19.004',-2.61
'0:19.008',-2.33
'0:19.012',-2.17
'0:19.016',-2.21
'0:19.020',-2.4
'0:19.023',-2.65
'0:19.027',-2.85
'0:19.031',-2.71
'0:19.035',-2.28
'0:19.039',-1.77
'0:19.043',-0.91
'0:19.047',0.5
'0:19.051',2.56
'0:19.055',4.38
'0:19.059',5.27
'0:19.063',4.6
'0:19.066',1.96
'0:19.070',-0.95
'0:19.074',-3.09
'0:19.078',-4.01
'0:19.082',-4.43
'0:19.086',-4.53
'0:19.090',-4.56
'0:19.094',-4.22
'0:19.098',-3.74
'0:19.102',-3.21
'0:19.105',-2.48
'0:19.109',-1.98
'0:19.113',-1.78
'0:19.117',-1.09
'0:19.121',-0.45
'0:19.125',-0.26
'0:19.129',-0.09
'0:19.133',-0.08
'0:19.137',0.19
'0:19.141',0.69
'0:19.145',0.79
'0:19.148',0.91
'0:19.152',1.28
'0:19.156',1.55
'0:19.160',1.89
'0:19.164',2.27
'0:19.168',2.76
'0:19.172',3.18
'0:19.176',3.62
'0:19.180',3.97
'0:19.184',3.96
'0:19.188',3.62
'0:19.191',3.46
'0:19.195',3.58
'0:19.199',3.67
'0:19.203',3.17
'0:19.207',2.77
'0:19.211',2.2
'0:19.215',1.62
'0:19.219',1.17
'0:19.223',0.72
'0:19.227',0.26
'0:19.230',0.08
'0:19.234',-0.04
'0:19.238',-0.14
'0:19.242',-0.16
'0:19.246',-0.43
'0:19.250',-0.7
'0:19.254',-0.77
'0:19.258',-0.43
'0:19.262',0.37
'0:19.266',1.01
'0:19.270',1.08
'0:19.273',0.88
'0:19.277',0.59
'0:19.281',0.4
'0:19.285',0.65
'0:19.289',1.04
'0:19.293',1.38
'0:19.297',1.31
'0:19.301',0.85
'0:19.305',0.25
'0:19.309',-0.44
'0:19.313',-0.92
'0:19.316',-1.19
'0:19.320',-1.5
'0:19.324',-1.95
'0:19.328',-2.31
'0:19.332',-2.31
'0:19.336',-2.13
'0:19.340',-1.66
'0:19.344',-1.3
'0:19.348',-0.95
'0:19.352',-0.97
'0:19.355',-1.54
'0:19.359',-1.92
'0:19.363',-1.88
'0:19.367',-0.76
'0:19.371',1.93
'0:19.375',5.53
'0:19.379',8.34
'0:19.383',9.62
'0:19.387',9.4
'0:19.391',6.28
'0:19.395',1.77
'0:19.398',-2.43
'0:19.402',-5.22
'0:19.406',-6.31
'0:19.410',-6.35
'0:19.414',-5.26
'0:19.418',-3.94
'0:19.422',-3
'0:19.426',-2.45
'0:19.430',-2.18
'0:19.434',-1.7
'0:19.438',-1.06
'0:19.441',-0.71
'0:19.445',-0.98
'0:19.449',-1.31
'0:19.453',-1.2
'0:19.457',-1.14
'0:19.461',-1.35
'0:19.465',-1.09
'0:19.469',-0.62
'0:19.473',-0.41
'0:19.477',-0.17
'0:19.480',0.18
'0:19.484',0.8
'0:19.488',1.14
'0:19.492',1.01
'0:19.496',1.22
'0:19.500',2.11
'0:19.504',3
'0:19.508',3.55
'0:19.512',3.04
'0:19.516',1.72
'0:19.520',0.99
'0:19.523',1.42
'0:19.527',1.96
