'0:00.000',1.89
'0:00.004',1.21
'0:00.008',0.95
'0:00.012',1
'0:00.016',1.05
'0:00.020',0.91
'0:00.023',0.47
'0:00.027',-0.09
'0:00.031',-0.38
'0:00.035',-0.46
'0:00.039',-0.63
'0:00.043',-0.78
'0:00.047',-0.7
'0:00.051',-0.56
'0:00.055',-0.51
'0:00.059',-0.7
'0:00.063',-0.8
'0:00.066',-0.72
'0:00.070',-0.51
'0:00.074',-0.22
'0:00.078',0.07
'0:00.082',0.22
'0:00.086',0.16
'0:00.090',0.1
'0:00.094',0.15
'0:00.098',0.23
'0:00.102',0.22
'0:00.105',0.02
'0:00.109',-0.04
'0:00.113',-0.12
'0:00.117',0
'0:00.121',0.21
'0:00.125',0.35
'0:00.129',0.32
'0:00.133',-0.16
'0:00.137',-0.79
'0:00.141',-1.13
'0:00.145',-1.16
'0:00.148',-1.36
'0:00.152',-1.62
'0:00.156',-1.63
'0:00.160',-1.48
'0:00.164',-1.26
'0:00.168',-1.14
'0:00.172',-0.87
'0:00.176',-0.7
'0:00.180',-0.7
'0:00.184',-1.06
'0:00.188',-1.52
'0:00.191',-1.84
'0:00.195',-1.61
'0:00.199',-0.63
'0:00.203',1.29
'0:00.207',3.88
'0:00.211',6.5
'0:00.215',8.68
'0:00.219',9.36
'0:00.223',6.47
'0:00.227',0.99
'0:00.230',-4.06
'0:00.234',-7.6
'0:00.238',-9.2
'0:00.242',-9.02
'0:00.246',-7.64
'0:00.250',-5.7
'0:00.254',-3.9
'0:00.258',-2.45
'0:00.262',-2.41
'0:00.266',-2.41
'0:00.270',-2.41
'0:00.273',-2.41
'0:00.277',-2.41
'0:00.281',-2.41
'0:00.285',-2.41
'0:00.289',0.83
'0:00.293',1.22
'0:00.297',1.46
'0:00.301',1.61
'0:00.305',1.61
'0:00.309',1.64
'0:00.313',1.61
'0:00.316',1.54
'0:00.320',1.47
'0:00.324',1.56
'0:00.328',1.73
'0:00.332',1.76
'0:00.336',1.86
'0:00.340',1.98
'0:00.344',2.01
'0:00.348',2.26
'0:00.352',2.55
'0:00.355',2.64
'0:00.359',2.77
'0:00.363',3.16
'0:00.367',3.65
'0:00.371',4.02
'0:00.375',4.36
'0:00.379',4.39
'0:00.383',4.41
'0:00.387',4.34
'0:00.391',4.34
'0:00.395',4.1
'0:00.398',3.8
'0:00.402',3.97
'0:00.406',4.12
'0:00.410',4.03
'0:00.414',3.69
'0:00.418',3.13
'0:00.422',2.62
'0:00.426',2.11
'0:00.430',1.64
'0:00.434',1.23
'0:00.438',0.81
'0:00.441',0.49
'0:00.445',0.25
'0:00.449',-0.02
'0:00.453',-0.21
'0:00.457',-0.33
'0:00.461',-0.43
'0:00.465',-0.36
'0:00.469',-0.22
'0:00.473',-0.12
'0:00.477',-0.09
'0:00.480',0
'0:00.484',0.13
'0:00.488',0.13
'0:00.492',0.15
'0:00.496',0.18
'0:00.500',0.46
'0:00.504',0.78
'0:00.508',0.88
'0:00.512',0.98
'0:00.516',1.15
'0:00.520',1.25
'0:00.523',1.22
'0:00.527',1.04
'0:00.531',0.81
'0:00.535',0.59
'0:00.539',0.38
'0:00.543',0.01
'0:00.547',-0.54
'0:00.551',-1.19
'0:00.555',-1.8
'0:00.559',-2.04
'0:00.563',-1.99
'0:00.566',-1.97
'0:00.570',-2.06
'0:00.574',-2.05
'0:00.578',-1.97
'0:00.582',-1.83
'0:00.586',-1.75
'0:00.590',-1.92
'0:00.594',-2.21
'0:00.598',-2.35
'0:00.602',-2
'0:00.605',-1.02
'0:00.609',0.58
'0:00.613',2.51
'0:00.617',4.37
'0:00.621',5.98
'0:00.625',6.58
'0:00.629',6.58
'0:00.633',-3.68
'0:00.637',-8.18
'0:00.641',-9.95
'0:00.645',-10.98
'0:00.648',-10.29
'0:00.652',-8.65
'0:00.656',-6.75
'0:00.660',-4.89
'0:00.664',-3.35
'0:00.668',-2.29
'0:00.672',-1.83
'0:00.676',-1.56
'0:00.680',-1.24
'0:00.684',-0.86
'0:00.688',-0.72
'0:00.691',-0.66
'0:00.695',-0.66
'0:00.699',-0.49
'0:00.703',-0.22
'0:00.707',-0.09
'0:00.711',-0.19
'0:00.715',-0.21
'0:00.719',0
'0:00.723',0.15
'0:00.727',0.01
'0:00.730',-0.04
'0:00.734',0.15
'0:00.738',0.29
'0:00.742',0.44
'0:00.746',0.71
'0:00.750',0.87
'0:00.754',1.05
'0:00.758',1.31
'0:00.762',1.61
'0:00.766',2.04
'0:00.770',2.56
'0:00.773',2.88
'0:00.777',2.83
'0:00.781',2.75
'0:00.785',2.83
'0:00.789',2.88
'0:00.793',2.88
'0:00.797',3.07
'0:00.801',3.29
'0:00.805',3.37
'0:00.809',3.2
'0:00.813',2.62
'0:00.816',2.04
'0:00.820',1.5
'0:00.824',1.08
'0:00.828',0.71
'0:00.832',0.12
'0:00.836',-0.53
'0:00.840',-1.15
'0:00.844',-1.59
'0:00.848',-1.96
'0:00.852',-2.28
'0:00.855',-2.58
'0:00.859',-2.7
'0:00.863',-2.61
'0:00.867',-2.25
'0:00.871',-1.71
'0:00.875',-1.2
'0:00.879',-0.95
'0:00.883',-0.75
'0:00.887',-0.66
'0:00.891',-0.74
'0:00.895',-0.78
'0:00.898',-0.59
'0:00.902',-0.39
'0:00.906',-0.33
'0:00.910',-0.23
'0:00.914',-0.27
'0:00.918',-0.36
'0:00.922',-0.41
'0:00.926',-0.43
'0:00.930',-0.48
'0:00.934',-0.46
'0:00.938',-0.51
'0:00.941',-0.78
'0:00.945',-1.14
'0:00.949',-1.55
'0:00.953',-1.96
'0:00.957',-2.33
'0:00.961',-2.69
'0:00.965',-3.12
'0:00.969',-3.4
'0:00.973',-3.38
'0:00.977',-3.2
'0:00.980',-3.05
'0:00.984',-2.95
'0:00.988',-2.7
'0:00.992',-2.5
'0:00.996',-2.53
'0:01.000',-2.91
'0:01.004',-3.2
'0:01.008',-2.85
'0:01.012',-1.86
'0:01.016',-0.5
'0:01.020',1.36
'0:01.023',3.44
'0:01.027',5.37
'0:01.031',6.61
'0:01.035',5.27
'0:01.039',0.63
'0:01.043',-4.66
'0:01.047',-8.67
'0:01.051',-10.6
'0:01.055',-10.48
'0:01.059',-9.17
'0:01.063',-7.26
'0:01.066',-5.35
'0:01.070',-3.72
'0:01.074',-2.55
'0:01.078',-1.64
'0:01.082',-0.98
'0:01.086',-0.46
'0:01.090',-0.1
'0:01.094',0.01
'0:01.098',0.01
'0:01.102',0
'0:01.105',0.01
'0:01.109',0
'0:01.113',0.01
'0:01.117',1.05
'0:01.121',1.09
'0:01.125',1.22
'0:01.129',1.36
'0:01.133',1.52
'0:01.137',1.61
'0:01.141',1.64
'0:01.145',1.83
'0:01.148',2.12
'0:01.152',2.31
'0:01.156',2.29
'0:01.160',2.32
'0:01.164',2.48
'0:01.168',2.71
'0:01.172',2.88
'0:01.176',3.22
'0:01.180',3.68
'0:01.184',4.05
'0:01.188',4.35
'0:01.191',4.49
'0:01.195',4.48
'0:01.199',4.49
'0:01.203',4.7
'0:01.207',4.8
'0:01.211',4.71
'0:01.215',4.45
'0:01.219',4.15
'0:01.223',3.88
'0:01.227',3.37
'0:01.230',2.76
'0:01.234',2.13
'0:01.238',1.47
'0:01.242',0.79
'0:01.246',0.28
'0:01.250',0.01
'0:01.254',-0.29
'0:01.258',-0.53
'0:01.262',-0.75
'0:01.266',-0.8
'0:01.270',-0.56
'0:01.273',-0.26
'0:01.277',-0.15
'0:01.281',-0.04
'0:01.285',0.13
'0:01.289',0.4
'0:01.293',0.58
'0:01.297',0.81
'0:01.301',0.97
'0:01.305',1.17
'0:01.309',1.37
'0:01.313',1.49
'0:01.316',1.44
'0:01.320',1.47
'0:01.324',1.71
'0:01.328',1.73
'0:01.332',1.64
'0:01.336',1.49
'0:01.340',1.41
'0:01.344',1.2
'0:01.348',0.95
'0:01.352',0.42
'0:01.355',-0.22
'0:01.359',-0.69
'0:01.363',-1
'0:01.367',-1.29
'0:01.371',-1.58
'0:01.375',-1.65
'0:01.379',-1.43
'0:01.383',-1.19
'0:01.387',-1.12
'0:01.391',-1.21
'0:01.395',-1.24
'0:01.398',-1.34
'0:01.402',-1.51
'0:01.406',-1.81
'0:01.410',-1.85
'0:01.414',-1.85
'0:01.418',-1.85
'0:01.422',-1.85
'0:01.426',5.97
'0:01.430',7.79
'0:01.434',9.03
'0:01.438',7.33
'0:01.441',3.03
'0:01.445',-3.32
'0:01.449',-7.85
'0:01.453',-10.21
'0:01.457',-10.69
'0:01.461',-9.51
'0:01.465',-7.57
'0:01.469',-5.48
'0:01.473',-3.63
'0:01.477',-2.11
'0:01.480',-1.03
'0:01.484',-0.49
'0:01.488',-0.16
'0:01.492',0.1
'0:01.496',0.53
'0:01.500',0.95
'0:01.504',1.08
'0:01.508',1.06
'0:01.512',1.01
'0:01.516',1.05
'0:01.520',1.05
'0:01.523',1.09
'0:01.527',1.34
'0:01.531',1.72
'0:01.535',1.75
'0:01.539',1.52
'0:01.543',1.46
'0:01.547',1.71
'0:01.551',1.83
'0:01.555',1.9
'0:01.559',2.19
'0:01.563',2.43
'0:01.566',2.39
'0:01.570',2.42
'0:01.574',2.69
'0:01.578',3.04
'0:01.582',3.39
'0:01.586',3.68
'0:01.590',3.87
'0:01.594',4.29
'0:01.598',4.6
'0:01.602',4.47
'0:01.605',4.39
'0:01.609',4.34
'0:01.613',4.05
'0:01.617',3.52
'0:01.621',3.13
'0:01.625',2.57
'0:01.629',1.96
'0:01.633',1.43
'0:01.637',1.03
'0:01.641',0.36
'0:01.645',-0.5
'0:01.648',-1.08
'0:01.652',-1.36
'0:01.656',-1.29
'0:01.660',-1.05
'0:01.664',-1.2
'0:01.668',-1.84
'0:01.672',-2.19
'0:01.676',-2.14
'0:01.680',-2.09
'0:01.684',-2.1
'0:01.688',-1.94
'0:01.691',-1.68
'0:01.695',-1.39
'0:01.699',-1.04
'0:01.703',-0.73
'0:01.707',-0.48
'0:01.711',-0.22
'0:01.715',0.1
'0:01.719',0.59
'0:01.723',0.98
'0:01.727',1.02
'0:01.730',0.86
'0:01.734',1
'0:01.738',1.23
'0:01.742',1.03
'0:01.746',0.52
'0:01.750',0.18
'0:01.754',-0.25
'0:01.758',-0.7
'0:01.762',-1.16
'0:01.766',-1.65
'0:01.770',-2.16
'0:01.773',-2.69
'0:01.777',-3.01
'0:01.781',-3.13
'0:01.785',-3.07
'0:01.789',-2.85
'0:01.793',-2.54
'0:01.797',-2.29
'0:01.801',-2.19
'0:01.805',-2.17
'0:01.809',-2.27
'0:01.813',-2.14
'0:01.816',-1.42
'0:01.820',0.02
'0:01.824',1.71
'0:01.828',3.63
'0:01.832',5.56
'0:01.836',7.27
'0:01.840',7.93
'0:01.844',5.73
'0:01.848',-0.05
'0:01.852',-5.64
'0:01.855',-9.25
'0:01.859',-10.7
'0:01.863',-10.48
'0:01.867',-9.26
'0:01.871',-7.32
'0:01.875',-5.23
'0:01.879',-3.43
'0:01.883',-1.97
'0:01.887',-1.05
'0:01.891',-0.61
'0:01.895',-0.41
'0:01.898',-0.28
'0:01.902',-0.12
'0:01.906',0.05
'0:01.910',0.16
'0:01.914',0.28
'0:01.918',0.53
'0:01.922',0.75
'0:01.926',0.9
'0:01.930',0.95
'0:01.934',1.02
'0:01.938',1.15
'0:01.941',1.2
'0:01.945',1.3
'0:01.949',1.37
'0:01.953',1.37
'0:01.957',1.35
'0:01.961',1.44
'0:01.965',1.72
'0:01.969',2.1
'0:01.973',2.43
'0:01.977',2.58
'0:01.980',2.85
'0:01.984',3.16
'0:01.988',3.61
'0:01.992',4
'0:01.996',4.31
'0:02.000',4.5
'0:02.004',4.68
'0:02.008',4.83
'0:02.012',4.91
'0:02.016',4.76
'0:02.020',4.71
'0:02.023',4.49
'0:02.027',3.98
'0:02.031',3.23
'0:02.035',2.49
'0:02.039',1.76
'0:02.043',1.15
'0:02.047',0.54
'0:02.051',-0.01
'0:02.055',-0.52
'0:02.059',-0.92
'0:02.063',-1.14
'0:02.066',-1.29
'0:02.070',-1.14
'0:02.074',-1.02
'0:02.078',-1.09
'0:02.082',-1.14
'0:02.086',-0.99
'0:02.090',-0.71
'0:02.094',-0.54
'0:02.098',-0.58
'0:02.102',-0.51
'0:02.105',-0.26
'0:02.109',-0.14
'0:02.113',-0.26
'0:02.117',-0.4
'0:02.121',-0.33
'0:02.125',-0.05
'0:02.129',0.18
'0:02.133',0.27
'0:02.137',0.25
'0:02.141',0.22
'0:02.145',0.15
'0:02.148',0.01
'0:02.152',-0.17
'0:02.156',-0.52
'0:02.160',-0.84
'0:02.164',-1.05
'0:02.168',-1.43
'0:02.172',-1.84
'0:02.176',-2.21
'0:02.180',-2.45
'0:02.184',-2.53
'0:02.188',-2.4
'0:02.191',-2.33
'0:02.195',-2.31
'0:02.199',-2.2
'0:02.203',-2.07
'0:02.207',-1.94
'0:02.211',-2.02
'0:02.215',-2.42
'0:02.219',-2.72
'0:02.223',-2.42
'0:02.227',-1.25
'0:02.230',0.54
'0:02.234',2.76
'0:02.238',5.05
'0:02.242',7.29
'0:02.246',8.91
'0:02.250',7.96
'0:02.254',2.93
'0:02.258',-2.99
'0:02.262',-7.61
'0:02.266',-10.25
'0:02.270',-10.78
'0:02.273',-9.83
'0:02.277',-8.05
'0:02.281',-6.11
'0:02.285',-4.59
'0:02.289',-3.28
'0:02.293',-2.55
'0:02.297',-2.17
'0:02.301',-1.83
'0:02.305',-1.57
'0:02.309',-1.38
'0:02.313',-1.31
'0:02.316',-1
'0:02.320',-0.8
'0:02.324',-0.75
'0:02.328',-0.79
'0:02.332',-0.89
'0:02.336',-0.85
'0:02.340',-0.65
'0:02.344',-0.36
'0:02.348',-0.12
'0:02.352',-0.04
'0:02.355',-0.05
'0:02.359',0.07
'0:02.363',0.25
'0:02.367',0.44
'0:02.371',0.6
'0:02.375',0.76
'0:02.379',0.96
'0:02.383',1.07
'0:02.387',1.24
'0:02.391',1.42
'0:02.395',1.6
'0:02.398',1.98
'0:02.402',2.55
'0:02.406',2.98
'0:02.410',3.17
'0:02.414',3.19
'0:02.418',3.19
'0:02.422',3.11
'0:02.426',3.01
'0:02.430',2.79
'0:02.434',2.76
'0:02.438',2.25
'0:02.441',1.76
'0:02.445',1.35
'0:02.449',0.83
'0:02.453',0.13
'0:02.457',-0.48
'0:02.461',-1.08
'0:02.465',-1.65
'0:02.469',-2.09
'0:02.473',-2.29
'0:02.477',-2.27
'0:02.480',-2.03
'0:02.484',-1.9
'0:02.488',-1.97
'0:02.492',-2.11
'0:02.496',-2.26
'0:02.500',-2.26
'0:02.504',-2.21
'0:02.508',-2.08
'0:02.512',-1.9
'0:02.516',-1.63
'0:02.520',-1.29
'0:02.523',-1.02
'0:02.527',-0.8
'0:02.531',-0.61
'0:02.535',-0.46
'0:02.539',-0.31
'0:02.543',-0.4
'0:02.547',-0.48
'0:02.551',-0.36
'0:02.555',-0.14
'0:02.559',-0.14
'0:02.563',-0.4
'0:02.566',-0.75
'0:02.570',-1.14
'0:02.574',-1.57
'0:02.578',-2.04
'0:02.582',-2.47
'0:02.586',-2.72
'0:02.590',-2.77
'0:02.594',-2.75
'0:02.598',-2.6
'0:02.602',-2.46
'0:02.605',-2.5
'0:02.609',-2.53
'0:02.613',-2.46
'0:02.617',-2.34
'0:02.621',-2.41
'0:02.625',-2.82
'0:02.629',-3.28
'0:02.633',-3.23
'0:02.637',-2.41
'0:02.641',-0.85
'0:02.645',1.14
'0:02.648',3.62
'0:02.652',6.02
'0:02.656',7.98
'0:02.660',8.26
'0:02.664',4.63
'0:02.668',-1.01
'0:02.672',-5.77
'0:02.676',-8.84
'0:02.680',-9.93
'0:02.684',-9.43
'0:02.688',-8.01
'0:02.691',-6.33
'0:02.695',-4.78
'0:02.699',-3.54
'0:02.703',-2.55
'0:02.707',-1.8
'0:02.711',-1.17
'0:02.715',-0.63
'0:02.719',-0.38
'0:02.723',-0.29
'0:02.727',-0.23
'0:02.730',-0.12
'0:02.734',0
'0:02.738',0
'0:02.742',-0.04
'0:02.746',0
'0:02.750',0.1
'0:02.754',0.26
'0:02.758',0.49
'0:02.762',0.68
'0:02.766',0.94
'0:02.770',1.24
'0:02.773',1.41
'0:02.777',1.47
'0:02.781',1.52
'0:02.785',1.54
'0:02.789',1.76
'0:02.793',2.18
'0:02.797',2.47
'0:02.801',2.51
'0:02.805',2.54
'0:02.809',2.9
'0:02.813',3.48
'0:02.816',3.93
'0:02.820',4.22
'0:02.824',4.43
'0:02.828',4.54
'0:02.832',4.63
'0:02.836',4.41
'0:02.840',4.07
'0:02.844',3.86
'0:02.848',3.62
'0:02.852',3.2
'0:02.855',2.49
'0:02.859',1.82
'0:02.863',1.16
'0:02.867',0.47
'0:02.871',-0.06
'0:02.875',-0.55
'0:02.879',-0.9
'0:02.883',-1.07
'0:02.887',-1.31
'0:02.891',-1.38
'0:02.895',-1.39
'0:02.898',-1.39
'0:02.902',-1.31
'0:02.906',-1.1
'0:02.910',-0.73
'0:02.914',-0.31
'0:02.918',-0.01
'0:02.922',0.07
'0:02.926',0.15
'0:02.930',0.3
'0:02.934',0.51
'0:02.938',0.63
'0:02.941',0.78
'0:02.945',0.96
'0:02.949',1.15
'0:02.953',1.22
'0:02.957',1.25
'0:02.961',1.24
'0:02.965',1.07
'0:02.969',0.75
'0:02.973',0.42
'0:02.977',-0.02
'0:02.980',-0.34
'0:02.984',-0.63
'0:02.988',-0.92
'0:02.992',-1.29
'0:02.996',-1.7
'0:03.000',-1.82
'0:03.004',-1.97
'0:03.008',-2.04
'0:03.012',-1.99
'0:03.016',-1.79
'0:03.020',-1.74
'0:03.023',-1.74
'0:03.027',-1.76
'0:03.031',-2
'0:03.035',-2.22
'0:03.039',-1.82
'0:03.043',-0.46
'0:03.047',1.6
'0:03.051',4.03
'0:03.055',6.12
'0:03.059',7.53
'0:03.063',7.53
'0:03.066',7.53
'0:03.070',7.53
'0:03.074',7.53
'0:03.078',-6.88
'0:03.082',-10.11
'0:03.086',-11.1
'0:03.090',-10.44
'0:03.094',-8.69
'0:03.098',-6.5
'0:03.102',-4.45
'0:03.105',-2.85
'0:03.109',-1.72
'0:03.113',-1.06
'0:03.117',-0.56
'0:03.121',-0.31
'0:03.125',-0.14
'0:03.129',0.1
'0:03.133',0.2
'0:03.137',0.3
'0:03.141',0.38
'0:03.145',0.49
'0:03.148',0.54
'0:03.152',0.77
'0:03.156',0.98
'0:03.160',0.95
'0:03.164',1.01
'0:03.168',1.15
'0:03.172',1.33
'0:03.176',1.39
'0:03.180',1.54
'0:03.184',1.59
'0:03.188',1.54
'0:03.191',1.63
'0:03.195',1.95
'0:03.199',2.25
'0:03.203',2.86
'0:03.207',3.28
'0:03.211',3.51
'0:03.215',3.71
'0:03.219',4.01
'0:03.223',4.27
'0:03.227',4.55
'0:03.230',4.48
'0:03.234',4.34
'0:03.238',4.44
'0:03.242',4.74
'0:03.246',4.48
'0:03.250',3.93
'0:03.254',3.41
'0:03.258',2.78
'0:03.262',1.78
'0:03.266',0.97
'0:03.270',0.22
'0:03.273',-0.76
'0:03.277',-1.43
'0:03.281',-1.43
'0:03.285',-1.46
'0:03.289',-1.94
'0:03.293',-1.9
'0:03.297',-1.78
'0:03.301',-2.19
'0:03.305',-2.38
'0:03.309',-2.02
'0:03.313',-1.57
'0:03.316',-1.51
'0:03.320',-1.28
'0:03.324',-0.78
'0:03.328',-0.75
'0:03.332',-1.09
'0:03.336',-1.11
'0:03.340',-0.67
'0:03.344',-0.19
'0:03.348',0.14
'0:03.352',0
'0:03.355',-0.19
'0:03.359',0
'0:03.363',-0.17
'0:03.367',-0.09
'0:03.371',0.19
'0:03.375',-0.36
'0:03.379',-1.31
'0:03.383',-1.85
'0:03.387',-1.9
'0:03.391',-2.01
'0:03.395',-2.88
'0:03.398',-3.28
'0:03.402',-3.14
'0:03.406',-3.14
'0:03.410',-3.6
'0:03.414',-3.92
'0:03.418',-4.12
'0:03.422',-4.1
'0:03.426',-3.21
'0:03.430',-2.73
'0:03.434',-3.19
'0:03.438',-3.78
'0:03.441',-3.95
'0:03.445',-3.93
'0:03.449',-1.57
'0:03.453',0.71
'0:03.457',0.79
'0:03.461',4.79
'0:03.465',5.97
'0:03.469',6.6
'0:03.473',5.67
'0:03.477',0.54
'0:03.480',-6.12
'0:03.484',-10.55
'0:03.488',-11.73
'0:03.492',-10.73
'0:03.496',-9.67
'0:03.500',-8.72
'0:03.504',-6.56
'0:03.508',-3.88
'0:03.512',-1.95
'0:03.516',-1.75
'0:03.520',-1.44
'0:03.523',-0.56
'0:03.527',-0.49
'0:03.531',-0.14
'0:03.535',0.61
'0:03.539',0.95
'0:03.543',0.56
'0:03.547',0.11
'0:03.551',0.23
'0:03.555',0.86
'0:03.559',1.07
'0:03.563',0.98
'0:03.566',1
'0:03.570',0.86
'0:03.574',1.07
'0:03.578',1.73
'0:03.582',1.78
'0:03.586',1.27
'0:03.590',1.08
'0:03.594',1.37
'0:03.598',1.94
'0:03.602',2.32
'0:03.605',2.47
'0:03.609',2.63
'0:03.613',2.68
'0:03.617',2.91
'0:03.621',3.1
'0:03.625',3.37
'0:03.629',3.69
'0:03.633',4.05
'0:03.637',4.39
'0:03.641',4.21
'0:03.645',3.78
'0:03.648',3.36
'0:03.652',2.83
'0:03.656',2.66
'0:03.660',2.53
'0:03.664',2.19
'0:03.668',1.75
'0:03.672',1.04
'0:03.676',0.17
'0:03.680',-0.54
'0:03.684',-1.06
'0:03.688',-1.08
'0:03.691',-1.22
'0:03.695',-1.92
'0:03.699',-2.02
'0:03.703',-1.7
'0:03.707',-1.46
'0:03.711',-1.53
'0:03.715',-1.53
'0:03.719',-1.13
'0:03.723',-0.58
'0:03.727',-0.29
'0:03.730',-0.12
'0:03.734',-0.06
'0:03.738',0.22
'0:03.742',0.18
'0:03.746',0.18
'0:03.750',0.64
'0:03.754',1.11
'0:03.758',1.5
'0:03.762',1.37
'0:03.766',1.05
'0:03.770',0.96
'0:03.773',0.83
'0:03.777',0.74
'0:03.781',0.62
'0:03.785',0.49
'0:03.789',0.22
'0:03.793',-0.23
'0:03.797',-0.71
'0:03.801',-1.19
'0:03.805',-1.58
'0:03.809',-1.57
'0:03.813',-1.55
'0:03.816',-1.56
'0:03.820',-1.65
'0:03.824',-1.8
'0:03.828',-1.8
'0:03.832',-1.88
'0:03.836',-2.04
'0:03.840',-1.94
'0:03.844',-1.72
'0:03.848',-1.53
'0:03.852',-0.86
'0:03.855',0.41
'0:03.859',2.21
'0:03.863',4.35
'0:03.867',6.22
'0:03.871',7.56
'0:03.875',8.08
'0:03.879',5.44
'0:03.883',-0.36
'0:03.887',-5.65
'0:03.891',-9.18
'0:03.895',-10.84
'0:03.898',-10.53
'0:03.902',-8.8
'0:03.906',-6.53
'0:03.910',-4.37
'0:03.914',-2.62
'0:03.918',-1.35
'0:03.922',-0.41
'0:03.926',0.16
'0:03.930',0.42
'0:03.934',0.54
'0:03.938',0.71
'0:03.941',0.94
'0:03.945',1.12
'0:03.949',1.1
'0:03.953',1.08
'0:03.957',1.2
'0:03.961',1.39
'0:03.965',1.58
'0:03.969',1.66
'0:03.973',1.68
'0:03.977',1.76
'0:03.980',1.95
'0:03.984',2.1
'0:03.988',2.17
'0:03.992',2.27
'0:03.996',2.35
'0:04.000',2.45
'0:04.004',2.54
'0:04.008',2.66
'0:04.012',2.93
'0:04.016',3.2
'0:04.020',3.5
'0:04.023',3.78
'0:04.027',4
'0:04.031',4.35
'0:04.035',4.71
'0:04.039',5
'0:04.043',5.17
'0:04.047',5.12
'0:04.051',4.95
'0:04.055',4.71
'0:04.059',4.27
'0:04.063',3.7
'0:04.066',3.14
'0:04.070',2.58
'0:04.074',1.82
'0:04.078',1.14
'0:04.082',0.6
'0:04.086',0.05
'0:04.090',-0.57
'0:04.094',-0.98
'0:04.098',-1.27
'0:04.102',-1.48
'0:04.105',-1.52
'0:04.109',-1.43
'0:04.113',-1.37
'0:04.117',-1.18
'0:04.121',-0.85
'0:04.125',-0.64
'0:04.129',-0.56
'0:04.133',-0.48
'0:04.137',-0.28
'0:04.141',-0.04
'0:04.145',0.27
'0:04.148',0.48
'0:04.152',0.44
'0:04.156',0.35
'0:04.160',0.36
'0:04.164',0.54
'0:04.168',0.66
'0:04.172',0.91
'0:04.176',1.05
'0:04.180',1.08
'0:04.184',1
'0:04.188',0.89
'0:04.191',0.61
'0:04.195',0.22
'0:04.199',-0.1
'0:04.203',-0.42
'0:04.207',-0.89
'0:04.211',-1.28
'0:04.215',-1.51
'0:04.219',-1.58
'0:04.223',-1.58
'0:04.227',-1.5
'0:04.230',-1.32
'0:04.234',-1.21
'0:04.238',-1.14
'0:04.242',-1.22
'0:04.246',-1.41
'0:04.250',-1.75
'0:04.254',-2.02
'0:04.258',-1.99
'0:04.262',-1.45
'0:04.266',-0.12
'0:04.270',2.15
'0:04.273',5.09
'0:04.277',7.89
'0:04.281',10.2
'0:04.285',11.14
'0:04.289',8.17
'0:04.293',2.15
'0:04.297',-3.41
'0:04.301',-7.04
'0:04.305',-8.62
'0:04.309',-8.47
'0:04.313',-7.24
'0:04.316',-5.51
'0:04.320',-3.76
'0:04.324',-2.19
'0:04.328',-1.1
'0:04.332',-0.23
'0:04.336',0.3
'0:04.340',0.69
'0:04.344',0.93
'0:04.348',1.16
'0:04.352',1.37
'0:04.355',1.51
'0:04.359',1.51
'0:04.363',1.52
'0:04.367',1.56
'0:04.371',1.59
'0:04.375',1.73
'0:04.379',1.96
'0:04.383',2.19
'0:04.387',2.2
'0:04.391',2.28
'0:04.395',2.33
'0:04.398',2.28
'0:04.402',2.17
'0:04.406',2.15
'0:04.410',2.15
'0:04.414',2.22
'0:04.418',2.47
'0:04.422',2.9
'0:04.426',3.36
'0:04.430',3.73
'0:04.434',4.12
'0:04.438',4.44
'0:04.441',4.59
'0:04.445',4.81
'0:04.449',5.06
'0:04.453',5.1
'0:04.457',5.17
'0:04.461',5.17
'0:04.465',4.89
'0:04.469',4.61
'0:04.473',4.27
'0:04.477',3.77
'0:04.480',3.1
'0:04.484',2.46
'0:04.488',1.95
'0:04.492',1.49
'0:04.496',0.87
'0:04.500',0.22
'0:04.504',-0.24
'0:04.508',-0.53
'0:04.512',-0.75
'0:04.516',-0.87
'0:04.520',-0.94
'0:04.523',-1
'0:04.527',-0.96
'0:04.531',-0.85
'0:04.535',-0.64
'0:04.539',-0.43
'0:04.543',-0.09
'0:04.547',0.22
'0:04.551',0.47
'0:04.555',0.51
'0:04.559',0.52
'0:04.563',0.61
'0:04.566',0.73
'0:04.570',0.84
'0:04.574',1
'0:04.578',0.9
'0:04.582',0.78
'0:04.586',0.64
'0:04.590',0.74
'0:04.594',0.71
'0:04.598',0.58
'0:04.602',0.47
'0:04.605',0.31
'0:04.609',0
'0:04.613',-0.37
'0:04.617',-0.85
'0:04.621',-1.36
'0:04.625',-1.65
'0:04.629',-1.83
'0:04.633',-2.05
'0:04.637',-2.11
'0:04.641',-2.02
'0:04.645',-1.93
'0:04.648',-1.7
'0:04.652',-1.48
'0:04.656',-1.35
'0:04.660',-1.57
'0:04.664',-1.93
'0:04.668',-2.31
'0:04.672',-2.25
'0:04.676',-1.32
'0:04.680',0.4
'0:04.684',2.79
'0:04.688',5.48
'0:04.691',8.06
'0:04.695',9.82
'0:04.699',8.92
'0:04.703',4.14
'0:04.707',-1.61
'0:04.711',-6.21
'0:04.715',-9
'0:04.719',-9.83
'0:04.723',-9.05
'0:04.727',-7.48
'0:04.730',-5.81
'0:04.734',-4.29
'0:04.738',-3.13
'0:04.742',-2.38
'0:04.746',-1.97
'0:04.750',-1.7
'0:04.754',-1.52
'0:04.758',-1.33
'0:04.762',-1.03
'0:04.766',-0.84
'0:04.770',-0.75
'0:04.773',-0.68
'0:04.777',-0.62
'0:04.781',-0.5
'0:04.785',-0.33
'0:04.789',-0.23
'0:04.793',-0.24
'0:04.797',-0.16
'0:04.801',-0.08
'0:04.805',0.08
'0:04.809',0.16
'0:04.813',0.23
'0:04.816',0.35
'0:04.820',0.37
'0:04.824',0.45
'0:04.828',0.71
'0:04.832',0.98
'0:04.836',1.15
'0:04.840',1.5
'0:04.844',1.93
'0:04.848',2.28
'0:04.852',2.49
'0:04.855',2.74
'0:04.859',2.85
'0:04.863',2.93
'0:04.867',3.05
'0:04.871',3.16
'0:04.875',3.16
'0:04.879',3.05
'0:04.883',2.85
'0:04.887',2.38
'0:04.891',1.78
'0:04.895',1.14
'0:04.898',0.43
'0:04.902',-0.16
'0:04.906',-0.61
'0:04.910',-1.07
'0:04.914',-1.63
'0:04.918',-2.1
'0:04.922',-2.36
'0:04.926',-2.46
'0:04.930',-2.5
'0:04.934',-2.55
'0:04.938',-2.5
'0:04.941',-2.37
'0:04.945',-2.27
'0:04.949',-2.21
'0:04.953',-1.97
'0:04.957',-1.61
'0:04.961',-1.48
'0:04.965',-1.59
'0:04.969',-1.6
'0:04.973',-1.51
'0:04.977',-1.43
'0:04.980',-1.29
'0:04.984',-1.11
'0:04.988',-0.97
'0:04.992',-0.99
'0:04.996',-0.99
'0:05.000',-1.02
'0:05.004',-1.02
'0:05.008',-1.09
'0:05.012',-1.09
'0:05.016',-1.09
'0:05.020',-1.09
'0:05.023',-2.24
'0:05.027',-2.41
'0:05.031',-2.7
'0:05.035',-2.73
'0:05.039',-3.31
'0:05.043',-3.6
'0:05.047',-3.79
'0:05.051',-3.77
'0:05.055',-3.54
'0:05.059',-3.31
'0:05.063',-3.24
'0:05.066',-3.27
'0:05.070',-3.38
'0:05.074',-3.7
'0:05.078',-4.06
'0:05.082',-4.09
'0:05.086',-3.48
'0:05.090',-2.1
'0:05.094',-0.1
'0:05.098',2.2
'0:05.102',4.33
'0:05.105',6.23
'0:05.109',7.07
'0:05.113',5.63
'0:05.117',-2.55
'0:05.121',-7.12
'0:05.125',-9.97
'0:05.129',-10.71
'0:05.133',-9.85
'0:05.137',-8.13
'0:05.141',-6.91
'0:05.145',-5.34
'0:05.148',-5.33
'0:05.152',-4.46
'0:05.156',-1.84
'0:05.160',-1.45
'0:05.164',-1.09
'0:05.168',-0.79
'0:05.172',-0.52
'0:05.176',-0.29
'0:05.180',-0.21
'0:05.184',-0.19
'0:05.188',-0.11
'0:05.191',-0.07
'0:05.195',-0.04
'0:05.199',-0.16
'0:05.203',-0.28
'0:05.207',-0.23
'0:05.211',-0.04
'0:05.215',0.17
'0:05.219',0.37
'0:05.223',0.59
'0:05.227',0.74
'0:05.230',0.93
'0:05.234',1
'0:05.238',1.03
'0:05.242',1.2
'0:05.246',1.6
'0:05.250',2.11
'0:05.254',2.48
'0:05.258',2.71
'0:05.262',2.97
'0:05.266',3.34
'0:05.270',3.67
'0:05.273',3.96
'0:05.277',4.2
'0:05.281',4.32
'0:05.285',4.24
'0:05.289',3.9
'0:05.293',3.62
'0:05.297',3.22
'0:05.301',2.67
'0:05.305',2.04
'0:05.309',1.56
'0:05.313',1.05
'0:05.316',0.45
'0:05.320',-0.21
'0:05.324',-0.85
'0:05.328',-1.34
'0:05.332',-1.57
'0:05.336',-1.66
'0:05.340',-1.75
'0:05.344',-1.82
'0:05.348',-1.82
'0:05.352',-1.72
'0:05.355',-1.62
'0:05.359',-1.4
'0:05.363',-1.02
'0:05.367',-0.68
'0:05.371',-0.53
'0:05.375',-0.48
'0:05.379',-0.33
'0:05.383',-0.16
'0:05.387',-0.06
'0:05.391',0.13
'0:05.395',0.36
'0:05.398',0.51
'0:05.402',0.47
'0:05.406',0.56
'0:05.410',0.55
'0:05.414',0.53
'0:05.418',0.36
'0:05.422',0.03
'0:05.426',-0.37
'0:05.430',-0.63
'0:05.434',-0.92
'0:05.438',-1.42
'0:05.441',-1.97
'0:05.445',-2.29
'0:05.449',-2.37
'0:05.453',-2.46
'0:05.457',-2.4
'0:05.461',-2.38
'0:05.465',-2.29
'0:05.469',-2.27
'0:05.473',-2.43
'0:05.477',-2.44
'0:05.480',-2.54
'0:05.484',-2.78
'0:05.488',-3.09
'0:05.492',-2.95
'0:05.496',-2.07
'0:05.500',-0.43
'0:05.504',1.82
'0:05.508',4.12
'0:05.512',5.94
'0:05.516',7.64
'0:05.520',7.96
'0:05.523',3.88
'0:05.527',-2.51
'0:05.531',-7.58
'0:05.535',-10.52
'0:05.539',-11.39
'0:05.543',-10.52
'0:05.547',-8.72
'0:05.551',-6.78
'0:05.555',-5
'0:05.559',-3.34
'0:05.563',-2.01
'0:05.566',-1.14
'0:05.570',-0.75
'0:05.574',-0.51
'0:05.578',-0.43
'0:05.582',-0.32
'0:05.586',-0.18
'0:05.590',-0.07
'0:05.594',-0.02
'0:05.598',-0.2
'0:05.602',-0.09
'0:05.605',0.23
'0:05.609',0.56
'0:05.613',0.52
'0:05.617',0.64
'0:05.621',0.89
'0:05.625',1.05
'0:05.629',1.12
'0:05.633',1.12
'0:05.637',1.26
'0:05.641',1.34
'0:05.645',1.42
'0:05.648',1.62
'0:05.652',1.93
'0:05.656',2.1
'0:05.660',2.3
'0:05.664',2.74
'0:05.668',3.23
'0:05.672',3.61
'0:05.676',3.8
'0:05.680',3.78
'0:05.684',3.76
'0:05.688',3.94
'0:05.691',4.12
'0:05.695',4.02
'0:05.699',3.68
'0:05.703',3.31
'0:05.707',2.77
'0:05.711',2.12
'0:05.715',1.34
'0:05.719',0.65
'0:05.723',0.02
'0:05.727',-0.7
'0:05.730',-1.3
'0:05.734',-1.76
'0:05.738',-2.13
'0:05.742',-2.45
'0:05.746',-2.62
'0:05.750',-2.65
'0:05.754',-2.62
'0:05.758',-2.48
'0:05.762',-2.31
'0:05.766',-2.29
'0:05.770',-2.19
'0:05.773',-1.96
'0:05.777',-1.64
'0:05.781',-1.46
'0:05.785',-1.46
'0:05.789',-1.24
'0:05.793',-0.8
'0:05.797',-0.45
'0:05.801',-0.38
'0:05.805',-0.38
'0:05.809',-0.18
'0:05.813',-0.12
'0:05.816',-0.07
'0:05.820',0.03
'0:05.824',0.03
'0:05.828',-0.01
'0:05.832',-0.05
'0:05.836',-0.32
'0:05.840',-0.72
'0:05.844',-1.32
'0:05.848',-1.93
'0:05.852',-2.41
'0:05.855',-2.64
'0:05.859',-2.65
'0:05.863',-2.67
'0:05.867',-2.61
'0:05.871',-2.59
'0:05.875',-2.66
'0:05.879',-2.68
'0:05.883',-2.51
'0:05.887',-2.43
'0:05.891',-2.36
'0:05.895',-2.46
'0:05.898',-2.57
'0:05.902',-2.37
'0:05.906',-1.61
'0:05.910',-0.09
'0:05.914',2.24
'0:05.918',4.99
'0:05.922',7.31
'0:05.926',8.72
'0:05.930',8.13
'0:05.934',3.42
'0:05.938',-2.65
'0:05.941',-7.11
'0:05.945',-9.43
'0:05.949',-10.09
'0:05.953',-9.43
'0:05.957',-7.75
'0:05.961',-5.75
'0:05.965',-3.95
'0:05.969',-2.4
'0:05.973',-1.28
'0:05.977',-0.58
'0:05.980',-0.22
'0:05.984',-0.01
'0:05.988',0.2
'0:05.992',0.54
'0:05.996',0.89
'0:06.000',1.06
'0:06.004',1.17
'0:06.008',1.32
'0:06.012',1.54
'0:06.016',1.68
'0:06.020',1.66
'0:06.023',1.6
'0:06.027',1.54
'0:06.031',1.66
'0:06.035',1.96
'0:06.039',2.21
'0:06.043',2.37
'0:06.047',2.57
'0:06.051',2.73
'0:06.055',2.91
'0:06.059',3.17
'0:06.063',3.32
'0:06.066',3.42
'0:06.070',3.59
'0:06.074',3.93
'0:06.078',4.34
'0:06.082',4.59
'0:06.086',4.8
'0:06.090',5.13
'0:06.094',5.37
'0:06.098',5.42
'0:06.102',5.26
'0:06.105',4.97
'0:06.109',4.78
'0:06.113',4.6
'0:06.117',4.26
'0:06.121',3.72
'0:06.125',2.97
'0:06.129',2.34
'0:06.133',1.8
'0:06.137',1.26
'0:06.141',0.69
'0:06.145',0.4
'0:06.148',0.17
'0:06.152',-0.04
'0:06.156',-0.19
'0:06.160',-0.35
'0:06.164',-0.43
'0:06.168',-0.34
'0:06.172',-0.29
'0:06.176',-0.23
'0:06.180',-0.02
'0:06.184',0.27
'0:06.188',0.49
'0:06.191',0.71
'0:06.195',0.86
'0:06.199',0.98
'0:06.203',0.93
'0:06.207',0.97
'0:06.211',1.15
'0:06.215',1.33
'0:06.219',1.38
'0:06.223',1.3
'0:06.227',1.3
'0:06.230',1.4
'0:06.234',1.57
'0:06.238',1.37
'0:06.242',1.1
'0:06.246',0.95
'0:06.250',0.64
'0:06.254',0.37
'0:06.258',0.07
'0:06.262',-0.32
'0:06.266',-0.71
'0:06.270',-0.99
'0:06.273',-1.21
'0:06.277',-1.38
'0:06.281',-1.46
'0:06.285',-1.48
'0:06.289',-1.38
'0:06.293',-1.24
'0:06.297',-1.17
'0:06.301',-1.12
'0:06.305',-1.14
'0:06.309',-1.49
'0:06.313',-1.78
'0:06.316',-1.74
'0:06.320',-0.9
'0:06.324',0.81
'0:06.328',3.11
'0:06.332',5.69
'0:06.336',8.19
'0:06.340',10.07
'0:06.344',9.42
'0:06.348',4.68
'0:06.352',-1.28
'0:06.355',-6.06
'0:06.359',-8.9
'0:06.363',-9.54
'0:06.367',-8.79
'0:06.371',-7.26
'0:06.375',-5.53
'0:06.379',-3.87
'0:06.383',-2.52
'0:06.387',-1.54
'0:06.391',-0.93
'0:06.395',-0.58
'0:06.398',-0.36
'0:06.402',-0.16
'0:06.406',0.03
'0:06.410',0.16
'0:06.414',0.21
'0:06.418',0.23
'0:06.422',0.31
'0:06.426',0.42
'0:06.430',0.55
'0:06.434',0.64
'0:06.438',0.63
'0:06.441',0.69
'0:06.445',0.8
'0:06.449',0.86
'0:06.453',0.83
'0:06.457',0.76
'0:06.461',0.81
'0:06.465',1.03
'0:06.469',1.2
'0:06.473',1.37
'0:06.477',1.47
'0:06.480',1.67
'0:06.484',2.03
'0:06.488',2.52
'0:06.492',2.97
'0:06.496',3.35
'0:06.500',3.68
'0:06.504',3.86
'0:06.508',3.84
'0:06.512',3.79
'0:06.516',3.77
'0:06.520',3.71
'0:06.523',3.63
'0:06.527',3.45
'0:06.531',3.02
'0:06.535',2.43
'0:06.539',1.77
'0:06.543',1.01
'0:06.547',0.37
'0:06.551',-0.07
'0:06.555',-0.42
'0:06.559',-0.77
'0:06.563',-1.06
'0:06.566',-1.26
'0:06.570',-1.44
'0:06.574',-1.66
'0:06.578',-1.75
'0:06.582',-1.84
'0:06.586',-1.93
'0:06.590',-1.95
'0:06.594',-1.87
'0:06.598',-1.64
'0:06.602',-1.28
'0:06.605',-1.02
'0:06.609',-0.9
'0:06.613',-0.87
'0:06.617',-0.81
'0:06.621',-0.62
'0:06.625',-0.41
'0:06.629',-0.25
'0:06.633',-0.19
'0:06.637',-0.11
'0:06.641',0.09
'0:06.645',0.27
'0:06.648',0.17
'0:06.652',-0.05
'0:06.656',-0.16
'0:06.660',-0.24
'0:06.664',-0.45
'0:06.668',-0.71
'0:06.672',-1
'0:06.676',-1.42
'0:06.680',-1.79
'0:06.684',-2.06
'0:06.688',-2.31
'0:06.691',-2.51
'0:06.695',-2.64
'0:06.699',-2.63
'0:06.703',-2.46
'0:06.707',-2.31
'0:06.711',-2.22
'0:06.715',-2.12
'0:06.719',-2.1
'0:06.723',-2.26
'0:06.727',-2.46
'0:06.730',-2.25
'0:06.734',-1.26
'0:06.738',0.44
'0:06.742',2.61
'0:06.746',4.83
'0:06.750',6.67
'0:06.754',7.69
'0:06.758',6.01
'0:06.762',1.34
'0:06.766',-3.71
'0:06.770',-7.53
'0:06.773',-9.47
'0:06.777',-9.57
'0:06.781',-8.48
'0:06.785',-6.74
'0:06.789',-4.86
'0:06.793',-3.12
'0:06.797',-1.76
'0:06.801',-0.95
'0:06.805',-0.68
'0:06.809',-0.77
'0:06.813',-0.8
'0:06.816',-0.61
'0:06.820',-0.38
'0:06.824',-0.27
'0:06.828',-0.24
'0:06.832',-0.14
'0:06.836',-0.09
'0:06.840',0
'0:06.844',0.18
'0:06.848',0.4
'0:06.852',0.56
'0:06.855',0.63
'0:06.859',0.54
'0:06.863',0.5
'0:06.867',0.62
'0:06.871',0.88
'0:06.875',1.05
'0:06.879',1.16
'0:06.883',1.2
'0:06.887',1.25
'0:06.891',1.39
'0:06.895',1.6
'0:06.898',1.91
'0:06.902',2.19
'0:06.906',2.57
'0:06.910',2.91
'0:06.914',3.3
'0:06.918',3.68
'0:06.922',3.83
'0:06.926',3.9
'0:06.930',3.93
'0:06.934',3.88
'0:06.938',3.65
'0:06.941',3.31
'0:06.945',2.85
'0:06.949',2.21
'0:06.953',1.53
'0:06.957',0.97
'0:06.961',0.55
'0:06.965',0.02
'0:06.969',-0.48
'0:06.973',-0.89
'0:06.977',-1.17
'0:06.980',-1.41
'0:06.984',-1.65
'0:06.988',-1.73
'0:06.992',-1.75
'0:06.996',-1.82
'0:07.000',-1.82
'0:07.004',-1.63
'0:07.008',-1.38
'0:07.012',-1.28
'0:07.016',-1.07
'0:07.020',-0.89
'0:07.023',-0.8
'0:07.027',-0.73
'0:07.031',-0.6
'0:07.035',-0.31
'0:07.039',-0.09
'0:07.043',0.05
'0:07.047',0.21
'0:07.051',0.25
'0:07.055',0.37
'0:07.059',0.29
'0:07.063',0.05
'0:07.066',-0.1
'0:07.070',-0.22
'0:07.074',-0.46
'0:07.078',-0.87
'0:07.082',-1.14
'0:07.086',-1.51
'0:07.090',-1.81
'0:07.094',-2.2
'0:07.098',-2.63
'0:07.102',-3.04
'0:07.105',-3.12
'0:07.109',-3.04
'0:07.113',-2.8
'0:07.117',-2.63
'0:07.121',-2.52
'0:07.125',-2.4
'0:07.129',-2.44
'0:07.133',-2.68
'0:07.137',-3.02
'0:07.141',-2.93
'0:07.145',-2.13
'0:07.148',-0.52
'0:07.152',1.62
'0:07.156',3.96
'0:07.160',6.18
'0:07.164',7.92
'0:07.168',7.93
'0:07.172',3.78
'0:07.176',-2.53
'0:07.180',-7.62
'0:07.184',-10.52
'0:07.188',-11.19
'0:07.191',-10.2
'0:07.195',-8.4
'0:07.199',-6.57
'0:07.203',-4.79
'0:07.207',-3.24
'0:07.211',-2.06
'0:07.215',-1.33
'0:07.219',-0.87
'0:07.223',-0.57
'0:07.227',-0.36
'0:07.230',-0.21
'0:07.234',-0.07
'0:07.238',0.26
'0:07.242',0.43
'0:07.246',0.49
'0:07.250',0.45
'0:07.254',0.4
'0:07.258',0.46
'0:07.262',0.62
'0:07.266',0.83
'0:07.270',1
'0:07.273',1.11
'0:07.277',1.15
'0:07.281',1.27
'0:07.285',1.41
'0:07.289',1.57
'0:07.293',1.7
'0:07.297',1.84
'0:07.301',1.97
'0:07.305',2.15
'0:07.309',2.42
'0:07.313',2.79
'0:07.316',3.18
'0:07.320',3.59
'0:07.324',3.91
'0:07.328',4.07
'0:07.332',4.1
'0:07.336',4.15
'0:07.340',4.24
'0:07.344',4.27
'0:07.348',3.99
'0:07.352',3.35
'0:07.355',2.8
'0:07.359',2.43
'0:07.363',1.95
'0:07.367',1.3
'0:07.371',0.48
'0:07.375',-0.25
'0:07.379',-0.93
'0:07.383',-1.45
'0:07.387',-1.86
'0:07.391',-2.03
'0:07.395',-2.12
'0:07.398',-2.31
'0:07.402',-2.63
'0:07.406',-2.6
'0:07.410',-2.47
'0:07.414',-2.2
'0:07.418',-1.82
'0:07.422',-1.51
'0:07.426',-1.39
'0:07.430',-1.33
'0:07.434',-1.26
'0:07.438',-1.17
'0:07.441',-0.88
'0:07.445',-0.34
'0:07.449',0.01
'0:07.453',0.06
'0:07.457',-0.27
'0:07.461',-0.36
'0:07.465',-0.06
'0:07.469',0.03
'0:07.473',-0.04
'0:07.477',-0.22
'0:07.480',-0.52
'0:07.484',-0.8
'0:07.488',-1.02
'0:07.492',-1.32
'0:07.496',-1.76
'0:07.500',-2.12
'0:07.504',-2.44
'0:07.508',-2.65
'0:07.512',-2.65
'0:07.516',-2.66
'0:07.520',-2.65
'0:07.523',-2.67
'0:07.527',-2.7
'0:07.531',-2.53
'0:07.535',-2.43
'0:07.539',-2.51
'0:07.543',-2.52
'0:07.547',-2.28
'0:07.551',-1.54
'0:07.555',-0.02
'0:07.559',2.01
'0:07.563',4.19
'0:07.566',6
'0:07.570',7.47
'0:07.574',7.47
'0:07.578',3.63
'0:07.582',-2.54
'0:07.586',-7.38
'0:07.590',-10
'0:07.594',-10.73
'0:07.598',-10.03
'0:07.602',-8.47
'0:07.605',-6.47
'0:07.609',-4.53
'0:07.613',-2.85
'0:07.617',-1.53
'0:07.621',-0.59
'0:07.625',-0.02
'0:07.629',0.2
'0:07.633',0.42
'0:07.637',0.69
'0:07.641',0.98
'0:07.645',1.12
'0:07.648',1.13
'0:07.652',1.09
'0:07.656',1.12
'0:07.660',1.23
'0:07.664',1.35
'0:07.668',1.44
'0:07.672',1.47
'0:07.676',1.48
'0:07.680',1.54
'0:07.684',1.77
'0:07.688',1.9
'0:07.691',1.95
'0:07.695',2.06
'0:07.699',2.25
'0:07.703',2.35
'0:07.707',2.4
'0:07.711',2.59
'0:07.715',2.81
'0:07.719',2.93
'0:07.723',3.23
'0:07.727',3.52
'0:07.730',3.76
'0:07.734',3.98
'0:07.738',4.17
'0:07.742',4.39
'0:07.746',4.51
'0:07.750',4.43
'0:07.754',4.34
'0:07.758',4.09
'0:07.762',3.51
'0:07.766',2.9
'0:07.770',2.33
'0:07.773',1.73
'0:07.777',1.14
'0:07.781',0.55
'0:07.785',-0.17
'0:07.789',-0.78
'0:07.793',-1.22
'0:07.797',-1.46
'0:07.801',-1.6
'0:07.805',-1.68
'0:07.809',-1.62
'0:07.813',-1.52
'0:07.816',-1.46
'0:07.820',-1.44
'0:07.824',-1.3
'0:07.828',-0.97
'0:07.832',-0.63
'0:07.836',-0.39
'0:07.840',-0.25
'0:07.844',-0.11
'0:07.848',-0.02
'0:07.852',0.12
'0:07.855',0.3
'0:07.859',0.47
'0:07.863',0.66
'0:07.867',0.78
'0:07.871',0.78
'0:07.875',0.78
'0:07.879',0.62
'0:07.883',0.52
'0:07.887',0.56
'0:07.891',0.56
'0:07.895',0.56
'0:07.898',-0.14
'0:07.902',-0.52
'0:07.906',-0.86
'0:07.910',-1.22
'0:07.914',-1.52
'0:07.918',-1.78
'0:07.922',-1.9
'0:07.926',-1.95
'0:07.930',-1.97
'0:07.934',-1.97
'0:07.938',-2
'0:07.941',-2.12
'0:07.945',-2.37
'0:07.949',-2.36
'0:07.953',-2.41
'0:07.957',-2.55
'0:07.961',-2.36
'0:07.965',-1.5
'0:07.969',0.2
'0:07.973',2.46
'0:07.977',4.96
'0:07.980',7.13
'0:07.984',9.02
'0:07.988',9.2
'0:07.992',5.06
'0:07.996',-1.18
'0:08.000',-6.52
'0:08.004',-9.72
'0:08.008',-10.71
'0:08.012',-10.06
'0:08.016',-8.42
'0:08.020',-6.37
'0:08.023',-4.58
'0:08.027',-3.15
'0:08.031',-2.19
'0:08.035',-1.6
'0:08.039',-1.19
'0:08.043',-0.96
'0:08.047',-0.65
'0:08.051',-0.38
'0:08.055',-0.24
'0:08.059',-0.14
'0:08.063',-0.02
'0:08.066',0.13
'0:08.070',0.38
'0:08.074',0.52
'0:08.078',0.57
'0:08.082',0.53
'0:08.086',0.69
'0:08.090',0.79
'0:08.094',0.87
'0:08.098',0.93
'0:08.102',0.9
'0:08.105',0.96
'0:08.109',1.03
'0:08.113',1.27
'0:08.117',1.52
'0:08.121',1.61
'0:08.125',1.66
'0:08.129',1.81
'0:08.133',2.08
'0:08.137',2.43
'0:08.141',2.65
'0:08.145',2.91
'0:08.148',3.3
'0:08.152',3.63
'0:08.156',3.85
'0:08.160',3.81
'0:08.164',3.85
'0:08.168',3.89
'0:08.172',3.75
'0:08.176',3.28
'0:08.180',2.66
'0:08.184',2.1
'0:08.188',1.58
'0:08.191',0.92
'0:08.195',0.06
'0:08.199',-0.52
'0:08.203',-0.95
'0:08.207',-1.32
'0:08.211',-1.56
'0:08.215',-1.79
'0:08.219',-1.98
'0:08.223',-1.96
'0:08.227',-1.8
'0:08.230',-1.75
'0:08.234',-1.57
'0:08.238',-1.34
'0:08.242',-1.04
'0:08.246',-0.9
'0:08.250',-0.95
'0:08.254',-0.94
'0:08.258',-0.95
'0:08.262',-0.68
'0:08.266',-0.35
'0:08.270',-0.08
'0:08.273',0.05
'0:08.277',0.18
'0:08.281',0.27
'0:08.285',0.38
'0:08.289',0.46
'0:08.293',0.45
'0:08.297',0.25
'0:08.301',0
'0:08.305',-0.13
'0:08.309',-0.37
'0:08.313',-0.71
'0:08.316',-1.05
'0:08.320',-1.31
'0:08.324',-2.13
'0:08.328',-2.54
'0:08.332',-2.7
'0:08.336',-2.7
'0:08.340',-2.53
'0:08.344',-2.4
'0:08.348',-2.39
'0:08.352',-2.41
'0:08.355',-2.26
'0:08.359',-2.14
'0:08.363',-2.17
'0:08.367',-2.31
'0:08.371',-2.36
'0:08.375',-2.36
'0:08.379',-2.36
'0:08.383',-2.36
'0:08.387',-2.36
'0:08.391',-2.36
'0:08.395',-2.36
'0:08.398',-2.36
'0:08.402',-2.36
'0:08.406',-2.36
'0:08.410',-2.36
'0:08.414',-2.36
'0:08.418',-2.36
'0:08.422',-2.36
'0:08.426',-2.36
'0:08.430',-2.36
'0:08.434',-2.36
'0:08.438',-2.36
'0:08.441',-2.36
'0:08.445',-2.36
'0:08.449',-2.36
'0:08.453',-2.36
'0:08.457',-2.36
'0:08.461',-2.36
'0:08.465',-2.36
'0:08.469',-2.36
'0:08.473',-2.36
'0:08.477',-2.36
'0:08.480',-2.36
'0:08.484',-2.36
'0:08.488',-2.36
'0:08.492',-2.36
'0:08.496',-2.36
'0:08.500',-0.12
'0:08.504',-0.99
'0:08.508',-1.33
'0:08.512',-1.36
'0:08.516',-1.23
'0:08.520',-1.17
'0:08.523',-1.21
'0:08.527',-1.21
'0:08.531',-1.01
'0:08.535',-0.6
'0:08.539',-0.18
'0:08.543',0.24
'0:08.547',0.55
'0:08.551',1.03
'0:08.555',1.36
'0:08.559',1.61
'0:08.563',1.77
'0:08.566',2.05
'0:08.570',2.32
'0:08.574',2.57
'0:08.578',2.59
'0:08.582',2.49
'0:08.586',2.24
'0:08.590',1.82
'0:08.594',1.31
'0:08.598',0.7
'0:08.602',0.15
'0:08.605',-0.36
'0:08.609',-0.86
'0:08.613',-1.34
'0:08.617',-1.78
'0:08.621',-2.01
'0:08.625',-2.1
'0:08.629',-2.17
'0:08.633',-2.16
'0:08.637',-2.12
'0:08.641',-2.15
'0:08.645',-2.16
'0:08.648',-2.13
'0:08.652',-2.04
'0:08.656',-1.77
'0:08.660',-1.51
'0:08.664',-1.26
'0:08.668',-0.99
'0:08.672',-0.76
'0:08.676',-0.6
'0:08.680',-0.38
'0:08.684',-0.16
'0:08.688',0.04
'0:08.691',0.1
'0:08.695',0.15
'0:08.699',0.28
'0:08.703',0.3
'0:08.707',0.21
'0:08.711',0.07
'0:08.715',-0.07
'0:08.719',-0.45
'0:08.723',-0.89
'0:08.727',-1.19
'0:08.730',-1.4
'0:08.734',-1.78
'0:08.738',-2.24
'0:08.742',-2.61
'0:08.746',-2.8
'0:08.750',-2.72
'0:08.754',-2.53
'0:08.758',-2.35
'0:08.762',-2.34
'0:08.766',-2.26
'0:08.770',-2.19
'0:08.773',-2.28
'0:08.777',-2.37
'0:08.781',-2.51
'0:08.785',-2.37
'0:08.789',-1.54
'0:08.793',0.02
'0:08.797',2.19
'0:08.801',4.66
'0:08.805',6.91
'0:08.809',8.53
'0:08.813',8.23
'0:08.816',3.75
'0:08.820',-2.48
'0:08.824',-7.32
'0:08.828',-10
'0:08.832',-10.8
'0:08.836',-10.06
'0:08.840',-8.32
'0:08.844',-6.26
'0:08.848',-4.3
'0:08.852',-2.69
'0:08.855',-1.47
'0:08.859',-0.89
'0:08.863',-0.58
'0:08.867',-0.18
'0:08.871',0.13
'0:08.875',0.29
'0:08.879',0.36
'0:08.883',0.37
'0:08.887',0.49
'0:08.891',0.79
'0:08.895',0.92
'0:08.898',0.91
'0:08.902',0.91
'0:08.906',1.02
'0:08.910',1.12
'0:08.914',1.19
'0:08.918',1.4
'0:08.922',1.61
'0:08.926',1.77
'0:08.930',1.96
'0:08.934',2.2
'0:08.938',2.26
'0:08.941',2.33
'0:08.945',2.52
'0:08.949',2.84
'0:08.953',3.03
'0:08.957',3.22
'0:08.961',3.45
'0:08.965',3.88
'0:08.969',4.37
'0:08.973',4.73
'0:08.977',4.92
'0:08.980',5
'0:08.984',4.77
'0:08.988',4.46
'0:08.992',4.11
'0:08.996',3.62
'0:09.000',3.01
'0:09.004',2.5
'0:09.008',2.03
'0:09.012',1.55
'0:09.016',0.91
'0:09.020',0.2
'0:09.023',-0.45
'0:09.027',-0.97
'0:09.031',-1.3
'0:09.035',-1.62
'0:09.039',-1.95
'0:09.043',-2.18
'0:09.047',-2.11
'0:09.051',-1.87
'0:09.055',-1.79
'0:09.059',-1.7
'0:09.063',-1.4
'0:09.066',-1.09
'0:09.070',-0.91
'0:09.074',-0.82
'0:09.078',-0.79
'0:09.082',-0.51
'0:09.086',-0.26
'0:09.090',-0.02
'0:09.094',0.18
'0:09.098',0.28
'0:09.102',0.45
'0:09.105',0.82
'0:09.109',1.17
'0:09.113',1.02
'0:09.117',0.65
'0:09.121',0.51
'0:09.125',0.22
'0:09.129',0.05
'0:09.133',-0.22
'0:09.137',-0.68
'0:09.141',-1.15
'0:09.145',-1.61
'0:09.148',-2.03
'0:09.152',-2.27
'0:09.156',-2.49
'0:09.160',-2.58
'0:09.164',-2.33
'0:09.168',-1.93
'0:09.172',-1.75
'0:09.176',-1.87
'0:09.180',-1.87
'0:09.184',-1.92
'0:09.188',-2.15
'0:09.191',-2.36
'0:09.195',-2.06
'0:09.199',-2.04
'0:09.203',-2.04
'0:09.207',0.61
'0:09.211',7.56
'0:09.215',8.63
'0:09.219',7.43
'0:09.223',2.45
'0:09.227',-3.45
'0:09.230',-7.57
'0:09.234',-9.59
'0:09.238',-9.97
'0:09.242',-9.04
'0:09.246',-7.14
'0:09.250',-5.54
'0:09.254',-3.77
'0:09.258',-2.22
'0:09.262',-1.06
'0:09.266',-0.28
'0:09.270',0.36
'0:09.273',0.86
'0:09.277',1.1
'0:09.281',1.18
'0:09.285',1.42
'0:09.289',1.69
'0:09.293',1.81
'0:09.297',1.74
'0:09.301',1.86
'0:09.305',2.08
'0:09.309',2.32
'0:09.313',2.46
'0:09.316',2.46
'0:09.320',2.37
'0:09.324',2.35
'0:09.328',2.49
'0:09.332',2.81
'0:09.336',3.11
'0:09.340',3.22
'0:09.344',3.2
'0:09.348',3.37
'0:09.352',3.6
'0:09.355',3.77
'0:09.359',3.83
'0:09.363',4.04
'0:09.367',4.46
'0:09.371',4.81
'0:09.375',5.13
'0:09.379',5.54
'0:09.383',5.72
'0:09.387',5.58
'0:09.391',5.37
'0:09.395',5.26
'0:09.398',5.07
'0:09.402',4.76
'0:09.406',4.35
'0:09.410',3.69
'0:09.414',2.96
'0:09.418',2.34
'0:09.422',1.72
'0:09.426',0.94
'0:09.430',0.31
'0:09.434',-0.15
'0:09.438',-0.39
'0:09.441',-0.53
'0:09.445',-0.66
'0:09.449',-0.79
'0:09.453',-0.75
'0:09.457',-0.65
'0:09.461',-0.68
'0:09.465',-0.68
'0:09.469',-0.52
'0:09.473',-0.27
'0:09.477',0.06
'0:09.480',0.35
'0:09.484',0.67
'0:09.488',0.76
'0:09.492',0.89
'0:09.496',1.04
'0:09.500',1.05
'0:09.504',1.08
'0:09.508',1.24
'0:09.512',1.32
'0:09.516',1.34
'0:09.520',1.34
'0:09.523',1.26
'0:09.527',1.13
'0:09.531',1.04
'0:09.535',0.8
'0:09.539',0.4
'0:09.543',-0.22
'0:09.547',-0.83
'0:09.551',-1.3
'0:09.555',-1.48
'0:09.559',-1.63
'0:09.563',-1.86
'0:09.566',-1.99
'0:09.570',-1.99
'0:09.574',-1.99
'0:09.578',-1.83
'0:09.582',-1.66
'0:09.586',-1.61
'0:09.590',-1.75
'0:09.594',-2.02
'0:09.598',-2.29
'0:09.602',-2.21
'0:09.605',-1.34
'0:09.609',0.46
'0:09.613',2.86
'0:09.617',5.51
'0:09.621',7.59
'0:09.625',9.06
'0:09.629',8.64
'0:09.633',4.07
'0:09.637',-2.24
'0:09.641',-7.23
'0:09.645',-10.05
'0:09.648',-10.76
'0:09.652',-9.93
'0:09.656',-8.29
'0:09.660',-6.34
'0:09.664',-4.43
'0:09.668',-2.75
'0:09.672',-1.55
'0:09.676',-0.91
'0:09.680',-0.57
'0:09.684',-0.36
'0:09.688',-0.16
'0:09.691',0.08
'0:09.695',0.2
'0:09.699',0.29
'0:09.703',0.42
'0:09.707',0.52
'0:09.711',0.58
'0:09.715',0.59
'0:09.719',0.56
'0:09.723',0.56
'0:09.727',0.64
'0:09.730',0.88
'0:09.734',1.02
'0:09.738',1.07
'0:09.742',1.1
'0:09.746',1.17
'0:09.750',1.38
'0:09.754',1.62
'0:09.758',1.71
'0:09.762',1.86
'0:09.766',2.13
'0:09.770',2.45
'0:09.773',2.79
'0:09.777',3.08
'0:09.781',3.35
'0:09.785',3.65
'0:09.789',3.96
'0:09.793',4.25
'0:09.797',4.37
'0:09.801',4.29
'0:09.805',4.11
'0:09.809',4.03
'0:09.813',3.95
'0:09.816',3.52
'0:09.820',2.82
'0:09.824',2.19
'0:09.828',1.54
'0:09.832',0.65
'0:09.836',-0.3
'0:09.840',-1.03
'0:09.844',-1.49
'0:09.848',-1.67
'0:09.852',-1.72
'0:09.855',-1.72
'0:09.859',-1.81
'0:09.863',-1.79
'0:09.867',-1.78
'0:09.871',-1.75
'0:09.875',-1.64
'0:09.879',-1.56
'0:09.883',-1.4
'0:09.887',-1.14
'0:09.891',-0.85
'0:09.895',-0.63
'0:09.898',-0.58
'0:09.902',-0.5
'0:09.906',-0.38
'0:09.910',-0.29
'0:09.914',-0.11
'0:09.918',0.11
'0:09.922',0.38
'0:09.926',0.71
'0:09.930',0.81
'0:09.934',0.68
'0:09.938',0.44
'0:09.941',0.2
'0:09.945',-0.01
'0:09.949',-0.37
'0:09.953',-0.68
'0:09.957',-1.01
'0:09.961',-1.49
'0:09.965',-1.88
'0:09.969',-2.21
'0:09.973',-2.34
'0:09.977',-2.44
'0:09.980',-2.51
'0:09.984',-2.44
'0:09.988',-2.36
'0:09.992',-2.23
'0:09.996',-2.11
'0:10.000',-1.89
'0:10.004',-1.86
'0:10.008',-2.07
'0:10.012',-2.19
'0:10.016',-1.99
'0:10.020',-1.11
'0:10.023',0.63
'0:10.027',3.08
'0:10.031',5.82
'0:10.035',8.53
'0:10.039',10.44
'0:10.043',9.2
'0:10.047',3.92
'0:10.051',-2.07
'0:10.055',-6.62
'0:10.059',-9.15
'0:10.063',-9.53
'0:10.066',-8.56
'0:10.070',-6.98
'0:10.074',-5.48
'0:10.078',-3.84
'0:10.082',-2.35
'0:10.086',-1.47
'0:10.090',-1.07
'0:10.094',-0.84
'0:10.098',-0.6
'0:10.102',-0.21
'0:10.105',0.05
'0:10.109',0.04
'0:10.113',-0.04
'0:10.117',0.04
'0:10.121',0.2
'0:10.125',0.24
'0:10.129',0.35
'0:10.133',0.49
'0:10.137',0.69
'0:10.141',0.86
'0:10.145',1.1
'0:10.148',1.27
'0:10.152',1.44
'0:10.156',1.54
'0:10.160',1.63
'0:10.164',1.72
'0:10.168',1.87
'0:10.172',1.88
'0:10.176',1.74
'0:10.180',1.87
'0:10.184',2.29
'0:10.188',2.73
'0:10.191',3.13
'0:10.195',3.54
'0:10.199',3.94
'0:10.203',4.1
'0:10.207',4.23
'0:10.211',4.46
'0:10.215',4.56
'0:10.219',4.43
'0:10.223',4.13
'0:10.227',3.7
'0:10.230',3.17
'0:10.234',2.73
'0:10.238',2.35
'0:10.242',1.82
'0:10.246',1.29
'0:10.250',0.8
'0:10.254',0.39
'0:10.258',0.05
'0:10.262',-0.25
'0:10.266',-0.47
'0:10.270',-0.65
'0:10.273',-0.65
'0:10.277',-0.63
'0:10.281',-0.67
'0:10.285',-0.73
'0:10.289',-0.72
'0:10.293',-0.54
'0:10.297',-0.12
'0:10.301',0.3
'0:10.305',0.52
'0:10.309',0.47
'0:10.313',0.35
'0:10.316',0.37
'0:10.320',0.53
'0:10.324',0.76
'0:10.328',0.93
'0:10.332',1.02
'0:10.336',0.94
'0:10.340',0.83
'0:10.344',0.85
'0:10.348',0.95
'0:10.352',0.93
'0:10.355',0.7
'0:10.359',0.51
'0:10.363',0.25
'0:10.367',-0.13
'0:10.371',-0.71
'0:10.375',-1.28
'0:10.379',-1.65
'0:10.383',-1.88
'0:10.387',-2.04
'0:10.391',-2.09
'0:10.395',-2.01
'0:10.398',-1.95
'0:10.402',-1.96
'0:10.406',-2.06
'0:10.410',-2.16
'0:10.414',-2.2
'0:10.418',-2.34
'0:10.422',-2.61
'0:10.426',-2.74
'0:10.430',-2.29
'0:10.434',-1.03
'0:10.438',0.68
'0:10.441',2.88
'0:10.445',5.06
'0:10.449',6.88
'0:10.453',7.53
'0:10.457',4.89
'0:10.461',-0.46
'0:10.465',-5.43
'0:10.469',-8.83
'0:10.473',-10.28
'0:10.477',-9.93
'0:10.480',-8.49
'0:10.484',-6.75
'0:10.488',-4.89
'0:10.492',-3.33
'0:10.496',-2.32
'0:10.500',-1.64
'0:10.504',-1.18
'0:10.508',-0.8
'0:10.512',-0.61
'0:10.516',-0.55
'0:10.520',-0.43
'0:10.523',-0.36
'0:10.527',-0.36
'0:10.531',-0.28
'0:10.535',-0.09
'0:10.539',0.13
'0:10.543',0.38
'0:10.547',0.57
'0:10.551',0.63
'0:10.555',0.53
'0:10.559',0.44
'0:10.563',0.33
'0:10.566',0.31
'0:10.570',0.69
'0:10.574',1.06
'0:10.578',1.24
'0:10.582',1.17
'0:10.586',1.23
'0:10.590',1.55
'0:10.594',1.95
'0:10.598',2.48
'0:10.602',3.03
'0:10.605',3.4
'0:10.609',3.69
'0:10.613',3.88
'0:10.617',4.03
'0:10.621',4.12
'0:10.625',4.1
'0:10.629',4.04
'0:10.633',3.85
'0:10.637',3.5
'0:10.641',2.94
'0:10.645',2.31
'0:10.648',1.72
'0:10.652',1.08
'0:10.656',0.35
'0:10.660',-0.38
'0:10.664',-0.97
'0:10.668',-1.34
'0:10.672',-1.73
'0:10.676',-2.1
'0:10.680',-2.31
'0:10.684',-2.33
'0:10.688',-2.12
'0:10.691',-1.95
'0:10.695',-2.13
'0:10.699',-2.26
'0:10.703',-2.06
'0:10.707',-1.66
'0:10.711',-1.39
'0:10.715',-1.36
'0:10.719',-1.39
'0:10.723',-1.25
'0:10.727',-0.89
'0:10.730',-0.5
'0:10.734',-0.18
'0:10.738',-0.14
'0:10.742',-0.18
'0:10.746',-0.18
'0:10.750',0.1
'0:10.754',0.3
'0:10.758',0.13
'0:10.762',-0.12
'0:10.766',-0.29
'0:10.770',-0.56
'0:10.773',-1.02
'0:10.777',-1.47
'0:10.781',-1.94
'0:10.785',-2.31
'0:10.789',-2.34
'0:10.793',-2.33
'0:10.797',-2.34
'0:10.801',-2.34
'0:10.805',-2.84
'0:10.809',-2.92
'0:10.813',-2.87
'0:10.816',-2.71
'0:10.820',-2.58
'0:10.824',-2.55
'0:10.828',-2.66
'0:10.832',-2.77
'0:10.836',-2.55
'0:10.840',-1.53
'0:10.844',0.05
'0:10.848',2.08
'0:10.852',4.49
'0:10.855',6.6
'0:10.859',8.16
'0:10.863',7.59
'0:10.867',2.99
'0:10.871',-2.94
'0:10.875',-7.43
'0:10.879',-10.11
'0:10.883',-10.8
'0:10.887',-10.11
'0:10.891',-8.58
'0:10.895',-6.55
'0:10.898',-4.48
'0:10.902',-2.73
'0:10.906',-1.51
'0:10.910',-0.8
'0:10.914',-0.4
'0:10.918',0.04
'0:10.922',0.32
'0:10.926',0.47
'0:10.930',0.59
'0:10.934',0.51
'0:10.938',0.42
'0:10.941',0.5
'0:10.945',0.59
'0:10.949',0.63
'0:10.953',0.74
'0:10.957',0.99
'0:10.961',1.22
'0:10.965',1.37
'0:10.969',1.57
'0:10.973',1.65
'0:10.977',1.54
'0:10.980',1.42
'0:10.984',1.52
'0:10.988',1.74
'0:10.992',2.04
'0:10.996',2.42
'0:11.000',2.54
'0:11.004',2.75
'0:11.008',3
'0:11.012',3.16
'0:11.016',3.48
'0:11.020',3.79
'0:11.023',4.17
'0:11.027',4.32
'0:11.031',4.34
'0:11.035',4.42
'0:11.039',4.53
'0:11.043',4.06
'0:11.047',3.53
'0:11.051',3.04
'0:11.055',2.5
'0:11.059',1.91
'0:11.063',1.31
'0:11.066',0.47
'0:11.070',-0.35
'0:11.074',-0.79
'0:11.078',-1.1
'0:11.082',-1.34
'0:11.086',-1.42
'0:11.090',-1.58
'0:11.094',-1.78
'0:11.098',-1.97
'0:11.102',-1.98
'0:11.105',-1.84
'0:11.109',-1.67
'0:11.113',-1.42
'0:11.117',-1.13
'0:11.121',-0.77
'0:11.125',-0.5
'0:11.129',-0.23
'0:11.133',-0.06
'0:11.137',-0.07
'0:11.141',-0.1
'0:11.145',0.07
'0:11.148',0.38
'0:11.152',0.72
'0:11.156',0.99
'0:11.160',1.03
'0:11.164',0.92
'0:11.168',0.8
'0:11.172',0.43
'0:11.176',0.22
'0:11.180',-0.13
'0:11.184',-0.55
'0:11.188',-1.05
'0:11.191',-1.54
'0:11.195',-1.98
'0:11.199',-2.3
'0:11.203',-2.56
'0:11.207',-2.75
'0:11.211',-2.82
'0:11.215',-2.8
'0:11.219',-2.69
'0:11.223',-2.53
'0:11.227',-2.53
'0:11.230',-2.64
'0:11.234',-2.78
'0:11.238',-3.04
'0:11.242',-3.12
'0:11.246',-2.74
'0:11.250',-1.54
'0:11.254',0.47
'0:11.258',2.87
'0:11.262',5.11
'0:11.266',6.76
'0:11.270',7.48
'0:11.273',5.42
'0:11.277',-0.29
'0:11.281',-6.02
'0:11.285',-9.63
'0:11.289',-11.17
'0:11.293',-11.06
'0:11.297',-9.78
'0:11.301',-7.91
'0:11.305',-5.9
'0:11.309',-4.08
'0:11.313',-2.75
'0:11.316',-1.85
'0:11.320',-1.31
'0:11.324',-0.99
'0:11.328',-0.79
'0:11.332',-0.62
'0:11.336',-0.54
'0:11.340',-0.5
'0:11.344',-0.36
'0:11.348',-0.25
'0:11.352',-0.13
'0:11.355',-0.03
'0:11.359',-0.02
'0:11.363',0.01
'0:11.367',0.07
'0:11.371',0.18
'0:11.375',0.29
'0:11.379',0.32
'0:11.383',0.42
'0:11.387',0.62
'0:11.391',0.87
'0:11.395',1.21
'0:11.398',1.49
'0:11.402',1.62
'0:11.406',1.76
'0:11.410',2.06
'0:11.414',2.43
'0:11.418',2.84
'0:11.422',3.15
'0:11.426',3.37
'0:11.430',3.69
'0:11.434',4.02
'0:11.438',4.19
'0:11.441',4.09
'0:11.445',3.92
'0:11.449',3.72
'0:11.453',3.36
'0:11.457',2.86
'0:11.461',2.28
'0:11.465',1.74
'0:11.469',1.26
'0:11.473',0.72
'0:11.477',0.09
'0:11.480',-0.67
'0:11.484',-1.4
'0:11.488',-1.84
'0:11.492',-2.02
'0:11.496',-2.02
'0:11.500',-2.1
'0:11.504',-2.24
'0:11.508',-2.31
'0:11.512',-2.41
'0:11.516',-2.57
'0:11.520',-2.64
'0:11.523',-2.42
'0:11.527',-1.97
'0:11.531',-1.54
'0:11.535',-1.19
'0:11.539',-0.86
'0:11.543',-0.65
'0:11.547',-0.37
'0:11.551',-0.13
'0:11.555',0.03
'0:11.559',0.28
'0:11.563',0.39
'0:11.566',0.46
'0:11.570',0.44
'0:11.574',0.27
'0:11.578',0.2
'0:11.582',0.2
'0:11.586',0.18
'0:11.590',0.04
'0:11.594',-0.34
'0:11.598',-0.83
'0:11.602',-1.23
'0:11.605',-1.57
'0:11.609',-1.99
'0:11.613',-2.32
'0:11.617',-2.49
'0:11.621',-2.49
'0:11.625',-2.47
'0:11.629',-2.44
'0:11.633',-2.28
'0:11.637',-2.06
'0:11.641',-1.83
'0:11.645',-1.7
'0:11.648',-1.78
'0:11.652',-2.15
'0:11.656',-2.45
'0:11.660',-1.99
'0:11.664',-0.59
'0:11.668',1.67
'0:11.672',4.45
'0:11.676',6.37
'0:11.680',8.38
'0:11.684',8.38
'0:11.688',8.38
'0:11.691',0.2
'0:11.695',-6.02
'0:11.699',-7.35
'0:11.703',-9.47
'0:11.707',-9.63
'0:11.711',-8.61
'0:11.715',-6.87
'0:11.719',-4.9
'0:11.723',-3.2
'0:11.727',-1.99
'0:11.730',-1.23
'0:11.734',-0.82
'0:11.738',-0.6
'0:11.742',-0.45
'0:11.746',-0.29
'0:11.750',-0.18
'0:11.754',0.01
'0:11.758',0.16
'0:11.762',0.45
'0:11.766',0.7
'0:11.770',0.76
'0:11.773',0.66
'0:11.777',0.79
'0:11.781',0.98
'0:11.785',1
'0:11.789',0.9
'0:11.793',0.88
'0:11.797',0.98
'0:11.801',1.06
'0:11.805',1.15
'0:11.809',1.37
'0:11.813',1.68
'0:11.816',1.89
'0:11.820',2.02
'0:11.824',2.38
'0:11.828',2.46
'0:11.832',2.46
'0:11.836',2.47
'0:11.840',4.25
'0:11.844',4.44
'0:11.848',4.57
'0:11.852',4.51
'0:11.855',4.49
'0:11.859',4.48
'0:11.863',4.46
'0:11.867',4.21
'0:11.871',3.81
'0:11.875',3.48
'0:11.879',3.01
'0:11.883',2.4
'0:11.887',2.34
'0:11.891',2.34
'0:11.895',2.34
'0:11.898',2.34
'0:11.902',2.34
'0:11.906',-0.46
'0:11.910',-0.73
'0:11.914',-0.86
'0:11.918',-0.79
'0:11.922',-0.62
'0:11.926',-0.61
'0:11.930',-0.76
'0:11.934',-0.78
'0:11.938',-0.5
'0:11.941',-0.18
'0:11.945',0.06
'0:11.949',0.2
'0:11.953',0.3
'0:11.957',0.3
'0:11.961',0.3
'0:11.965',0.3
'0:11.969',0.3
'0:11.973',0.93
'0:11.977',0.98
'0:11.980',1.06
'0:11.984',1.28
'0:11.988',1.34
'0:11.992',1.32
'0:11.996',1.3
'0:12.000',1.1
'0:12.004',0.87
'0:12.008',0.56
'0:12.012',0.17
'0:12.016',-0.27
'0:12.020',-0.69
'0:12.023',-1.17
'0:12.027',-1.51
'0:12.031',-1.67
'0:12.035',-1.72
'0:12.039',-1.77
'0:12.043',-1.8
'0:12.047',-1.87
'0:12.051',-1.83
'0:12.055',-1.72
'0:12.059',-1.73
'0:12.063',-1.94
'0:12.066',-2.22
'0:12.070',-2.21
'0:12.074',-1.4
'0:12.078',0.13
'0:12.082',2.16
'0:12.086',4.38
'0:12.090',6.54
'0:12.094',8.39
'0:12.098',8.46
'0:12.102',4.74
'0:12.105',-0.61
'0:12.109',-5.16
'0:12.113',-8.07
'0:12.117',-9.06
'0:12.121',-8.41
'0:12.125',-6.85
'0:12.129',-5.09
'0:12.133',-3.54
'0:12.137',-2.44
'0:12.141',-1.73
'0:12.145',-1.34
'0:12.148',-1.09
'0:12.152',-0.82
'0:12.156',-0.52
'0:12.160',-0.23
'0:12.164',-0.1
'0:12.168',-0.05
'0:12.172',0.1
'0:12.176',0.17
'0:12.180',0.23
'0:12.184',0.4
'0:12.188',0.59
'0:12.191',0.73
'0:12.195',0.73
'0:12.199',0.73
'0:12.203',0.78
'0:12.207',0.87
'0:12.211',0.99
'0:12.215',1.18
'0:12.219',1.42
'0:12.223',1.66
'0:12.227',1.84
'0:12.230',2.01
'0:12.234',2.15
'0:12.238',2.25
'0:12.242',2.4
'0:12.246',2.68
'0:12.250',3.03
'0:12.254',3.42
'0:12.258',3.74
'0:12.262',3.83
'0:12.266',3.87
'0:12.270',3.92
'0:12.273',3.91
'0:12.277',3.69
'0:12.281',3.31
'0:12.285',2.79
'0:12.289',2.26
'0:12.293',1.79
'0:12.297',1.19
'0:12.301',0.5
'0:12.305',0.05
'0:12.309',-0.3
'0:12.313',-0.77
'0:12.316',-1.31
'0:12.320',-1.74
'0:12.324',-2.02
'0:12.328',-2.04
'0:12.332',-1.99
'0:12.336',-1.97
'0:12.340',-1.95
'0:12.344',-1.85
'0:12.348',-1.72
'0:12.352',-1.42
'0:12.355',-1.18
'0:12.359',-1.16
'0:12.363',-1.01
'0:12.367',-0.9
'0:12.371',-0.72
'0:12.375',-0.4
'0:12.379',-0.34
'0:12.383',-0.34
'0:12.387',0.13
'0:12.391',0.34
'0:12.395',0.47
'0:12.398',0.59
'0:12.402',0.53
'0:12.406',0.37
'0:12.410',0.19
'0:12.414',-0.2
'0:12.418',-0.24
'0:12.422',-0.24
'0:12.426',-0.24
'0:12.430',-0.24
'0:12.434',-0.24
'0:12.438',-0.23
'0:12.441',-0.24
'0:12.445',-0.24
'0:12.449',-1.2
'0:12.453',-2.74
'0:12.457',-2.66
'0:12.461',-2.46
'0:12.465',-2.21
'0:12.469',-2
'0:12.473',-2.2
'0:12.477',-2.77
'0:12.480',-3.02
'0:12.484',-3.02
'0:12.488',-3.02
'0:12.492',-3.02
'0:12.496',-3.02
'0:12.500',-3.02
'0:12.504',8.51
'0:12.508',8.75
'0:12.512',5.17
'0:12.516',-1.02
'0:12.520',-6.21
'0:12.523',-9.4
'0:12.527',-10.49
'0:12.531',-9.93
'0:12.535',-8.4
'0:12.539',-6.51
'0:12.543',-4.71
'0:12.547',-3.18
'0:12.551',-2
'0:12.555',-1.25
'0:12.559',-0.79
'0:12.563',-0.32
'0:12.566',0.06
'0:12.570',0.3
'0:12.574',0.44
'0:12.578',0.67
'0:12.582',0.93
'0:12.586',0.98
'0:12.590',0.93
'0:12.594',0.9
'0:12.598',1.01
'0:12.602',1.35
'0:12.605',1.61
'0:12.609',1.6
'0:12.613',1.56
'0:12.617',1.59
'0:12.621',1.66
'0:12.625',1.78
'0:12.629',1.85
'0:12.633',2.01
'0:12.637',2.23
'0:12.641',2.4
'0:12.645',2.62
'0:12.648',3.03
'0:12.652',3.34
'0:12.656',3.65
'0:12.660',3.93
'0:12.664',4.21
'0:12.668',4.47
'0:12.672',4.71
'0:12.676',4.83
'0:12.680',4.76
'0:12.684',4.67
'0:12.688',4.41
'0:12.691',4.1
'0:12.695',3.59
'0:12.699',3.08
'0:12.703',2.52
'0:12.707',1.84
'0:12.711',0.96
'0:12.715',0.28
'0:12.719',-0.22
'0:12.723',-0.55
'0:12.727',-0.72
'0:12.730',-0.82
'0:12.734',-0.82
'0:12.738',-0.75
'0:12.742',-0.63
'0:12.746',-0.63
'0:12.750',-0.63
'0:12.754',-0.63
'0:12.758',-0.63
'0:12.762',-0.63
'0:12.766',-0.63
'0:12.770',-0.63
'0:12.773',-0.62
'0:12.777',0.86
'0:12.781',0.77
'0:12.785',0.76
'0:12.789',0.85
'0:12.793',1.18
'0:12.797',1.43
'0:12.801',1.59
'0:12.805',1.55
'0:12.809',1.41
'0:12.813',1.34
'0:12.816',1.14
'0:12.820',1.04
'0:12.824',0.84
'0:12.828',0.45
'0:12.832',-0.11
'0:12.836',-0.61
'0:12.840',-1.03
'0:12.844',-1.36
'0:12.848',-1.48
'0:12.852',-1.49
'0:12.855',-1.53
'0:12.859',-1.58
'0:12.863',-1.58
'0:12.867',-1.6
'0:12.871',-1.5
'0:12.875',-1.24
'0:12.879',-1.14
'0:12.883',-1.32
'0:12.887',-1.5
'0:12.891',-1.39
'0:12.895',-0.46
'0:12.898',1.43
'0:12.902',3.96
'0:12.906',6.21
'0:12.910',7.78
'0:12.914',8.55
'0:12.918',6.7
'0:12.922',0.96
'0:12.926',-4.87
'0:12.930',-8.66
'0:12.934',-10.29
'0:12.938',-10.13
'0:12.941',-8.86
'0:12.945',-6.95
'0:12.949',-5
'0:12.953',-3.21
'0:12.957',-1.77
'0:12.961',-0.88
'0:12.965',-0.4
'0:12.969',0.01
'0:12.973',0.3
'0:12.977',0.65
'0:12.980',0.99
'0:12.984',1.22
'0:12.988',1.3
'0:12.992',1.23
'0:12.996',1.2
'0:13.000',1.22
'0:13.004',1.27
'0:13.008',1.48
'0:13.012',1.81
'0:13.016',2
'0:13.020',1.97
'0:13.023',1.83
'0:13.027',1.86
'0:13.031',1.9
'0:13.035',1.97
'0:13.039',2.05
'0:13.043',2.16
'0:13.047',2.42
'0:13.051',2.85
'0:13.055',3.18
'0:13.059',3.34
'0:13.063',3.49
'0:13.066',3.79
'0:13.070',4.07
'0:13.074',4.32
'0:13.078',4.49
'0:13.082',4.55
'0:13.086',4.48
'0:13.090',4.44
'0:13.094',4.41
'0:13.098',4.23
'0:13.102',3.85
'0:13.105',3.35
'0:13.109',2.78
'0:13.113',2.18
'0:13.117',1.5
'0:13.121',0.84
'0:13.125',0.35
'0:13.129',-0.18
'0:13.133',-0.88
'0:13.137',-1.48
'0:13.141',-1.8
'0:13.145',-1.93
'0:13.148',-1.95
'0:13.152',-1.85
'0:13.156',-1.73
'0:13.160',-1.61
'0:13.164',-1.43
'0:13.168',-1.23
'0:13.172',-1.13
'0:13.176',-0.94
'0:13.180',-0.72
'0:13.184',-0.58
'0:13.188',-0.47
'0:13.191',-0.26
'0:13.195',-0.01
'0:13.199',0.16
'0:13.203',0.54
'0:13.207',0.82
'0:13.211',1.06
'0:13.215',1.01
'0:13.219',0.75
'0:13.223',0.63
'0:13.227',0.51
'0:13.230',0.24
'0:13.234',-0.22
'0:13.238',-0.71
'0:13.242',-1.13
'0:13.246',-1.52
'0:13.250',-1.93
'0:13.254',-2.28
'0:13.258',-2.58
'0:13.262',-2.75
'0:13.266',-2.69
'0:13.270',-2.58
'0:13.273',-2.56
'0:13.277',-2.5
'0:13.281',-2.31
'0:13.285',-2.17
'0:13.289',-2.1
'0:13.293',-2.37
'0:13.297',-2.6
'0:13.301',-2.37
'0:13.305',-1.36
'0:13.309',0.42
'0:13.313',2.66
'0:13.316',5.06
'0:13.320',7.39
'0:13.324',9.37
'0:13.328',9.05
'0:13.332',4.25
'0:13.336',-2.1
'0:13.340',-7.05
'0:13.344',-9.75
'0:13.348',-10.37
'0:13.352',-9.66
'0:13.355',-8.24
'0:13.359',-6.52
'0:13.363',-4.71
'0:13.367',-3.21
'0:13.371',-2.19
'0:13.375',-1.49
'0:13.379',-1.03
'0:13.383',-0.79
'0:13.387',-0.6
'0:13.391',-0.43
'0:13.395',-0.14
'0:13.398',0.14
'0:13.402',0.43
'0:13.406',0.69
'0:13.410',0.76
'0:13.414',0.77
'0:13.418',0.88
'0:13.422',0.93
'0:13.426',0.86
'0:13.430',0.88
'0:13.434',0.96
'0:13.438',1.01
'0:13.441',1.23
'0:13.445',1.56
'0:13.449',1.88
'0:13.453',2.1
'0:13.457',2.34
'0:13.461',2.54
'0:13.465',2.67
'0:13.469',2.86
'0:13.473',3.08
'0:13.477',3.38
'0:13.480',3.74
'0:13.484',3.93
'0:13.488',4.1
'0:13.492',4.3
'0:13.496',4.37
'0:13.500',4.36
'0:13.504',4.36
'0:13.508',4.36
'0:13.512',4.36
'0:13.516',3.15
'0:13.520',2.83
'0:13.523',2.54
'0:13.527',1.52
'0:13.531',0.79
'0:13.535',0.42
'0:13.539',-0.17
'0:13.543',-0.31
'0:13.547',-0.64
'0:13.551',-1.14
'0:13.555',-1.53
'0:13.559',-1.68
'0:13.563',-1.61
'0:13.566',-1.56
'0:13.570',-1.51
'0:13.574',-1.44
'0:13.578',-1.28
'0:13.582',-1.04
'0:13.586',-0.94
'0:13.590',-0.72
'0:13.594',-0.48
'0:13.598',-0.31
'0:13.602',-0.31
'0:13.605',-0.12
'0:13.609',-0.03
'0:13.613',0.18
'0:13.617',0.29
'0:13.621',0.37
'0:13.625',0.34
'0:13.629',0.23
'0:13.633',0.1
'0:13.637',-0.07
'0:13.641',-0.35
'0:13.645',-0.7
'0:13.648',-1.03
'0:13.652',-1.46
'0:13.656',-1.89
'0:13.660',-2.13
'0:13.664',-2.51
'0:13.668',-2.92
'0:13.672',-3.1
'0:13.676',-3.08
'0:13.680',-3
'0:13.684',-2.8
'0:13.688',-2.53
'0:13.691',-2.51
'0:13.695',-2.65
'0:13.699',-2.84
'0:13.703',-3.23
'0:13.707',-3.42
'0:13.711',-2.99
'0:13.715',-1.53
'0:13.719',0.73
'0:13.723',3.51
'0:13.727',6.38
'0:13.730',8.85
'0:13.734',10.07
'0:13.738',7.45
'0:13.742',1.29
'0:13.746',-4.68
'0:13.750',-8.87
'0:13.754',-10.81
'0:13.758',-10.72
'0:13.762',-9.39
'0:13.766',-7.6
'0:13.770',-5.79
'0:13.773',-4.23
'0:13.777',-3.11
'0:13.781',-2.41
'0:13.785',-2.04
'0:13.789',-1.84
'0:13.793',-1.6
'0:13.797',-1.4
'0:13.801',-1.23
'0:13.805',-1.08
'0:13.809',-0.96
'0:13.813',-0.87
'0:13.816',-0.8
'0:13.820',-0.67
'0:13.824',-0.63
'0:13.828',-0.6
'0:13.832',-0.43
'0:13.836',-0.21
'0:13.840',-0.08
'0:13.844',-0.07
'0:13.848',-0.04
'0:13.852',0.05
'0:13.855',0.3
'0:13.859',0.47
'0:13.863',0.51
'0:13.867',0.51
'0:13.871',0.56
'0:13.875',0.77
'0:13.879',1.16
'0:13.883',1.61
'0:13.887',2.06
'0:13.891',2.47
'0:13.895',2.76
'0:13.898',2.94
'0:13.902',3.02
'0:13.906',3
'0:13.910',2.95
'0:13.914',2.8
'0:13.918',2.46
'0:13.922',2.14
'0:13.926',1.74
'0:13.930',1.19
'0:13.934',0.67
'0:13.938',0.02
'0:13.941',-0.69
'0:13.945',-1.36
'0:13.949',-2.1
'0:13.953',-2.69
'0:13.957',-2.95
'0:13.961',-2.95
'0:13.965',-2.84
'0:13.969',-2.69
'0:13.973',-2.53
'0:13.977',-2.46
'0:13.980',-2.33
'0:13.984',-2.05
'0:13.988',-1.79
'0:13.992',-1.66
'0:13.996',-1.68
'0:14.000',-1.5
'0:14.004',-1.21
'0:14.008',-1
'0:14.012',-0.93
'0:14.016',-0.85
'0:14.020',-0.84
'0:14.023',-0.87
'0:14.027',-0.89
'0:14.031',-0.75
'0:14.035',-0.58
'0:14.039',-0.47
'0:14.043',-0.51
'0:14.047',-0.63
'0:14.051',-0.75
'0:14.055',-1.08
'0:14.059',-1.58
'0:14.063',-2.03
'0:14.066',-2.46
'0:14.070',-2.92
'0:14.074',-3.28
'0:14.078',-3.51
'0:14.082',-3.49
'0:14.086',-3.31
'0:14.090',-3.19
'0:14.094',-3.19
'0:14.098',-3.24
'0:14.102',-3.21
'0:14.105',-3.03
'0:14.109',-3.18
'0:14.113',-3.48
'0:14.117',-3.56
'0:14.121',-2.77
'0:14.125',-1.05
'0:14.129',1.23
'0:14.133',3.91
'0:14.137',6.57
'0:14.141',9.04
'0:14.145',10.08
'0:14.148',7.01
'0:14.152',1.11
'0:14.156',-4.36
'0:14.160',-8.23
'0:14.164',-9.92
'0:14.168',-9.81
'0:14.172',-8.57
'0:14.176',-6.83
'0:14.180',-5.17
'0:14.184',-3.78
'0:14.188',-2.69
'0:14.191',-2.04
'0:14.195',-1.62
'0:14.199',-1.23
'0:14.203',-0.81
'0:14.207',-0.6
'0:14.211',-0.45
'0:14.215',-0.35
'0:14.219',-0.29
'0:14.223',-0.32
'0:14.227',-0.36
'0:14.230',-0.32
'0:14.234',-0.14
'0:14.238',0.05
'0:14.242',0.19
'0:14.246',0.54
'0:14.250',0.84
'0:14.254',0.99
'0:14.258',1.24
'0:14.262',1.5
'0:14.266',1.64
'0:14.270',1.85
'0:14.273',1.88
'0:14.277',1.76
'0:14.281',1.81
'0:14.285',2.13
'0:14.289',2.5
'0:14.293',2.97
'0:14.297',3.52
'0:14.301',3.83
'0:14.305',3.9
'0:14.309',4.07
'0:14.313',4.29
'0:14.316',4.26
'0:14.320',4.29
'0:14.324',4.3
'0:14.328',4.19
'0:14.332',3.89
'0:14.336',3.4
'0:14.340',2.84
'0:14.344',2.16
'0:14.348',1.45
'0:14.352',0.9
'0:14.355',0.45
'0:14.359',0.14
'0:14.363',-0.16
'0:14.367',-0.39
'0:14.371',-0.57
'0:14.375',-0.63
'0:14.379',-0.55
'0:14.383',-0.41
'0:14.387',-0.39
'0:14.391',-0.41
'0:14.395',-0.33
'0:14.398',-0.09
'0:14.402',0.16
'0:14.406',0.3
'0:14.410',0.35
'0:14.414',0.42
'0:14.418',0.59
'0:14.422',0.8
'0:14.426',0.93
'0:14.430',0.97
'0:14.434',1.11
'0:14.438',1.16
'0:14.441',1.22
'0:14.445',1.15
'0:14.449',0.97
'0:14.453',0.74
'0:14.457',0.64
'0:14.461',0.62
'0:14.465',0.49
'0:14.469',0.19
'0:14.473',-0.22
'0:14.477',-0.74
'0:14.480',-1.17
'0:14.484',-1.62
'0:14.488',-2
'0:14.492',-2.19
'0:14.496',-2.16
'0:14.500',-2.06
'0:14.504',-2.04
'0:14.508',-2.02
'0:14.512',-1.99
'0:14.516',-2.08
'0:14.520',-2.22
'0:14.523',-2.36
'0:14.527',-2.23
'0:14.531',-1.5
'0:14.535',-0.13
'0:14.539',1.92
'0:14.543',4.36
'0:14.547',6.79
'0:14.551',8.76
'0:14.555',8.81
'0:14.559',4.77
'0:14.563',-1.25
'0:14.566',-6.28
'0:14.570',-9.33
'0:14.574',-10.18
'0:14.578',-9.24
'0:14.582',-7.59
'0:14.586',-5.79
'0:14.590',-4
'0:14.594',-2.56
'0:14.598',-1.56
'0:14.602',-0.94
'0:14.605',-0.52
'0:14.609',-0.21
'0:14.613',0.14
'0:14.617',0.35
'0:14.621',0.27
'0:14.625',0.33
'0:14.629',0.34
'0:14.633',0.49
'0:14.637',0.81
'0:14.641',0.96
'0:14.645',1
'0:14.648',1.06
'0:14.652',1.32
'0:14.656',1.48
'0:14.660',1.58
'0:14.664',1.68
'0:14.668',1.79
'0:14.672',1.86
'0:14.676',1.86
'0:14.680',2.01
'0:14.684',2.25
'0:14.688',2.44
'0:14.691',2.72
'0:14.695',3.13
'0:14.699',3.5
'0:14.703',3.82
'0:14.707',4.03
'0:14.711',4.25
'0:14.715',4.44
'0:14.719',4.57
'0:14.723',4.69
'0:14.727',4.85
'0:14.730',4.7
'0:14.734',4.3
'0:14.738',3.78
'0:14.742',3.13
'0:14.746',2.59
'0:14.750',2.08
'0:14.754',1.49
'0:14.758',0.78
'0:14.762',0.05
'0:14.766',-0.62
'0:14.770',-1.18
'0:14.773',-1.53
'0:14.777',-1.78
'0:14.781',-1.92
'0:14.785',-1.99
'0:14.789',-1.82
'0:14.793',-1.61
'0:14.797',-1.51
'0:14.801',-1.46
'0:14.805',-1.23
'0:14.809',-0.88
'0:14.813',-0.67
'0:14.816',-0.86
'0:14.820',-1.08
'0:14.824',-1.01
'0:14.828',-0.62
'0:14.832',-0.16
'0:14.836',-0.06
'0:14.840',-0.09
'0:14.844',-0.05
'0:14.848',0.07
'0:14.852',0.13
'0:14.855',0
'0:14.859',-0.27
'0:14.863',-0.5
'0:14.867',-0.78
'0:14.871',-0.98
'0:14.875',-1.35
'0:14.879',-1.79
'0:14.883',-2.34
'0:14.887',-2.63
'0:14.891',-2.75
'0:14.895',-2.68
'0:14.898',-2.69
'0:14.902',-2.79
'0:14.906',-2.84
'0:14.910',-2.67
'0:14.914',-2.68
'0:14.918',-2.68
'0:14.922',-2.68
'0:14.926',-2.66
'0:14.930',-2.83
'0:14.934',-2.88
'0:14.938',-2.11
'0:14.941',-0.51
'0:14.945',1.54
'0:14.949',3.74
'0:14.953',5.81
'0:14.957',7.47
'0:14.961',7.46
'0:14.965',3.23
'0:14.969',-3.05
'0:14.973',-7.84
'0:14.977',-10.21
'0:14.980',-10.68
'0:14.984',-9.72
'0:14.988',-7.97
'0:14.992',-5.76
'0:14.996',-3.91
'0:15.000',-2.43
'0:15.004',-1.21
'0:15.008',-0.45
'0:15.012',-0.04
'0:15.016',0.26
'0:15.020',0.58
'0:15.023',0.86
'0:15.027',0.89
'0:15.031',0.8
'0:15.035',0.83
'0:15.039',1.03
'0:15.043',1.1
'0:15.047',1.1
'0:15.051',1.23
'0:15.055',1.47
'0:15.059',1.54
'0:15.063',1.35
'0:15.066',1.4
'0:15.070',1.65
'0:15.074',1.95
'0:15.078',2.12
'0:15.082',2.23
'0:15.086',2.36
'0:15.090',2.3
'0:15.094',2.3
'0:15.098',2.47
'0:15.102',2.76
'0:15.105',3.19
'0:15.109',3.47
'0:15.113',3.77
'0:15.117',4
'0:15.121',4.36
'0:15.125',4.54
'0:15.129',4.58
'0:15.133',4.66
'0:15.137',4.71
'0:15.141',4.45
'0:15.145',4.08
'0:15.148',3.73
'0:15.152',3.09
'0:15.156',2.21
'0:15.160',1.44
'0:15.164',0.72
'0:15.168',0.09
'0:15.172',-0.47
'0:15.176',-0.97
'0:15.180',-1.34
'0:15.184',-1.41
'0:15.188',-1.45
'0:15.191',-1.59
'0:15.195',-1.63
'0:15.199',-1.65
'0:15.203',-1.47
'0:15.207',-1
'0:15.211',-0.63
'0:15.215',-0.66
'0:15.219',-0.67
'0:15.223',-0.43
'0:15.227',-0.23
'0:15.230',-0.08
'0:15.234',0.06
'0:15.238',0.16
'0:15.242',0.27
'0:15.246',0.32
'0:15.250',0.32
'0:15.254',0.39
'0:15.258',0.48
'0:15.262',0.54
'0:15.266',0.45
'0:15.270',0.32
'0:15.273',0.04
'0:15.277',-0.28
'0:15.281',-0.64
'0:15.285',-1.07
'0:15.289',-1.57
'0:15.293',-1.98
'0:15.297',-2.24
'0:15.301',-2.37
'0:15.305',-2.36
'0:15.309',-2.25
'0:15.313',-2.16
'0:15.316',-2.14
'0:15.320',-2.12
'0:15.324',-2.1
'0:15.328',-2.15
'0:15.332',-2.29
'0:15.336',-2.46
'0:15.340',-2.3
'0:15.344',-1.46
'0:15.348',0.14
'0:15.352',2.4
'0:15.355',4.9
'0:15.359',6.89
'0:15.363',8.08
'0:15.367',7.18
'0:15.371',2.17
'0:15.375',-3.94
'0:15.379',-8.45
'0:15.383',-10.87
'0:15.387',-11.31
'0:15.391',-10.37
'0:15.395',-8.63
'0:15.398',-6.59
'0:15.402',-4.61
'0:15.406',-3.13
'0:15.410',-2.19
'0:15.414',-1.55
'0:15.418',-1.01
'0:15.422',-0.65
'0:15.426',-0.55
'0:15.430',-0.48
'0:15.434',-0.25
'0:15.438',-0.01
'0:15.441',0.05
'0:15.445',0.09
'0:15.449',0.23
'0:15.453',0.4
'0:15.457',0.66
'0:15.461',0.67
'0:15.465',0.62
'0:15.469',0.59
'0:15.473',0.65
'0:15.477',0.78
'0:15.480',0.84
'0:15.484',0.9
'0:15.488',1.03
'0:15.492',1.23
'0:15.496',1.45
'0:15.500',1.69
'0:15.504',2.01
'0:15.508',2.36
'0:15.512',2.77
'0:15.516',3.18
'0:15.520',3.54
'0:15.523',3.68
'0:15.527',3.69
'0:15.531',3.81
'0:15.535',4.1
'0:15.539',4.24
'0:15.543',4.11
'0:15.547',3.84
'0:15.551',3.48
'0:15.555',2.93
'0:15.559',2.1
'0:15.563',1.42
'0:15.566',0.74
'0:15.570',0.11
'0:15.574',-0.45
'0:15.578',-0.94
'0:15.582',-1.35
'0:15.586',-1.63
'0:15.590',-1.7
'0:15.594',-1.69
'0:15.598',-1.75
'0:15.602',-1.9
'0:15.605',-1.95
'0:15.609',-2.01
'0:15.613',-2.01
'0:15.617',-1.79
'0:15.621',-1.63
'0:15.625',-1.63
'0:15.629',-1.42
'0:15.633',-0.99
'0:15.637',-0.73
'0:15.641',-0.75
'0:15.645',-0.74
'0:15.648',-0.54
'0:15.652',-0.26
'0:15.656',-0.08
'0:15.660',-0.08
'0:15.664',-0.17
'0:15.668',-0.21
'0:15.672',-0.18
'0:15.676',-0.2
'0:15.680',-0.45
'0:15.684',-0.79
'0:15.688',-1.25
'0:15.691',-1.51
'0:15.695',-1.51
'0:15.699',-1.5
'0:15.703',-1.51
'0:15.707',-1.51
'0:15.711',-1.5
'0:15.715',-2.93
'0:15.719',-3.16
'0:15.723',-2.88
'0:15.727',-2.6
'0:15.730',-2.46
'0:15.734',-2.59
'0:15.738',-2.86
'0:15.742',-3.24
'0:15.746',-3.2
'0:15.750',-2.42
'0:15.754',-0.94
'0:15.758',1.16
'0:15.762',3.89
'0:15.766',6.66
'0:15.770',9.15
'0:15.773',10.25
'0:15.777',7.49
'0:15.781',1.49
'0:15.785',-4.03
'0:15.789',-7.74
'0:15.793',-9.34
'0:15.797',-9.23
'0:15.801',-8.33
'0:15.805',-6.88
'0:15.809',-5.16
'0:15.813',-3.68
'0:15.816',-2.57
'0:15.820',-1.87
'0:15.824',-1.39
'0:15.828',-0.91
'0:15.832',-0.62
'0:15.836',-0.56
'0:15.840',-0.55
'0:15.844',-0.56
'0:15.848',-0.48
'0:15.852',-0.21
'0:15.855',0.16
'0:15.859',0.55
'0:15.863',0.84
'0:15.867',0.97
'0:15.871',0.96
'0:15.875',0.78
'0:15.879',0.64
'0:15.883',0.67
'0:15.887',0.87
'0:15.891',1.11
'0:15.895',1.19
'0:15.898',1.31
'0:15.902',1.44
'0:15.906',1.52
'0:15.910',1.73
'0:15.914',1.98
'0:15.918',2.21
'0:15.922',2.5
'0:15.926',2.87
'0:15.930',3.15
'0:15.934',3.39
'0:15.938',3.57
'0:15.941',3.69
'0:15.945',3.75
'0:15.949',3.73
'0:15.953',3.73
'0:15.957',3.46
'0:15.961',3.14
'0:15.965',2.76
'0:15.969',2.33
'0:15.973',1.66
'0:15.977',1.03
'0:15.980',0.61
'0:15.984',0.26
'0:15.988',-0.15
'0:15.992',-0.49
'0:15.996',-0.67
'0:16.000',-0.77
'0:16.004',-0.97
'0:16.008',-1.04
'0:16.012',-0.94
'0:16.016',-0.7
'0:16.020',-0.57
'0:16.023',-0.4
'0:16.027',-0.31
'0:16.031',-0.34
'0:16.035',-0.35
'0:16.039',-0.21
'0:16.043',-0.06
'0:16.047',0.12
'0:16.051',0.42
'0:16.055',0.56
'0:16.059',0.58
'0:16.063',0.66
'0:16.066',0.72
'0:16.070',0.82
'0:16.074',0.75
'0:16.078',0.69
'0:16.082',0.56
'0:16.086',0.25
'0:16.090',0.02
'0:16.094',-0.17
'0:16.098',-0.32
'0:16.102',-0.54
'0:16.105',-0.92
'0:16.109',-1.13
'0:16.113',-1.48
'0:16.117',-1.73
'0:16.121',-1.85
'0:16.125',-1.81
'0:16.129',-1.75
'0:16.133',-1.82
'0:16.137',-1.85
'0:16.141',-1.76
'0:16.145',-1.83
'0:16.148',-2.02
'0:16.152',-2.42
'0:16.156',-2.42
'0:16.160',-1.59
'0:16.164',-0.13
'0:16.168',1.92
'0:16.172',4.52
'0:16.176',7.13
'0:16.180',9.12
'0:16.184',8.88
'0:16.188',4.71
'0:16.191',-0.98
'0:16.195',-5.7
'0:16.199',-8.71
'0:16.203',-9.71
'0:16.207',-9.07
'0:16.211',-7.56
'0:16.215',-5.71
'0:16.219',-4.12
'0:16.223',-2.98
'0:16.227',-2.24
'0:16.230',-1.81
'0:16.234',-1.57
'0:16.238',-1.4
'0:16.242',-1.2
'0:16.246',-0.92
'0:16.250',-0.67
'0:16.254',-0.44
'0:16.258',-0.41
'0:16.262',-0.41
'0:16.266',-0.35
'0:16.270',-0.25
'0:16.273',-0.16
'0:16.277',-0.05
'0:16.281',-0.02
'0:16.285',-0.09
'0:16.289',-0.08
'0:16.293',-0.12
'0:16.297',0.01
'0:16.301',0.16
'0:16.305',0.35
'0:16.309',0.57
'0:16.313',0.72
'0:16.316',1.05
'0:16.320',1.48
'0:16.324',1.89
'0:16.328',2.23
'0:16.332',2.54
'0:16.336',2.84
'0:16.340',3.12
'0:16.344',3.28
'0:16.348',3.27
'0:16.352',3.4
'0:16.355',3.58
'0:16.359',3.41
'0:16.363',3.09
'0:16.367',2.71
'0:16.371',2.4
'0:16.375',1.98
'0:16.379',1.44
'0:16.383',0.83
'0:16.387',0.14
'0:16.391',-0.43
'0:16.395',-0.86
'0:16.398',-1.23
'0:16.402',-1.7
'0:16.406',-2.03
'0:16.410',-2.09
'0:16.414',-2.03
'0:16.418',-1.94
'0:16.422',-1.89
'0:16.426',-1.84
'0:16.430',-1.82
'0:16.434',-1.77
'0:16.438',-1.6
'0:16.441',-1.38
'0:16.445',-1.25
'0:16.449',-1.18
'0:16.453',-0.99
'0:16.457',-0.67
'0:16.461',-0.32
'0:16.465',-0.11
'0:16.469',0.07
'0:16.473',0.26
'0:16.477',0.22
'0:16.480',-0.02
'0:16.484',-0.12
'0:16.488',-0.05
'0:16.492',0.03
'0:16.496',-0.09
'0:16.500',-0.51
'0:16.504',-1
'0:16.508',-1.4
'0:16.512',-1.81
'0:16.516',-2.23
'0:16.520',-2.43
'0:16.523',-2.41
'0:16.527',-2.29
'0:16.531',-2.21
'0:16.535',-2.28
'0:16.539',-2.22
'0:16.543',-1.98
'0:16.547',-1.75
'0:16.551',-1.53
'0:16.555',-1.7
'0:16.559',-2.26
'0:16.563',-2.65
'0:16.566',-2.32
'0:16.570',-0.81
'0:16.574',1.35
'0:16.578',3.95
'0:16.582',6.34
'0:16.586',8.23
'0:16.590',9.09
'0:16.594',6.27
'0:16.598',0.33
'0:16.602',-5.11
'0:16.605',-8.57
'0:16.609',-9.73
'0:16.613',-9.12
'0:16.617',-7.54
'0:16.621',-5.6
'0:16.625',-3.6
'0:16.629',-2.11
'0:16.633',-1.02
'0:16.637',-0.34
'0:16.641',0.37
'0:16.645',1.12
'0:16.648',1.57
'0:16.652',1.79
'0:16.656',1.93
'0:16.660',1.95
'0:16.664',2.11
'0:16.668',2.23
'0:16.672',2.26
'0:16.676',2.17
'0:16.680',2.23
'0:16.684',2.36
'0:16.688',2.44
'0:16.691',2.34
'0:16.695',2.35
'0:16.699',2.57
'0:16.703',2.86
'0:16.707',3.02
'0:16.711',3.08
'0:16.715',3.18
'0:16.719',3.33
'0:16.723',3.5
'0:16.727',3.82
'0:16.730',4.25
'0:16.734',4.7
'0:16.738',5.11
'0:16.742',5.44
'0:16.746',5.74
'0:16.750',5.76
'0:16.754',6
'0:16.758',6.17
'0:16.762',6.11
'0:16.766',5.94
'0:16.770',5.61
'0:16.773',5.08
'0:16.777',4.54
'0:16.781',3.95
'0:16.785',3.34
'0:16.789',2.96
'0:16.793',2.46
'0:16.797',1.57
'0:16.801',0.6
'0:16.805',-0.04
'0:16.809',-0.32
'0:16.813',-0.31
'0:16.816',-0.34
'0:16.820',-0.76
'0:16.824',-1.02
'0:16.828',-0.87
'0:16.832',-0.52
'0:16.836',-0.12
'0:16.840',0.16
'0:16.844',0.22
'0:16.848',0.2
'0:16.852',0.25
'0:16.855',0.13
'0:16.859',0.23
'0:16.863',0.64
'0:16.867',1.03
'0:16.871',1.18
'0:16.875',1.35
'0:16.879',1.34
'0:16.883',1.29
'0:16.887',1.14
'0:16.891',1.11
'0:16.895',1.23
'0:16.898',1.49
'0:16.902',1.42
'0:16.906',0.85
'0:16.910',0
'0:16.914',-0.65
'0:16.918',-1.02
'0:16.922',-1.17
'0:16.926',-1.31
'0:16.930',-1.38
'0:16.934',-1.47
'0:16.938',-1.68
'0:16.941',-1.93
'0:16.945',-1.84
'0:16.949',-1.77
'0:16.953',-1.74
'0:16.957',-1.57
'0:16.961',-1.48
'0:16.965',-1.63
'0:16.969',-1.63
'0:16.973',-1.12
'0:16.977',0.04
'0:16.980',2.12
'0:16.984',4.7
'0:16.988',7.05
'0:16.992',8.87
'0:16.996',9.08
'0:17.000',5.34
'0:17.004',-1.18
'0:17.008',-6.65
'0:17.012',-9.73
'0:17.016',-10.9
'0:17.020',-10.4
'0:17.023',-8.74
'0:17.027',-6.67
'0:17.031',-4.84
'0:17.035',-3.4
'0:17.039',-2.28
'0:17.043',-1.49
'0:17.047',-0.83
'0:17.051',-0.22
'0:17.055',0.03
'0:17.059',0.13
'0:17.063',0.2
'0:17.066',0.45
'0:17.070',0.69
'0:17.074',0.81
'0:17.078',0.83
'0:17.082',0.76
'0:17.086',0.73
'0:17.090',0.76
'0:17.094',0.91
'0:17.098',1.14
'0:17.102',1.39
'0:17.105',1.44
'0:17.109',1.53
'0:17.113',1.58
'0:17.117',1.66
'0:17.121',1.85
'0:17.125',1.9
'0:17.129',1.91
'0:17.133',2.02
'0:17.137',2.31
'0:17.141',2.67
'0:17.145',3.08
'0:17.148',3.29
'0:17.152',3.43
'0:17.156',3.65
'0:17.160',3.87
'0:17.164',3.97
'0:17.168',3.96
'0:17.172',3.88
'0:17.176',3.77
'0:17.180',3.37
'0:17.184',2.85
'0:17.188',2.24
'0:17.191',1.64
'0:17.195',0.95
'0:17.199',0.15
'0:17.203',-0.59
'0:17.207',-1.18
'0:17.211',-1.5
'0:17.215',-1.6
'0:17.219',-1.68
'0:17.223',-1.88
'0:17.227',-2.18
'0:17.230',-2.35
'0:17.234',-2.3
'0:17.238',-2.14
'0:17.242',-2.03
'0:17.246',-1.95
'0:17.250',-1.8
'0:17.254',-1.53
'0:17.258',-1.34
'0:17.262',-1.32
'0:17.266',-1.45
'0:17.270',-1.67
'0:17.273',-1.72
'0:17.277',-1.37
'0:17.281',-0.9
'0:17.285',-0.5
'0:17.289',-0.28
'0:17.293',-0.11
'0:17.297',-0.04
'0:17.301',-0.09
'0:17.305',-0.21
'0:17.309',-0.32
'0:17.313',-0.46
'0:17.316',-0.46
'0:17.320',-0.46
'0:17.324',-1.84
'0:17.328',-2.36
'0:17.332',-2.71
'0:17.336',-2.82
'0:17.340',-2.76
'0:17.344',-2.73
'0:17.348',-2.7
'0:17.352',-2.59
'0:17.355',-2.53
'0:17.359',-2.48
'0:17.363',-2.46
'0:17.367',-2.73
'0:17.371',-2.98
'0:17.375',-2.98
'0:17.379',-2.54
'0:17.383',-1.15
'0:17.387',1.03
'0:17.391',3.77
'0:17.395',6.4
'0:17.398',8.45
'0:17.402',9.54
'0:17.406',7.28
'0:17.410',1.5
'0:17.414',-4.35
'0:17.418',-8.43
'0:17.422',-10.35
'0:17.426',-10.3
'0:17.430',-8.97
'0:17.434',-7.19
'0:17.438',-5.52
'0:17.441',-4.11
'0:17.445',-2.83
'0:17.449',-1.85
'0:17.453',-1.24
'0:17.457',-0.86
'0:17.461',-0.55
'0:17.465',-0.38
'0:17.469',-0.17
'0:17.473',0.01
'0:17.477',0.05
'0:17.480',-0.04
'0:17.484',-0.14
'0:17.488',-0.15
'0:17.492',0.07
'0:17.496',0.3
'0:17.500',0.32
'0:17.504',0.45
'0:17.508',0.56
'0:17.512',0.54
'0:17.516',0.6
'0:17.520',0.69
'0:17.523',0.78
'0:17.527',0.91
'0:17.531',1.08
'0:17.535',1.34
'0:17.539',1.64
'0:17.543',1.87
'0:17.547',2.26
'0:17.551',2.52
'0:17.555',2.93
'0:17.559',3.38
'0:17.563',3.65
'0:17.566',3.71
'0:17.570',3.65
'0:17.574',3.5
'0:17.578',3.48
'0:17.582',3.6
'0:17.586',3.59
'0:17.590',3.26
'0:17.594',2.76
'0:17.598',2.21
'0:17.602',1.65
'0:17.605',1.04
'0:17.609',0.33
'0:17.613',-0.22
'0:17.617',-0.54
'0:17.621',-0.68
'0:17.625',-0.68
'0:17.629',-0.74
'0:17.633',-0.95
'0:17.637',-1.04
'0:17.641',-1.02
'0:17.645',-0.89
'0:17.648',-0.8
'0:17.652',-0.67
'0:17.656',-0.43
'0:17.660',-0.22
'0:17.664',-0.09
'0:17.668',-0.04
'0:17.672',-0.07
'0:17.676',-0.18
'0:17.680',-0.21
'0:17.684',0.01
'0:17.688',0.23
'0:17.691',0.37
'0:17.695',0.35
'0:17.699',0.41
'0:17.703',0.52
'0:17.707',0.62
'0:17.711',0.59
'0:17.715',0.49
'0:17.719',0.42
'0:17.723',0.2
'0:17.727',-0.14
'0:17.730',-0.45
'0:17.734',-0.81
'0:17.738',-1.2
'0:17.742',-1.42
'0:17.746',-1.48
'0:17.750',-1.59
'0:17.754',-1.81
'0:17.758',-1.93
'0:17.762',-1.97
'0:17.766',-1.97
'0:17.770',-1.94
'0:17.773',-1.95
'0:17.777',-2.25
'0:17.781',-2.57
'0:17.785',-2.72
'0:17.789',-2.18
'0:17.793',-0.88
'0:17.797',1.01
'0:17.801',3.31
'0:17.805',5.67
'0:17.809',7.77
'0:17.813',8.55
'0:17.816',6.09
'0:17.820',0.67
'0:17.824',-4.53
'0:17.828',-8.11
'0:17.832',-9.62
'0:17.836',-9.4
'0:17.840',-8.18
'0:17.844',-6.6
'0:17.848',-4.95
'0:17.852',-3.56
'0:17.855',-2.49
'0:17.859',-1.79
'0:17.863',-1.44
'0:17.867',-1.25
'0:17.871',-1.12
'0:17.875',-0.91
'0:17.879',-0.72
'0:17.883',-0.61
'0:17.887',-0.47
'0:17.891',-0.3
'0:17.895',-0.18
'0:17.898',-0.12
'0:17.902',-0.05
'0:17.906',0.14
'0:17.910',0.33
'0:17.914',0.5
'0:17.918',0.6
'0:17.922',0.67
'0:17.926',0.77
'0:17.930',0.91
'0:17.934',1.16
'0:17.938',1.29
'0:17.941',1.32
'0:17.945',1.45
'0:17.949',1.61
'0:17.953',1.79
'0:17.957',2.08
'0:17.961',2.4
'0:17.965',2.58
'0:17.969',2.79
'0:17.973',3.12
'0:17.977',3.39
'0:17.980',3.56
'0:17.984',3.61
'0:17.988',3.46
'0:17.992',3.13
'0:17.996',2.73
'0:18.000',2.3
'0:18.004',1.83
'0:18.008',1.32
'0:18.012',0.81
'0:18.016',0.2
'0:18.020',-0.41
'0:18.023',-0.89
'0:18.027',-1.41
'0:18.031',-1.91
'0:18.035',-2.17
'0:18.039',-2.34
'0:18.043',-2.52
'0:18.047',-2.56
'0:18.051',-2.51
'0:18.055',-2.41
'0:18.059',-2.3
'0:18.063',-2.15
'0:18.066',-2.03
'0:18.070',-1.8
'0:18.074',-1.55
'0:18.078',-1.33
'0:18.082',-1.22
'0:18.086',-1.12
'0:18.090',-1.03
'0:18.094',-0.91
'0:18.098',-0.77
'0:18.102',-0.71
'0:18.105',-0.77
'0:18.109',-0.68
'0:18.113',-0.56
'0:18.117',-0.43
'0:18.121',-0.42
'0:18.125',-0.52
'0:18.129',-0.82
'0:18.133',-1.28
'0:18.137',-1.74
'0:18.141',-2.15
'0:18.145',-2.43
'0:18.148',-2.58
'0:18.152',-2.78
'0:18.156',-2.93
'0:18.160',-3.05
'0:18.164',-3.14
'0:18.168',-3.13
'0:18.172',-2.94
'0:18.176',-2.87
'0:18.180',-2.93
'0:18.184',-3.04
'0:18.188',-3.09
'0:18.191',-3.2
'0:18.195',-3.2
'0:18.199',-2.82
'0:18.203',-1.84
'0:18.207',-0.22
'0:18.211',2.11
'0:18.215',4.5
'0:18.219',6.61
'0:18.223',8
'0:18.227',6.43
'0:18.230',1.05
'0:18.234',-4.64
'0:18.238',-8.59
'0:18.242',-10.47
'0:18.246',-10.39
'0:18.250',-9.25
'0:18.254',-7.47
'0:18.258',-5.42
'0:18.262',-3.51
'0:18.266',-2.03
'0:18.270',-1.04
'0:18.273',-0.31
'0:18.277',0.14
'0:18.281',0.46
'0:18.285',0.62
'0:18.289',0.69
'0:18.293',0.59
'0:18.297',0.65
'0:18.301',0.83
'0:18.305',1.12
'0:18.309',1.29
'0:18.313',1.38
'0:18.316',1.53
'0:18.320',1.71
'0:18.324',1.84
'0:18.328',1.87
'0:18.332',1.66
'0:18.336',1.67
'0:18.340',1.96
'0:18.344',2.25
'0:18.348',2.29
'0:18.352',2.28
'0:18.355',2.47
'0:18.359',2.85
'0:18.363',3.26
'0:18.367',3.55
'0:18.371',3.95
'0:18.375',4.42
'0:18.379',4.69
'0:18.383',4.89
'0:18.387',4.97
'0:18.391',4.99
'0:18.395',5.11
'0:18.398',5.22
'0:18.402',5.16
'0:18.406',4.9
'0:18.410',4.55
'0:18.414',4.12
'0:18.418',3.48
'0:18.422',2.69
'0:18.426',1.97
'0:18.430',1.08
'0:18.434',0.25
'0:18.438',-0.3
'0:18.441',-0.62
'0:18.445',-0.9
'0:18.449',-0.98
'0:18.453',-1.09
'0:18.457',-1.07
'0:18.461',-1.02
'0:18.465',-1
'0:18.469',-0.86
'0:18.473',-0.79
'0:18.477',-0.54
'0:18.480',-0.33
'0:18.484',-0.26
'0:18.488',-0.23
'0:18.492',-0.06
'0:18.496',0.21
'0:18.500',0.52
'0:18.504',0.8
'0:18.508',0.95
'0:18.512',0.87
'0:18.516',0.78
'0:18.520',0.96
'0:18.523',1.03
'0:18.527',1
'0:18.531',0.97
'0:18.535',0.7
'0:18.539',0.13
'0:18.543',-0.27
'0:18.547',-0.38
'0:18.551',-0.47
'0:18.555',-0.85
'0:18.559',-1.46
'0:18.563',-1.72
'0:18.566',-1.66
'0:18.570',-1.75
'0:18.574',-1.87
'0:18.578',-1.93
'0:18.582',-1.97
'0:18.586',-1.9
'0:18.590',-2.05
'0:18.594',-2.41
'0:18.598',-2.51
'0:18.602',-2.04
'0:18.605',-1.05
'0:18.609',0.59
'0:18.613',2.91
'0:18.617',5.27
'0:18.621',7.05
'0:18.625',7.97
'0:18.629',6.65
'0:18.633',1.43
'0:18.637',-4.36
'0:18.641',-8.45
'0:18.645',-10.51
'0:18.648',-10.71
'0:18.652',-9.58
'0:18.656',-7.9
'0:18.660',-5.81
'0:18.664',-3.85
'0:18.668',-2.34
'0:18.672',-1.33
'0:18.676',-0.65
'0:18.680',-0.17
'0:18.684',0.11
'0:18.688',0.29
'0:18.691',0.58
'0:18.695',0.72
'0:18.699',0.82
'0:18.703',1.01
'0:18.707',1.17
'0:18.711',1.07
'0:18.715',0.87
'0:18.719',0.78
'0:18.723',0.86
'0:18.727',1.01
'0:18.730',1.07
'0:18.734',1.2
'0:18.738',1.25
'0:18.742',1.27
'0:18.746',1.33
'0:18.750',1.52
'0:18.754',1.84
'0:18.758',2.22
'0:18.762',2.27
'0:18.766',2.23
'0:18.770',2.39
'0:18.773',2.85
'0:18.777',3.49
'0:18.781',3.99
'0:18.785',4.12
'0:18.789',4.1
'0:18.793',4.16
'0:18.797',4.2
'0:18.801',4.11
'0:18.805',3.88
'0:18.809',3.6
'0:18.813',3.25
'0:18.816',2.9
'0:18.820',2.42
'0:18.824',1.72
'0:18.828',0.98
'0:18.832',0.4
'0:18.836',-0.07
'0:18.840',-0.65
'0:18.844',-1.24
'0:18.848',-1.74
'0:18.852',-2.08
'0:18.855',-2.14
'0:18.859',-2.01
'0:18.863',-1.89
'0:18.867',-1.93
'0:18.871',-2.04
'0:18.875',-1.79
'0:18.879',-1.37
'0:18.883',-1.21
'0:18.887',-1.2
'0:18.891',-1.11
'0:18.895',-0.91
'0:18.898',-0.75
'0:18.902',-0.75
'0:18.906',-0.67
'0:18.910',-0.54
'0:18.914',-0.34
'0:18.918',-0.16
'0:18.922',0.14
'0:18.926',0.5
'0:18.930',0.56
'0:18.934',0.38
'0:18.938',0.03
'0:18.941',-0.22
'0:18.945',-0.6
'0:18.949',-0.9
'0:18.953',-1.16
'0:18.957',-1.45
'0:18.961',-1.83
'0:18.965',-2.16
'0:18.969',-2.37
'0:18.973',-2.48
'0:18.977',-2.76
'0:18.980',-2.96
'0:18.984',-2.71
'0:18.988',-2.45
'0:18.992',-2.36
'0:18.996',-2.41
'0:19.000',-2.47
'0:19.004',-2.76
'0:19.008',-2.95
'0:19.012',-2.44
'0:19.016',-1.13
'0:19.020',0.79
'0:19.023',3.16
'0:19.027',5.5
'0:19.031',7.33
'0:19.035',8.28
'0:19.039',6.47
'0:19.043',0.89
'0:19.047',-4.79
'0:19.051',-8.52
'0:19.055',-10.21
'0:19.059',-10.18
'0:19.063',-9.11
'0:19.066',-7.4
'0:19.070',-5.38
'0:19.074',-4.47
'0:19.078',-2.96
'0:19.082',-1.88
'0:19.086',-1.08
'0:19.090',-0.46
'0:19.094',-0.01
'0:19.098',0.16
'0:19.102',0.12
'0:19.105',0.05
'0:19.109',0.28
'0:19.113',0.52
'0:19.117',0.66
'0:19.121',0.72
'0:19.125',0.84
'0:19.129',1.03
'0:19.133',1.28
'0:19.137',1.39
'0:19.141',1.44
'0:19.145',1.49
'0:19.148',1.49
'0:19.152',1.54
'0:19.156',1.62
'0:19.160',1.68
'0:19.164',1.76
'0:19.168',1.86
'0:19.172',2.22
'0:19.176',2.51
'0:19.180',2.74
'0:19.184',2.82
'0:19.188',3.07
'0:19.191',3.43
'0:19.195',3.8
'0:19.199',4.14
'0:19.203',4.52
'0:19.207',4.63
'0:19.211',4.42
'0:19.215',4.07
'0:19.219',3.75
'0:19.223',3.68
'0:19.227',3.62
'0:19.230',3.26
'0:19.234',2.66
'0:19.238',2.03
'0:19.242',1.37
'0:19.246',0.74
'0:19.250',0.21
'0:19.254',-0.22
'0:19.258',-0.61
'0:19.262',-0.88
'0:19.266',-0.97
'0:19.270',-0.94
'0:19.273',-0.89
'0:19.277',-0.92
'0:19.281',-0.87
'0:19.285',-0.8
'0:19.289',-0.75
'0:19.293',-0.6
'0:19.297',-0.42
'0:19.301',-0.23
'0:19.305',0
'0:19.309',0.27
'0:19.313',0.42
'0:19.316',0.53
'0:19.320',0.65
'0:19.324',0.79
'0:19.328',0.81
'0:19.332',0.76
'0:19.336',0.8
'0:19.340',0.9
'0:19.344',0.89
'0:19.348',0.9
'0:19.352',0.78
'0:19.355',0.55
'0:19.359',0.31
'0:19.363',0.05
'0:19.367',-0.31
'0:19.371',-0.84
'0:19.375',-1.15
'0:19.379',-1.37
'0:19.383',-1.52
'0:19.387',-1.6
'0:19.391',-1.61
'0:19.395',-1.54
'0:19.398',-1.46
'0:19.402',-1.56
'0:19.406',-1.53
'0:19.410',-1.53
'0:19.414',-1.85
'0:19.418',-2.15
'0:19.422',-1.99
'0:19.426',-1.21
'0:19.430',0.37
'0:19.434',2.59
'0:19.438',5.21
'0:19.441',7.68
'0:19.445',9.55
'0:19.449',9.06
'0:19.453',4.46
'0:19.457',-1.43
'0:19.461',-6.21
'0:19.465',-9.12
'0:19.469',-10.02
'0:19.473',-9.33
'0:19.477',-7.59
'0:19.480',-5.72
'0:19.484',-4.29
'0:19.488',-3.13
'0:19.492',-2.25
'0:19.496',-1.71
'0:19.500',-1.32
'0:19.504',-1.06
'0:19.508',-0.82
'0:19.512',-0.67
'0:19.516',-0.5
'0:19.520',-0.22
'0:19.523',0.12
'0:19.527',0.25
