'0:00.000',2.76
'0:00.004',2.72
'0:00.008',2.37
'0:00.012',2.32
'0:00.016',2.59
'0:00.020',2.63
'0:00.023',2.68
'0:00.027',2.69
'0:00.031',2.86
'0:00.035',3.02
'0:00.039',3.1
'0:00.043',2.93
'0:00.047',3.21
'0:00.051',3.72
'0:00.055',4.01
'0:00.059',4.18
'0:00.063',4.59
'0:00.066',5.11
'0:00.070',5.73
'0:00.074',6.39
'0:00.078',6.64
'0:00.082',6.91
'0:00.086',7.27
'0:00.090',7.39
'0:00.094',7.44
'0:00.098',7.03
'0:00.102',6.33
'0:00.105',5.73
'0:00.109',5.08
'0:00.113',4.13
'0:00.117',3.21
'0:00.121',2.6
'0:00.125',2.01
'0:00.129',1.4
'0:00.133',0.8
'0:00.137',0.4
'0:00.141',0.27
'0:00.145',0.15
'0:00.148',0
'0:00.152',-0.13
'0:00.156',-0.2
'0:00.160',0.03
'0:00.164',0.2
'0:00.168',0.07
'0:00.172',-0.2
'0:00.176',-0.64
'0:00.180',-0.99
'0:00.184',-1.3
'0:00.188',-1.75
'0:00.191',-2.21
'0:00.195',-2.73
'0:00.199',-2.89
'0:00.203',-2.88
'0:00.207',-3.3
'0:00.211',-3.76
'0:00.215',-3.94
'0:00.219',-3.89
'0:00.223',-3.65
'0:00.227',-3.66
'0:00.230',-3.88
'0:00.234',-3.99
'0:00.238',-3.94
'0:00.242',-3.5
'0:00.246',-2.52
'0:00.250',-0.88
'0:00.254',1.18
'0:00.258',3.36
'0:00.262',5.19
'0:00.266',6.64
'0:00.270',5.84
'0:00.273',0.79
'0:00.277',-1.57
'0:00.281',-6.16
'0:00.285',-10.84
'0:00.289',-13.67
'0:00.293',-14.1
'0:00.297',-12.18
'0:00.301',-9.23
'0:00.305',-5.03
'0:00.309',-3.75
'0:00.313',-2.94
'0:00.316',-1.91
'0:00.320',-0.83
'0:00.324',-0.37
'0:00.328',0
'0:00.332',-0.27
'0:00.336',-0.07
'0:00.340',0.53
'0:00.344',0.74
'0:00.348',0.47
'0:00.352',0.49
'0:00.355',0.54
'0:00.359',0.76
'0:00.363',0.85
'0:00.367',1.04
'0:00.371',1.1
'0:00.375',1.08
'0:00.379',1.25
'0:00.383',1.34
'0:00.387',1.55
'0:00.391',2.57
'0:00.395',3.6
'0:00.398',4.08
'0:00.402',4.45
'0:00.406',5.26
'0:00.410',6.05
'0:00.414',6.06
'0:00.418',5.75
'0:00.422',5.79
'0:00.426',5.77
'0:00.430',5.2
'0:00.434',4.17
'0:00.438',2.87
'0:00.441',1.58
'0:00.445',0.99
'0:00.449',0.42
'0:00.453',-0.54
'0:00.457',-1.02
'0:00.461',-0.94
'0:00.465',-0.86
'0:00.469',-0.87
'0:00.473',-0.52
'0:00.477',-0.02
'0:00.480',0.25
'0:00.484',0.2
'0:00.488',0.18
'0:00.492',0.29
'0:00.496',-0.19
'0:00.500',-0.62
'0:00.504',-0.73
'0:00.508',-1.21
'0:00.512',-1.79
'0:00.516',-2.49
'0:00.520',-2.83
'0:00.523',-2.77
'0:00.527',-2.8
'0:00.531',-2.98
'0:00.535',-2.93
'0:00.539',-2.32
'0:00.543',-1.76
'0:00.547',-1.71
'0:00.551',-1.98
'0:00.555',-2.42
'0:00.559',-2.61
'0:00.563',-2.78
'0:00.566',-2.7
'0:00.570',-1.86
'0:00.574',-0.38
'0:00.578',1.54
'0:00.582',3.62
'0:00.586',5.86
'0:00.590',6.34
'0:00.594',5.38
'0:00.598',1.42
'0:00.602',-4.65
'0:00.605',-9.32
'0:00.609',-11.9
'0:00.613',-13.24
'0:00.617',-13.76
'0:00.621',-12.84
'0:00.625',-10.83
'0:00.629',-8.26
'0:00.633',-5.47
'0:00.637',-3.29
'0:00.641',-1.84
'0:00.645',-1.08
'0:00.648',-0.78
'0:00.652',-0.33
'0:00.656',-0.06
'0:00.660',-0.02
'0:00.664',-0.4
'0:00.668',-0.49
'0:00.672',0.03
'0:00.676',0.87
'0:00.680',1.5
'0:00.684',1.79
'0:00.688',1.84
'0:00.691',1.34
'0:00.695',0.87
'0:00.699',0.79
'0:00.703',0.9
'0:00.707',1.43
'0:00.711',1.87
'0:00.715',2.33
'0:00.719',2.88
'0:00.723',3.21
'0:00.727',3.69
'0:00.730',4.22
'0:00.734',4.56
'0:00.738',4.73
'0:00.742',5.09
'0:00.746',5.25
'0:00.750',5.65
'0:00.754',5.84
'0:00.758',5.45
'0:00.762',4.66
'0:00.766',3.84
'0:00.770',2.95
'0:00.773',2
'0:00.777',1.2
'0:00.781',0.63
'0:00.785',0.33
'0:00.789',0.12
'0:00.793',0.28
'0:00.797',0.47
'0:00.801',0.27
'0:00.805',-0.19
'0:00.809',-0.08
'0:00.813',0.41
'0:00.816',1.42
'0:00.820',1.65
'0:00.824',1.12
'0:00.828',0.83
'0:00.832',1.23
'0:00.836',1.91
'0:00.840',1.94
'0:00.844',1.36
'0:00.848',0.34
'0:00.852',-0.8
'0:00.855',-2.06
'0:00.859',-2.46
'0:00.863',-1.78
'0:00.867',-1.26
'0:00.871',-0.94
'0:00.875',-0.98
'0:00.879',-1.35
'0:00.883',-1.73
'0:00.887',-2.31
'0:00.891',-3.03
'0:00.895',-2.67
'0:00.898',-1.14
'0:00.902',0.99
'0:00.906',3.54
'0:00.910',5.9
'0:00.914',7.7
'0:00.918',8.29
'0:00.922',7.93
'0:00.926',4.82
'0:00.930',-1.01
'0:00.934',-6.49
'0:00.938',-10.47
'0:00.941',-12.67
'0:00.945',-13.21
'0:00.949',-12.26
'0:00.953',-10.21
'0:00.957',-7.19
'0:00.961',-4.12
'0:00.965',-1.7
'0:00.969',-0.04
'0:00.973',0.81
'0:00.977',0.87
'0:00.980',0.63
'0:00.984',0.44
'0:00.988',0.44
'0:00.992',0.76
'0:00.996',1.27
'0:01.000',1.51
'0:01.004',1.54
'0:01.008',1.49
'0:01.012',1.41
'0:01.016',1.42
'0:01.020',2.13
'0:01.023',3.67
'0:01.027',4.41
'0:01.031',4.26
'0:01.035',3.88
'0:01.039',4.18
'0:01.043',4.74
'0:01.047',4.97
'0:01.051',5.03
'0:01.055',5.05
'0:01.059',5.21
'0:01.063',5.51
'0:01.066',5.31
'0:01.070',5
'0:01.074',4.69
'0:01.078',4.48
'0:01.082',4.36
'0:01.086',4.17
'0:01.090',4.14
'0:01.094',3.69
'0:01.098',2.67
'0:01.102',1.52
'0:01.105',0.86
'0:01.109',0.39
'0:01.113',0.21
'0:01.117',-0.23
'0:01.121',-1.08
'0:01.125',-1.16
'0:01.129',-1.21
'0:01.133',-1.41
'0:01.137',-1.55
'0:01.141',-1.88
'0:01.145',-1.98
'0:01.148',-1.44
'0:01.152',-0.81
'0:01.156',-0.91
'0:01.160',-1.2
'0:01.164',-1.28
'0:01.168',-1.3
'0:01.172',-1.3
'0:01.176',-1.6
'0:01.180',-2.11
'0:01.184',-2.29
'0:01.188',-2.77
'0:01.191',-3.39
'0:01.195',-3.32
'0:01.199',-2.84
'0:01.203',-2.71
'0:01.207',-2.89
'0:01.211',-2.99
'0:01.215',-2.92
'0:01.219',-2.68
'0:01.223',-2.13
'0:01.227',-1.71
'0:01.230',-0.76
'0:01.234',0.77
'0:01.238',1.93
'0:01.242',3.12
'0:01.246',4.91
'0:01.250',6.26
'0:01.254',4.31
'0:01.258',-1.21
'0:01.262',-6.55
'0:01.266',-10.49
'0:01.270',-12.87
'0:01.273',-13.82
'0:01.277',-13.19
'0:01.281',-11.31
'0:01.285',-8.54
'0:01.289',-5.55
'0:01.293',-3.08
'0:01.297',-0.99
'0:01.301',0.2
'0:01.305',0.56
'0:01.309',0.41
'0:01.313',0.35
'0:01.316',0.43
'0:01.320',1.22
'0:01.324',2.22
'0:01.328',2.78
'0:01.332',2.97
'0:01.336',3.16
'0:01.340',3.52
'0:01.344',3.71
'0:01.348',3.6
'0:01.352',3.08
'0:01.355',2.74
'0:01.359',3.22
'0:01.363',3.99
'0:01.367',4.58
'0:01.371',4.89
'0:01.375',4.98
'0:01.379',5.26
'0:01.383',5.76
'0:01.387',6.3
'0:01.391',6.56
'0:01.395',6.58
'0:01.398',6.7
'0:01.402',6.9
'0:01.406',6.81
'0:01.410',6.62
'0:01.414',6.04
'0:01.418',5.85
'0:01.422',5.6
'0:01.426',4.79
'0:01.430',3.33
'0:01.434',1.68
'0:01.438',1.05
'0:01.441',0.88
'0:01.445',0.24
'0:01.449',0
'0:01.453',0.19
'0:01.457',0.96
'0:01.461',1.5
'0:01.465',1.72
'0:01.469',1.75
'0:01.473',1.68
'0:01.477',1.13
'0:01.480',0.47
'0:01.484',0.09
'0:01.488',0
'0:01.492',-0.42
'0:01.496',-1.07
'0:01.500',-1.76
'0:01.504',-2.84
'0:01.508',-4.43
'0:01.512',-5.27
'0:01.516',-5.01
'0:01.520',-4.7
'0:01.523',-4.76
'0:01.527',-4.56
'0:01.531',-4.17
'0:01.535',-3.56
'0:01.539',-3.28
'0:01.543',-3
'0:01.547',-2.7
'0:01.551',-2.35
'0:01.555',-1.63
'0:01.559',-0.67
'0:01.563',0.73
'0:01.566',2.38
'0:01.570',3.59
'0:01.574',4.58
'0:01.578',4.59
'0:01.582',1.24
'0:01.586',-4.7
'0:01.590',-9.22
'0:01.594',-12.11
'0:01.598',-13.92
'0:01.602',-14.3
'0:01.605',-14.16
'0:01.609',-13.31
'0:01.613',-11.61
'0:01.617',-8.96
'0:01.621',-6.3
'0:01.625',-3.88
'0:01.629',-2.02
'0:01.633',-1.62
'0:01.637',-2.5
'0:01.641',-2.88
'0:01.645',-1.86
'0:01.648',0.31
'0:01.652',2.3
'0:01.656',3.84
'0:01.660',4.11
'0:01.664',3.36
'0:01.668',2.69
'0:01.672',2.46
'0:01.676',2.1
'0:01.680',1.21
'0:01.684',1.26
'0:01.688',1.98
'0:01.691',2.69
'0:01.695',3.58
'0:01.699',3.81
'0:01.703',3.25
'0:01.707',2.84
'0:01.711',3
'0:01.715',3.62
'0:01.719',4.22
'0:01.723',5.35
'0:01.727',6.48
'0:01.730',6.99
'0:01.734',6.33
'0:01.738',5.33
'0:01.742',4.92
'0:01.746',4.88
'0:01.750',4.71
'0:01.754',4.28
'0:01.758',4.05
'0:01.762',3.31
'0:01.766',2.32
'0:01.770',1.07
'0:01.773',0.11
'0:01.777',-0.2
'0:01.781',0.09
'0:01.785',0.27
'0:01.789',0.13
'0:01.793',-0.11
'0:01.797',-0.76
'0:01.801',-0.99
'0:01.805',-0.55
'0:01.809',-0.37
'0:01.813',-0.89
'0:01.816',-1.54
'0:01.820',-1.83
'0:01.824',-2.19
'0:01.828',-2.54
'0:01.832',-3.36
'0:01.836',-4.34
'0:01.840',-5.35
'0:01.844',-5.21
'0:01.848',-4.32
'0:01.852',-3.77
'0:01.855',-4.18
'0:01.859',-4.9
'0:01.863',-4.46
'0:01.867',-3.16
'0:01.871',-2.12
'0:01.875',-2.57
'0:01.879',-3.15
'0:01.883',-2.98
'0:01.887',-2.32
'0:01.891',-0.49
'0:01.895',2.51
'0:01.898',4.26
'0:01.902',4.47
'0:01.906',4.13
'0:01.910',1.26
'0:01.914',-4.1
'0:01.918',-9.11
'0:01.922',-12.43
'0:01.926',-14.4
'0:01.930',-14.61
'0:01.934',-12.71
'0:01.938',-9.76
'0:01.941',-7.48
'0:01.945',-5.63
'0:01.949',-3.93
'0:01.953',-2.87
'0:01.957',-1.69
'0:01.961',-0.28
'0:01.965',1.23
'0:01.969',2.34
'0:01.973',2.53
'0:01.977',1.82
'0:01.980',1.82
'0:01.984',2.16
'0:01.988',2.72
'0:01.992',3.2
'0:01.996',3.24
'0:02.000',2.93
'0:02.004',3.07
'0:02.008',3.99
'0:02.012',4.05
'0:02.016',3.27
'0:02.020',2.67
'0:02.023',2.57
'0:02.027',2.94
'0:02.031',3.41
'0:02.035',4.27
'0:02.039',4.6
'0:02.043',4.82
'0:02.047',5.67
'0:02.051',6.22
'0:02.055',6.42
'0:02.059',6.41
'0:02.063',6.34
'0:02.066',6.3
'0:02.070',6.55
'0:02.074',6
'0:02.078',4.01
'0:02.082',2.35
'0:02.086',1.6
'0:02.090',1.24
'0:02.094',0.97
'0:02.098',0.67
'0:02.102',0.01
'0:02.105',-0.35
'0:02.109',0.5
'0:02.113',0.81
'0:02.117',0.48
'0:02.121',0.27
'0:02.125',0.74
'0:02.129',1.77
'0:02.133',1.74
'0:02.137',0.73
'0:02.141',-0.23
'0:02.145',-0.48
'0:02.148',-0.78
'0:02.152',-1.46
'0:02.156',-2.26
'0:02.160',-1.68
'0:02.164',-1.16
'0:02.168',-1.42
'0:02.172',-1.97
'0:02.176',-2.55
'0:02.180',-3.17
'0:02.184',-3.44
'0:02.188',-3.58
'0:02.191',-4.05
'0:02.195',-4.23
'0:02.199',-4.03
'0:02.203',-3.69
'0:02.207',-3.35
'0:02.211',-2.84
'0:02.215',-2.4
'0:02.219',-0.94
'0:02.223',0.72
'0:02.227',2.63
'0:02.230',4.18
'0:02.234',5.17
'0:02.238',5.07
'0:02.242',1.82
'0:02.246',-3.44
'0:02.250',-7.96
'0:02.254',-10.76
'0:02.258',-12.17
'0:02.262',-12.71
'0:02.266',-11.94
'0:02.270',-9.61
'0:02.273',-6.67
'0:02.277',-4.44
'0:02.281',-2.54
'0:02.285',-0.81
'0:02.289',0.47
'0:02.293',1.41
'0:02.297',2.25
'0:02.301',2.54
'0:02.305',2.47
'0:02.309',2.27
'0:02.313',2.04
'0:02.316',2.08
'0:02.320',2.5
'0:02.324',2.88
'0:02.328',3.18
'0:02.332',3.14
'0:02.336',3.23
'0:02.340',3.73
'0:02.344',4.45
'0:02.348',4.35
'0:02.352',3.94
'0:02.355',4
'0:02.359',4.18
'0:02.363',4.9
'0:02.367',5.48
'0:02.371',5.47
'0:02.375',5.15
'0:02.379',5.24
'0:02.383',6.12
'0:02.387',6.97
'0:02.391',7.63
'0:02.395',8.15
'0:02.398',7.8
'0:02.402',6.82
'0:02.406',5.33
'0:02.410',3.55
'0:02.414',2.35
'0:02.418',1.67
'0:02.422',1.49
'0:02.426',1.28
'0:02.430',0.95
'0:02.434',0.93
'0:02.438',0.97
'0:02.441',1.77
'0:02.445',2.85
'0:02.449',2.55
'0:02.453',1
'0:02.457',-0.49
'0:02.461',-1.25
'0:02.465',-1.66
'0:02.469',-1.49
'0:02.473',-1.07
'0:02.477',-0.19
'0:02.480',0.05
'0:02.484',-0.49
'0:02.488',-1.51
'0:02.492',-2.35
'0:02.496',-2.73
'0:02.500',-3.41
'0:02.504',-5.23
'0:02.508',-6.25
'0:02.512',-5.8
'0:02.516',-4.68
'0:02.520',-3.15
'0:02.523',-2.5
'0:02.527',-3.21
'0:02.531',-4.2
'0:02.535',-3.89
'0:02.539',-2.08
'0:02.543',-0.04
'0:02.547',0.84
'0:02.551',1.32
'0:02.555',2.79
'0:02.559',4.8
'0:02.563',6.29
'0:02.566',4.51
'0:02.570',-2.32
'0:02.574',-9.52
'0:02.578',-13.09
'0:02.582',-14.19
'0:02.586',-12.4
'0:02.590',-10.66
'0:02.594',-9.64
'0:02.598',-9.21
'0:02.602',-8.09
'0:02.605',-6.07
'0:02.609',-3.81
'0:02.613',-1.77
'0:02.617',-0.25
'0:02.621',0.76
'0:02.625',0.96
'0:02.629',0.5
'0:02.633',1.09
'0:02.637',2.1
'0:02.641',2.62
'0:02.645',2.86
'0:02.648',3.38
'0:02.652',3.25
'0:02.656',2.95
'0:02.660',2.51
'0:02.664',2.57
'0:02.668',2.36
'0:02.672',1.71
'0:02.676',-0.08
'0:02.680',-0.51
'0:02.684',0.9
'0:02.688',2.77
'0:02.691',4.48
'0:02.695',5.5
'0:02.699',5.57
'0:02.703',4.93
'0:02.707',4.92
'0:02.711',5.12
'0:02.715',4.69
'0:02.719',4.31
'0:02.723',4.36
'0:02.727',4.29
'0:02.730',3.65
'0:02.734',2.57
'0:02.738',1.27
'0:02.742',0
'0:02.746',-0.66
'0:02.750',-0.26
'0:02.754',0.27
'0:02.758',-0.67
'0:02.762',-1.71
'0:02.766',-1.98
'0:02.770',-2.05
'0:02.773',-1.5
'0:02.777',-1.09
'0:02.781',-1.2
'0:02.785',-1.5
'0:02.789',-1.84
'0:02.793',-2.51
'0:02.797',-3.09
'0:02.801',-2.73
'0:02.805',-2.32
'0:02.809',-1.84
'0:02.813',-1.73
'0:02.816',-2.27
'0:02.820',-3.32
'0:02.824',-4.16
'0:02.828',-4.14
'0:02.832',-3.33
'0:02.836',-2.71
'0:02.840',-2.58
'0:02.844',-2.92
'0:02.848',-3.42
'0:02.852',-3.17
'0:02.855',-3.08
'0:02.859',-3.77
'0:02.863',-3.93
'0:02.867',-3.98
'0:02.871',-3.81
'0:02.875',-2.84
'0:02.879',-0.68
'0:02.883',1.96
'0:02.887',3.74
'0:02.891',4.74
'0:02.895',2.79
'0:02.898',-2.62
'0:02.902',-7.97
'0:02.906',-11.44
'0:02.910',-12.64
'0:02.914',-12.34
'0:02.918',-11.08
'0:02.922',-9.02
'0:02.926',-6.38
'0:02.930',-3.87
'0:02.934',-2.15
'0:02.938',-0.99
'0:02.941',0.06
'0:02.945',0.95
'0:02.949',1.48
'0:02.953',1.84
'0:02.957',2.27
'0:02.961',2.63
'0:02.965',2.47
'0:02.969',2.12
'0:02.973',2.23
'0:02.977',2.55
'0:02.980',2.92
'0:02.984',3.4
'0:02.988',3.48
'0:02.992',3.13
'0:02.996',2.56
'0:03.000',2.33
'0:03.004',2.81
'0:03.008',3.85
'0:03.012',5.13
'0:03.016',5.75
'0:03.020',5.57
'0:03.023',5.72
'0:03.027',6.24
'0:03.031',6.67
'0:03.035',6.86
'0:03.039',7.2
'0:03.043',7.4
'0:03.047',6.95
'0:03.051',5.82
'0:03.055',5.04
'0:03.059',4.22
'0:03.063',3.3
'0:03.066',2.57
'0:03.070',2.06
'0:03.074',1.23
'0:03.078',0.6
'0:03.082',0.82
'0:03.086',1.12
'0:03.090',1.43
'0:03.094',1.7
'0:03.098',1.62
'0:03.102',1.15
'0:03.105',1.03
'0:03.109',1.21
'0:03.113',1.48
'0:03.117',1.67
'0:03.121',1.62
'0:03.125',1.47
'0:03.129',1.4
'0:03.133',1.03
'0:03.137',0.56
'0:03.141',0.21
'0:03.145',-0.17
'0:03.148',-0.73
'0:03.152',-1.43
'0:03.156',-1.97
'0:03.160',-2.24
'0:03.164',-1.85
'0:03.168',-1.4
'0:03.172',-1.31
'0:03.176',-1.13
'0:03.180',-0.95
'0:03.184',-1.16
'0:03.188',-1.39
'0:03.191',-1.28
'0:03.195',-0.46
'0:03.199',0.81
'0:03.203',2.39
'0:03.207',4.32
'0:03.211',6.05
'0:03.215',7.89
'0:03.219',8.07
'0:03.223',3.93
'0:03.227',-2.56
'0:03.230',-8.08
'0:03.234',-10.93
'0:03.238',-11.77
'0:03.242',-11.54
'0:03.246',-10.27
'0:03.250',-8.69
'0:03.254',-8.7
'0:03.258',-4.01
'0:03.262',-1.95
'0:03.266',-0.23
'0:03.270',0.77
'0:03.273',0.76
'0:03.277',0.94
'0:03.281',1.53
'0:03.285',2.64
'0:03.289',3.4
'0:03.293',3.3
'0:03.297',2.98
'0:03.301',2.98
'0:03.305',2.4
'0:03.309',2.17
'0:03.313',1.74
'0:03.316',1.36
'0:03.320',1.23
'0:03.324',1.61
'0:03.328',1.99
'0:03.332',2.01
'0:03.336',2.48
'0:03.340',3.25
'0:03.344',4.25
'0:03.348',5.18
'0:03.352',5.7
'0:03.355',6.31
'0:03.359',6.48
'0:03.363',6.34
'0:03.367',6.29
'0:03.371',5.61
'0:03.375',4.52
'0:03.379',3.21
'0:03.383',1.96
'0:03.387',0.92
'0:03.391',0.41
'0:03.395',0.05
'0:03.398',-0.21
'0:03.402',-0.53
'0:03.406',-1.24
'0:03.410',-1.86
'0:03.414',-2.62
'0:03.418',-3.15
'0:03.422',-3.21
'0:03.426',-2.29
'0:03.430',-1.32
'0:03.434',-1.05
'0:03.438',-1.28
'0:03.441',-1.46
'0:03.445',-1.35
'0:03.449',-1.16
'0:03.453',-1.09
'0:03.457',-1.44
'0:03.461',-2.01
'0:03.465',-2.66
'0:03.469',-3.09
'0:03.473',-3.86
'0:03.477',-4.45
'0:03.480',-4.17
'0:03.484',-3.89
'0:03.488',-4.13
'0:03.492',-4.13
'0:03.496',-4.04
'0:03.500',-3.93
'0:03.504',-3.43
'0:03.508',-2.67
'0:03.512',-2.64
'0:03.516',-2.69
'0:03.520',-2.26
'0:03.523',-1.77
'0:03.527',-0.55
'0:03.531',1.42
'0:03.535',2.12
'0:03.539',6.06
'0:03.543',7.03
'0:03.547',5.77
'0:03.551',1.2
'0:03.555',-4.03
'0:03.559',-7.84
'0:03.563',-10.16
'0:03.566',-11.55
'0:03.570',-12.35
'0:03.574',-11.11
'0:03.578',-8.48
'0:03.582',-5.74
'0:03.586',-3.45
'0:03.590',-1.51
'0:03.594',-0.64
'0:03.598',-0.74
'0:03.602',-0.58
'0:03.605',-0.17
'0:03.609',0.4
'0:03.613',0.94
'0:03.617',1.37
'0:03.621',1.86
'0:03.625',1.95
'0:03.629',2.17
'0:03.633',2.65
'0:03.637',2.91
'0:03.641',3.41
'0:03.645',2.86
'0:03.648',2.69
'0:03.652',2.19
'0:03.656',1.97
'0:03.660',2.2
'0:03.664',3.05
'0:03.668',3.41
'0:03.672',2.96
'0:03.676',3.03
'0:03.680',4.39
'0:03.684',5.66
'0:03.688',5.72
'0:03.691',5.31
'0:03.695',5.42
'0:03.699',5.84
'0:03.703',5.9
'0:03.707',5.8
'0:03.711',5.51
'0:03.715',4.57
'0:03.719',3.69
'0:03.723',3.18
'0:03.727',2.51
'0:03.730',1.36
'0:03.734',0.82
'0:03.738',0.78
'0:03.742',0.83
'0:03.746',0.88
'0:03.750',1
'0:03.754',1.05
'0:03.758',0.42
'0:03.762',0
'0:03.766',-0.1
'0:03.770',-0.15
'0:03.773',-0.36
'0:03.777',-0.54
'0:03.781',-0.78
'0:03.785',-1.08
'0:03.789',-1.55
'0:03.793',-2.21
'0:03.797',-2.67
'0:03.801',-3.05
'0:03.805',-3.42
'0:03.809',-3.53
'0:03.813',-3.79
'0:03.816',-4.47
'0:03.820',-4.94
'0:03.824',-5
'0:03.828',-4.65
'0:03.832',-4.28
'0:03.836',-3.88
'0:03.840',-3.63
'0:03.844',-3.52
'0:03.848',-3.02
'0:03.852',-2.07
'0:03.855',-0.81
'0:03.859',0.8
'0:03.863',2.61
'0:03.867',4.24
'0:03.871',5.14
'0:03.875',3.12
'0:03.879',-1.93
'0:03.883',-7.27
'0:03.887',-11.19
'0:03.891',-12.84
'0:03.895',-13.53
'0:03.898',-13.05
'0:03.902',-10.98
'0:03.906',-8.21
'0:03.910',-5.36
'0:03.914',-3.14
'0:03.918',-1.5
'0:03.922',-0.37
'0:03.926',0.57
'0:03.930',1.03
'0:03.934',1.2
'0:03.938',1.55
'0:03.941',1.96
'0:03.945',2.21
'0:03.949',2.35
'0:03.953',2.52
'0:03.957',2.68
'0:03.961',2.69
'0:03.965',3.28
'0:03.969',3.44
'0:03.973',4.14
'0:03.977',5.23
'0:03.980',4.29
'0:03.984',3.2
'0:03.988',2.69
'0:03.992',2.79
'0:03.996',3.34
'0:04.000',4.02
'0:04.004',4.55
'0:04.008',4.82
'0:04.012',5.4
'0:04.016',6.35
'0:04.020',6.92
'0:04.023',7.08
'0:04.027',6.66
'0:04.031',6.18
'0:04.035',5.75
'0:04.039',5.29
'0:04.043',4.66
'0:04.047',4.66
'0:04.051',3.52
'0:04.055',1.72
'0:04.059',1.09
'0:04.063',0.16
'0:04.066',-0.56
'0:04.070',-0.73
'0:04.074',-0.44
'0:04.078',0.23
'0:04.082',0.1
'0:04.086',0.15
'0:04.090',0.26
'0:04.094',0.33
'0:04.098',0.33
'0:04.102',0.23
'0:04.105',-0.16
'0:04.109',-0.42
'0:04.113',-0.53
'0:04.117',-0.36
'0:04.121',-0.72
'0:04.125',-1.63
'0:04.129',-2.72
'0:04.133',-3.63
'0:04.137',-3.89
'0:04.141',-3.77
'0:04.145',-3.53
'0:04.148',-3.2
'0:04.152',-2.79
'0:04.156',-2.67
'0:04.160',-2.83
'0:04.164',-2.95
'0:04.168',-3.09
'0:04.172',-3.13
'0:04.176',-2.54
'0:04.180',-1.21
'0:04.184',0.92
'0:04.188',3.14
'0:04.191',4.5
'0:04.195',5.17
'0:04.199',5.08
'0:04.203',1.75
'0:04.207',-3.82
'0:04.211',-8.56
'0:04.215',-11.51
'0:04.219',-12.86
'0:04.223',-13.02
'0:04.227',-11.88
'0:04.230',-9.72
'0:04.234',-6.92
'0:04.238',-4.1
'0:04.242',-1.8
'0:04.246',-0.4
'0:04.250',0.4
'0:04.254',0.88
'0:04.258',1.22
'0:04.262',1.21
'0:04.266',1.14
'0:04.270',1.29
'0:04.273',1.61
'0:04.277',1.68
'0:04.281',1.52
'0:04.285',1.77
'0:04.289',2.02
'0:04.293',2
'0:04.297',1.92
'0:04.301',1.71
'0:04.305',1.71
'0:04.309',1.76
'0:04.313',2.1
'0:04.316',2.76
'0:04.320',3.52
'0:04.324',4.23
'0:04.328',4.81
'0:04.332',4.97
'0:04.336',5.54
'0:04.340',6.5
'0:04.344',7.27
'0:04.348',7.62
'0:04.352',7.33
'0:04.355',6.83
'0:04.359',6.09
'0:04.363',5.26
'0:04.367',4.37
'0:04.371',3.45
'0:04.375',2.46
'0:04.379',1.37
'0:04.383',0.51
'0:04.387',0.07
'0:04.391',-0.11
'0:04.395',-0.15
'0:04.398',-0.29
'0:04.402',-0.3
'0:04.406',-0.27
'0:04.410',-0.39
'0:04.414',-0.22
'0:04.418',0.26
'0:04.422',0.51
'0:04.426',0.38
'0:04.430',0.04
'0:04.434',-0.45
'0:04.438',-0.96
'0:04.441',-1.27
'0:04.445',-1.63
'0:04.449',-2.29
'0:04.453',-3.06
'0:04.457',-3.38
'0:04.461',-3.35
'0:04.465',-3.07
'0:04.469',-2.61
'0:04.473',-2.39
'0:04.477',-2.25
'0:04.480',-2.21
'0:04.484',-2.57
'0:04.488',-3.18
'0:04.492',-3.42
'0:04.496',-3.75
'0:04.500',-4.08
'0:04.504',-3.46
'0:04.508',-2.2
'0:04.512',-0.07
'0:04.516',2.71
'0:04.520',5.38
'0:04.523',7.35
'0:04.527',7.09
'0:04.531',2.95
'0:04.535',-3.06
'0:04.539',-8.14
'0:04.543',-11.01
'0:04.547',-12.01
'0:04.551',-11.7
'0:04.555',-10.14
'0:04.559',-7.56
'0:04.563',-4.97
'0:04.566',-3.08
'0:04.570',-1.42
'0:04.574',-0.36
'0:04.578',0.1
'0:04.582',0.7
'0:04.586',1.62
'0:04.590',1.92
'0:04.594',1.5
'0:04.598',0.8
'0:04.602',0.81
'0:04.605',1.47
'0:04.609',2.01
'0:04.613',2.18
'0:04.617',2.62
'0:04.621',2.93
'0:04.625',3.04
'0:04.629',3.52
'0:04.633',3.85
'0:04.637',3.58
'0:04.641',2.83
'0:04.645',2.62
'0:04.648',3.24
'0:04.652',4.17
'0:04.656',4.98
'0:04.660',5.47
'0:04.664',5.62
'0:04.668',6.06
'0:04.672',6.44
'0:04.676',6.57
'0:04.680',6.83
'0:04.684',6.5
'0:04.688',5.56
'0:04.691',5.18
'0:04.695',4.91
'0:04.699',4.65
'0:04.703',4.53
'0:04.707',3.98
'0:04.711',2.74
'0:04.715',1.85
'0:04.719',1.66
'0:04.723',1.81
'0:04.727',1.95
'0:04.730',1.82
'0:04.734',1.15
'0:04.738',0.72
'0:04.742',0.54
'0:04.746',0.43
'0:04.750',0.14
'0:04.754',-0.3
'0:04.758',-0.62
'0:04.762',-0.95
'0:04.766',-1.22
'0:04.770',-1.62
'0:04.773',-2.08
'0:04.777',-2.63
'0:04.781',-3.15
'0:04.785',-3.39
'0:04.789',-3.59
'0:04.793',-3.78
'0:04.797',-3.97
'0:04.801',-4.31
'0:04.805',-4.34
'0:04.809',-4.31
'0:04.813',-4.39
'0:04.816',-4.44
'0:04.820',-4.65
'0:04.824',-4.81
'0:04.828',-4.23
'0:04.832',-2.54
'0:04.836',-0.42
'0:04.840',1.52
'0:04.844',3.35
'0:04.848',4.67
'0:04.852',5.17
'0:04.855',3.07
'0:04.859',-2.32
'0:04.863',-7.75
'0:04.867',-11.51
'0:04.871',-13.71
'0:04.875',-14.45
'0:04.879',-13.72
'0:04.883',-11.73
'0:04.887',-8.97
'0:04.891',-6.08
'0:04.895',-3.63
'0:04.898',-2
'0:04.902',-1.24
'0:04.906',-0.76
'0:04.910',-0.19
'0:04.914',0.27
'0:04.918',0.52
'0:04.922',0.67
'0:04.926',0.77
'0:04.930',0.84
'0:04.934',1.16
'0:04.938',1.31
'0:04.941',1.23
'0:04.945',1.22
'0:04.949',1.46
'0:04.953',1.77
'0:04.957',1.91
'0:04.961',2.05
'0:04.965',1.93
'0:04.969',2.2
'0:04.973',2.97
'0:04.977',3.68
'0:04.980',4.18
'0:04.984',4.37
'0:04.988',4.71
'0:04.992',5.52
'0:04.996',6.31
'0:05.000',6.51
'0:05.004',6.24
'0:05.008',5.69
'0:05.012',5.53
'0:05.016',5.03
'0:05.020',3.56
'0:05.023',1.94
'0:05.027',1.49
'0:05.031',1.41
'0:05.035',1.13
'0:05.039',0.67
'0:05.043',-0.02
'0:05.047',-0.85
'0:05.051',-1.24
'0:05.055',-1.1
'0:05.059',-0.96
'0:05.063',-1.14
'0:05.066',-1.57
'0:05.070',-1.19
'0:05.074',-0.24
'0:05.078',0.44
'0:05.082',0.77
'0:05.086',0.57
'0:05.090',0.25
'0:05.094',0
'0:05.098',-0.09
'0:05.102',-0.21
'0:05.105',-0.61
'0:05.109',-1.33
'0:05.113',-2.31
'0:05.117',-3.1
'0:05.121',-3.46
'0:05.125',-3.17
'0:05.129',-3.02
'0:05.133',-2.91
'0:05.137',-2.7
'0:05.141',-2.64
'0:05.145',-3.02
'0:05.148',-3.39
'0:05.152',-3.28
'0:05.156',-3.11
'0:05.160',-2.66
'0:05.164',-1.57
'0:05.168',0.42
'0:05.172',2.56
'0:05.176',3.96
'0:05.180',4.99
'0:05.184',4.63
'0:05.188',0.14
'0:05.191',-5.81
'0:05.195',-10.28
'0:05.199',-13.2
'0:05.203',-14.27
'0:05.207',-13.91
'0:05.211',-12.19
'0:05.215',-9.29
'0:05.219',-6.21
'0:05.223',-3.61
'0:05.227',-1.92
'0:05.230',-0.69
'0:05.234',0.25
'0:05.238',0.94
'0:05.242',1.11
'0:05.246',1.23
'0:05.250',1.41
'0:05.254',1.77
'0:05.258',1.96
'0:05.262',1.81
'0:05.266',1.49
'0:05.270',1.27
'0:05.273',1.43
'0:05.277',1.84
'0:05.281',2.24
'0:05.285',2.57
'0:05.289',2.74
'0:05.293',2.89
'0:05.297',2.99
'0:05.301',3
'0:05.305',3.26
'0:05.309',4.08
'0:05.313',5.37
'0:05.316',6.52
'0:05.320',7.1
'0:05.324',6.92
'0:05.328',6.42
'0:05.332',6.17
'0:05.336',6.29
'0:05.340',6.17
'0:05.344',5.65
'0:05.348',4.74
'0:05.352',3.94
'0:05.355',3.19
'0:05.359',2.46
'0:05.363',1.87
'0:05.367',1.46
'0:05.371',0.96
'0:05.375',0.84
'0:05.379',0.95
'0:05.383',0.98
'0:05.387',0.74
'0:05.391',0.41
'0:05.395',0.23
'0:05.398',0.28
'0:05.402',0.48
'0:05.406',0.61
'0:05.410',0.64
'0:05.414',0.69
'0:05.418',0.65
'0:05.422',0.3
'0:05.426',-0.28
'0:05.430',-1.25
'0:05.434',-1.8
'0:05.438',-1.81
'0:05.441',-1.56
'0:05.445',-1.5
'0:05.449',-1.71
'0:05.453',-1.88
'0:05.457',-2.03
'0:05.461',-2.18
'0:05.465',-2.28
'0:05.469',-2.13
'0:05.473',-1.97
'0:05.477',-2.2
'0:05.480',-2.3
'0:05.484',-1.67
'0:05.488',-0.52
'0:05.492',0.62
'0:05.496',2.11
'0:05.500',3.67
'0:05.504',5.47
'0:05.508',7.06
'0:05.512',5.56
'0:05.516',0.56
'0:05.520',-4.58
'0:05.523',-8.76
'0:05.527',-11.04
'0:05.531',-12
'0:05.535',-11.88
'0:05.539',-10.47
'0:05.543',-8.31
'0:05.547',-5.5
'0:05.551',-3
'0:05.555',-1.28
'0:05.559',-0.16
'0:05.563',0.65
'0:05.566',1.14
'0:05.570',1.38
'0:05.574',1.49
'0:05.578',1.36
'0:05.582',1.19
'0:05.586',1.13
'0:05.590',0.95
'0:05.594',0.87
'0:05.598',1.47
'0:05.602',2.19
'0:05.605',2.56
'0:05.609',2.59
'0:05.613',2.11
'0:05.617',2.14
'0:05.621',2.65
'0:05.625',3.34
'0:05.629',3.76
'0:05.633',3.64
'0:05.637',3.42
'0:05.641',3.72
'0:05.645',4.5
'0:05.648',5
'0:05.652',5
'0:05.656',5
'0:05.660',5
'0:05.664',5
'0:05.668',5.33
'0:05.672',4.89
'0:05.676',4.77
'0:05.680',4.19
'0:05.684',3.45
'0:05.688',2.3
'0:05.691',1.2
'0:05.695',0.99
'0:05.699',0.93
'0:05.703',0.62
'0:05.707',0.16
'0:05.711',0.41
'0:05.715',1.08
'0:05.719',1.55
'0:05.723',1.61
'0:05.727',1.48
'0:05.730',1.05
'0:05.734',0.48
'0:05.738',0.04
'0:05.742',-0.3
'0:05.746',-0.4
'0:05.750',-0.65
'0:05.754',-1.03
'0:05.758',-1.41
'0:05.762',-1.96
'0:05.766',-2.6
'0:05.770',-3.25
'0:05.773',-3.9
'0:05.777',-4.3
'0:05.781',-4.34
'0:05.785',-4.04
'0:05.789',-3.9
'0:05.793',-3.79
'0:05.797',-3.67
'0:05.801',-3.59
'0:05.805',-3.65
'0:05.809',-3.19
'0:05.813',-2.09
'0:05.816',-0.87
'0:05.820',0.27
'0:05.824',1.7
'0:05.828',3.25
'0:05.832',4.35
'0:05.836',4.19
'0:05.840',0.54
'0:05.844',-5.15
'0:05.848',-10.1
'0:05.852',-13.57
'0:05.855',-15.46
'0:05.859',-15.8
'0:05.863',-14.67
'0:05.867',-12.22
'0:05.871',-9.37
'0:05.875',-6.96
'0:05.879',-4.94
'0:05.883',-3.5
'0:05.887',-2.62
'0:05.891',-2
'0:05.895',-1.4
'0:05.898',-1.11
'0:05.902',-0.96
'0:05.906',-0.73
'0:05.910',-0.36
'0:05.914',-0.12
'0:05.918',0.1
'0:05.922',0.13
'0:05.926',0.21
'0:05.930',0.39
'0:05.934',0.43
'0:05.938',0.55
'0:05.941',0.59
'0:05.945',0.69
'0:05.949',1.26
'0:05.953',1.7
'0:05.957',2.45
'0:05.961',3.12
'0:05.965',3.58
'0:05.969',3.91
'0:05.973',4.17
'0:05.977',4.66
'0:05.980',5.24
'0:05.984',5.42
'0:05.988',5.26
'0:05.992',5.02
'0:05.996',4.37
'0:06.000',3.13
'0:06.004',1.97
'0:06.008',0.89
'0:06.012',0.07
'0:06.016',-0.08
'0:06.020',-0.11
'0:06.023',-0.79
'0:06.027',-1.35
'0:06.031',-1.57
'0:06.035',-1.6
'0:06.039',-1.38
'0:06.043',-1.06
'0:06.047',-0.86
'0:06.051',-0.75
'0:06.055',-0.95
'0:06.059',-1.05
'0:06.063',-0.65
'0:06.066',-0.16
'0:06.070',-0.14
'0:06.074',-0.05
'0:06.078',-0.23
'0:06.082',-0.8
'0:06.086',-1.4
'0:06.090',-1.98
'0:06.094',-2.46
'0:06.098',-2.65
'0:06.102',-2.77
'0:06.105',-2.85
'0:06.109',-2.97
'0:06.113',-2.75
'0:06.117',-2.6
'0:06.121',-2.72
'0:06.125',-2.42
'0:06.129',-2.24
'0:06.133',-2.67
'0:06.137',-3.14
'0:06.141',-2.69
'0:06.145',-1.54
'0:06.148',0.39
'0:06.152',2.21
'0:06.156',3.5
'0:06.160',5.17
'0:06.164',6.33
'0:06.168',4.62
'0:06.172',-1.14
'0:06.176',-7.19
'0:06.180',-11.19
'0:06.184',-13.25
'0:06.188',-13.74
'0:06.191',-12.92
'0:06.195',-12.13
'0:06.199',-12.13
'0:06.203',-5
'0:06.207',-2.57
'0:06.211',-0.95
'0:06.215',-0.02
'0:06.219',0.86
'0:06.223',1.74
'0:06.227',2.17
'0:06.230',2.22
'0:06.234',2.12
'0:06.238',1.91
'0:06.242',1.98
'0:06.246',2.33
'0:06.250',2.67
'0:06.254',2.92
'0:06.258',3.23
'0:06.262',3.18
'0:06.266',2.77
'0:06.270',2.59
'0:06.273',3.07
'0:06.277',3.66
'0:06.281',4.32
'0:06.285',4.76
'0:06.289',4.8
'0:06.293',4.76
'0:06.297',5.35
'0:06.301',6.11
'0:06.305',6.79
'0:06.309',6.96
'0:06.313',6.68
'0:06.316',6.45
'0:06.320',6.17
'0:06.324',5.96
'0:06.328',5.55
'0:06.332',4.8
'0:06.336',4.28
'0:06.340',4.1
'0:06.344',3.46
'0:06.348',3.27
'0:06.352',1.41
'0:06.355',0.94
'0:06.359',0.93
'0:06.363',1
'0:06.367',1.14
'0:06.371',1.39
'0:06.375',1.37
'0:06.379',1.62
'0:06.383',1.93
'0:06.387',2.34
'0:06.391',2.45
'0:06.395',2.11
'0:06.398',1.1
'0:06.402',-0.27
'0:06.406',-1.19
'0:06.410',-1.32
'0:06.414',-1.28
'0:06.418',-1.21
'0:06.422',-1.77
'0:06.426',-2.28
'0:06.430',-2.86
'0:06.434',-3.39
'0:06.438',-3
'0:06.441',-2.33
'0:06.445',-1.64
'0:06.449',-0.87
'0:06.453',0.05
'0:06.457',0.16
'0:06.461',-0.35
'0:06.465',-0.69
'0:06.469',-0.5
'0:06.473',0.53
'0:06.477',3
'0:06.480',5.84
'0:06.484',7.71
'0:06.488',8.55
'0:06.492',8.36
'0:06.496',4.91
'0:06.500',-1.12
'0:06.504',-6.87
'0:06.508',-10.33
'0:06.512',-11.87
'0:06.516',-12.21
'0:06.520',-12.2
'0:06.523',-8.12
'0:06.527',-5.83
'0:06.531',-4.18
'0:06.535',-2.96
'0:06.539',-1.65
'0:06.543',-0.77
'0:06.547',-0.03
'0:06.551',0.57
'0:06.555',0.93
'0:06.559',0.92
'0:06.563',0.44
'0:06.566',-0.05
'0:06.570',-0.07
'0:06.574',0.37
'0:06.578',1.3
'0:06.582',1.68
'0:06.586',1.77
'0:06.590',2.16
'0:06.594',1.68
'0:06.598',0.85
'0:06.602',0.96
'0:06.605',1.93
'0:06.609',3.03
'0:06.613',3.98
'0:06.617',4.97
'0:06.621',5.6
'0:06.625',5.36
'0:06.629',5.71
'0:06.633',6.55
'0:06.637',7.57
'0:06.641',8.09
'0:06.645',8.12
'0:06.648',7.54
'0:06.652',6.56
'0:06.656',5.31
'0:06.660',3.21
'0:06.664',1.92
'0:06.668',1.78
'0:06.672',1.67
'0:06.676',1.52
'0:06.680',1.49
'0:06.684',1.49
'0:06.688',1.63
'0:06.691',1.76
'0:06.695',1.46
'0:06.699',0.81
'0:06.703',0.49
'0:06.707',0.55
'0:06.711',0.54
'0:06.715',0.59
'0:06.719',0.44
'0:06.723',-0.34
'0:06.727',-1.26
'0:06.730',-1.76
'0:06.734',-1.61
'0:06.738',-1.5
'0:06.742',-1.69
'0:06.746',-2
'0:06.750',-2.77
'0:06.754',-3.48
'0:06.758',-3.66
'0:06.762',-3.81
'0:06.766',-3.92
'0:06.770',-3.63
'0:06.773',-3.35
'0:06.777',-3.27
'0:06.781',-3.35
'0:06.785',-3.33
'0:06.789',-3.29
'0:06.793',-2.96
'0:06.797',-2.15
'0:06.801',-0.95
'0:06.805',0.94
'0:06.809',2.8
'0:06.813',4.07
'0:06.816',4.64
'0:06.820',4.03
'0:06.824',-0.09
'0:06.828',-6.18
'0:06.832',-11.38
'0:06.836',-14.78
'0:06.840',-16.45
'0:06.844',-16.69
'0:06.848',-15.19
'0:06.852',-12.32
'0:06.855',-9.12
'0:06.859',-6.19
'0:06.863',-4.06
'0:06.867',-2.77
'0:06.871',-1.91
'0:06.875',-0.99
'0:06.879',-0.49
'0:06.883',-0.18
'0:06.887',0.12
'0:06.891',0.12
'0:06.895',-0.27
'0:06.898',-0.08
'0:06.902',0.46
'0:06.906',0.8
'0:06.910',1
'0:06.914',1.06
'0:06.918',1.3
'0:06.922',1.16
'0:06.926',1.62
'0:06.930',1.85
'0:06.934',2.34
'0:06.938',2.94
'0:06.941',3.79
'0:06.945',4.31
'0:06.949',4.51
'0:06.953',5.21
'0:06.957',6.57
'0:06.961',7.84
'0:06.965',8.51
'0:06.969',8.19
'0:06.973',7.17
'0:06.977',6.54
'0:06.980',6.08
'0:06.984',5.58
'0:06.988',5.23
'0:06.992',4.62
'0:06.996',3.49
'0:07.000',2.15
'0:07.004',1.31
'0:07.008',0.73
'0:07.012',-0.09
'0:07.016',-0.87
'0:07.020',-0.94
'0:07.023',-0.28
'0:07.027',0.11
'0:07.031',0.39
'0:07.035',0.85
'0:07.039',1.18
'0:07.043',1.43
'0:07.047',0.91
'0:07.051',0.3
'0:07.055',-0.07
'0:07.059',0.38
'0:07.063',0.59
'0:07.066',-0.27
'0:07.070',-1.55
'0:07.074',-2.32
'0:07.078',-2.47
'0:07.082',-2.73
'0:07.086',-2.93
'0:07.090',-3.2
'0:07.094',-3.6
'0:07.098',-3.98
'0:07.102',-4.38
'0:07.105',-4.47
'0:07.109',-3.98
'0:07.113',-3.41
'0:07.117',-3.28
'0:07.121',-2.94
'0:07.125',-2.24
'0:07.129',-1.22
'0:07.133',-0.27
'0:07.137',1.2
'0:07.141',2.57
'0:07.145',4.07
'0:07.148',4.35
'0:07.152',0.97
'0:07.156',-4.47
'0:07.160',-9.32
'0:07.164',-12.48
'0:07.168',-14.24
'0:07.172',-14.4
'0:07.176',-12.85
'0:07.180',-10.31
'0:07.184',-8.02
'0:07.188',-5.6
'0:07.191',-3.18
'0:07.195',-1.81
'0:07.199',-1.01
'0:07.203',-0.13
'0:07.207',0.62
'0:07.211',1.35
'0:07.215',2.06
'0:07.219',2.65
'0:07.223',3.08
'0:07.227',3.13
'0:07.230',2.75
'0:07.234',2.34
'0:07.238',2.22
'0:07.242',2.26
'0:07.246',2.37
'0:07.250',2.57
'0:07.254',2.68
'0:07.258',2.65
'0:07.262',2.56
'0:07.266',2.69
'0:07.270',3.11
'0:07.273',3.68
'0:07.277',4.11
'0:07.281',4.85
'0:07.285',5.76
'0:07.289',6.2
'0:07.293',6.37
'0:07.297',6.72
'0:07.301',7.02
'0:07.305',6.67
'0:07.309',5.68
'0:07.313',4.5
'0:07.316',3.83
'0:07.320',2.79
'0:07.324',1.71
'0:07.328',0.7
'0:07.332',0.39
'0:07.336',0.4
'0:07.340',0.11
'0:07.344',-0.23
'0:07.348',-0.44
'0:07.352',-0.45
'0:07.355',-0.24
'0:07.359',0.33
'0:07.363',0.83
'0:07.367',0.71
'0:07.371',0.13
'0:07.375',0.13
'0:07.379',0.45
'0:07.383',1.24
'0:07.387',1.98
'0:07.391',1.99
'0:07.395',0.9
'0:07.398',0.36
'0:07.402',0.19
'0:07.406',-0.05
'0:07.410',-0.63
'0:07.414',-1.37
'0:07.418',-1.88
'0:07.422',-1.68
'0:07.426',-1.27
'0:07.430',-1.25
'0:07.434',-1.69
'0:07.438',-1.74
'0:07.441',-2
'0:07.445',-1.77
'0:07.449',-0.82
'0:07.453',0.41
'0:07.457',1.64
'0:07.461',3.06
'0:07.465',4.75
'0:07.469',5.88
'0:07.473',7.04
'0:07.477',5.87
'0:07.480',1.58
'0:07.484',-3.46
'0:07.488',-8.69
'0:07.492',-11.74
'0:07.496',-11.92
'0:07.500',-10.46
'0:07.504',-8.58
'0:07.508',-6.75
'0:07.512',-5.36
'0:07.516',-4.87
'0:07.520',-3.51
'0:07.523',-2.81
'0:07.527',-1.17
'0:07.531',0.06
'0:07.535',0.69
'0:07.539',0.96
'0:07.543',0.76
'0:07.547',0.95
'0:07.551',1.35
'0:07.555',1.26
'0:07.559',1.51
'0:07.563',1.41
'0:07.566',1.01
'0:07.570',1.32
'0:07.574',1.89
'0:07.578',1.79
'0:07.582',1.77
'0:07.586',2.26
'0:07.590',3.28
'0:07.594',4.12
'0:07.598',4.15
'0:07.602',4.37
'0:07.605',5.09
'0:07.609',5.87
'0:07.613',6.27
'0:07.617',6.6
'0:07.621',6.72
'0:07.625',6.56
'0:07.629',6.43
'0:07.633',5.94
'0:07.637',5.03
'0:07.641',4.14
'0:07.645',3.51
'0:07.648',2.85
'0:07.652',2.27
'0:07.656',1.8
'0:07.660',1.4
'0:07.664',1.1
'0:07.668',0.98
'0:07.672',0.69
'0:07.676',0.66
'0:07.680',0.58
'0:07.684',0.49
'0:07.688',0.47
'0:07.691',0.39
'0:07.695',0.09
'0:07.699',-0.28
'0:07.703',-0.48
'0:07.707',-0.65
'0:07.711',-0.85
'0:07.715',-1.12
'0:07.719',-1.56
'0:07.723',-1.93
'0:07.727',-1.97
'0:07.730',1.15
'0:07.734',-0.56
'0:07.738',-2.8
'0:07.742',-4.28
'0:07.746',-4.9
'0:07.750',-5.61
'0:07.754',-6.1
'0:07.758',-5.8
'0:07.762',-5.55
'0:07.766',-5.84
'0:07.770',-5.83
'0:07.773',-5.24
'0:07.777',-4.08
'0:07.781',-2.63
'0:07.785',-0.77
'0:07.789',0.93
'0:07.793',2.3
'0:07.797',3.09
'0:07.801',1.38
'0:07.805',-3.79
'0:07.809',-9.34
'0:07.813',-13.74
'0:07.816',-16.06
'0:07.820',-16.45
'0:07.824',-15.63
'0:07.828',-13.04
'0:07.832',-9.33
'0:07.836',-6.14
'0:07.840',-4.1
'0:07.844',-2.96
'0:07.848',-1.71
'0:07.852',-0.57
'0:07.855',0.02
'0:07.859',0.36
'0:07.863',0.68
'0:07.867',0.9
'0:07.871',1.08
'0:07.875',1.12
'0:07.879',0.99
'0:07.883',0.97
'0:07.887',1.83
'0:07.891',2.85
'0:07.895',3.47
'0:07.898',3.8
'0:07.902',3.88
'0:07.906',3.88
'0:07.910',4.02
'0:07.914',4.48
'0:07.918',5.09
'0:07.922',5.39
'0:07.926',5.95
'0:07.930',6.47
'0:07.934',6.7
'0:07.938',6.81
'0:07.941',7.12
'0:07.945',7.2
'0:07.949',6.93
'0:07.953',6.7
'0:07.957',6.54
'0:07.961',6.31
'0:07.965',5.59
'0:07.969',4.45
'0:07.973',3.19
'0:07.977',2.5
'0:07.980',2.22
'0:07.984',1.4
'0:07.988',0.31
'0:07.992',-0.42
'0:07.996',-0.68
'0:08.000',-0.23
'0:08.004',0.25
'0:08.008',0.31
'0:08.012',0.34
'0:08.016',0.27
'0:08.020',0.3
'0:08.023',0.35
'0:08.027',0.34
'0:08.031',0.45
'0:08.035',-0.05
'0:08.039',-0.67
'0:08.043',-1.44
'0:08.047',-2.15
'0:08.051',-3.07
'0:08.055',-3.01
'0:08.059',-2.53
'0:08.063',-2.59
'0:08.066',-3.13
'0:08.070',-3.66
'0:08.074',-3.61
'0:08.078',-3.38
'0:08.082',-3.09
'0:08.086',-2.85
'0:08.090',-2.97
'0:08.094',-3.46
'0:08.098',-3.63
'0:08.102',-3.03
'0:08.105',-1.69
'0:08.109',0.22
'0:08.113',2.13
'0:08.117',3.65
'0:08.121',4.97
'0:08.125',6
'0:08.129',4.89
'0:08.133',-0.17
'0:08.137',-6.1
'0:08.141',-10.54
'0:08.145',-12.91
'0:08.148',-13.68
'0:08.152',-13.06
'0:08.156',-11.33
'0:08.160',-8.84
'0:08.164',-6.01
'0:08.168',-3.77
'0:08.172',-2.26
'0:08.176',-0.92
'0:08.180',0.18
'0:08.184',0.88
'0:08.188',1.29
'0:08.191',1.62
'0:08.195',1.57
'0:08.199',1.14
'0:08.203',0.93
'0:08.207',1.17
'0:08.211',1.56
'0:08.215',1.89
'0:08.219',2.1
'0:08.223',2.03
'0:08.227',1.83
'0:08.230',1.83
'0:08.234',2.01
'0:08.238',2.45
'0:08.242',3.09
'0:08.246',3.88
'0:08.250',4.56
'0:08.254',5.11
'0:08.258',5.42
'0:08.262',6.01
'0:08.266',6.77
'0:08.270',7.51
'0:08.273',8.31
'0:08.277',8.54
'0:08.281',8.16
'0:08.285',7.33
'0:08.289',6.61
'0:08.293',5.7
'0:08.297',4.52
'0:08.301',3.66
'0:08.305',3.03
'0:08.309',2.25
'0:08.313',1.55
'0:08.316',1.21
'0:08.320',0.64
'0:08.324',0.04
'0:08.328',0.05
'0:08.332',0.52
'0:08.336',1.04
'0:08.340',0.97
'0:08.344',0.66
'0:08.348',0.57
'0:08.352',0.7
'0:08.355',0.41
'0:08.359',0.12
'0:08.363',-0.16
'0:08.367',-0.69
'0:08.371',-0.82
'0:08.375',-1.03
'0:08.379',-1.49
'0:08.383',-2.18
'0:08.387',-2.96
'0:08.391',-3.4
'0:08.395',-3.89
'0:08.398',-4.35
'0:08.402',-4.45
'0:08.406',-3.97
'0:08.410',-3.63
'0:08.414',-3.41
'0:08.418',-3.53
'0:08.422',-3.85
'0:08.426',-3.85
'0:08.430',-3.26
'0:08.434',-2.25
'0:08.438',-0.34
'0:08.441',2.56
'0:08.445',5.35
'0:08.449',7.19
'0:08.453',7.4
'0:08.457',4.37
'0:08.461',-1.46
'0:08.465',-7.12
'0:08.469',-11.14
'0:08.473',-12.97
'0:08.477',-13.56
'0:08.480',-12.61
'0:08.484',-10.55
'0:08.488',-7.97
'0:08.492',-5.62
'0:08.496',-3.47
'0:08.500',-1.62
'0:08.504',-0.58
'0:08.508',0.85
'0:08.512',1.06
'0:08.516',1.18
'0:08.520',1.29
'0:08.523',1.8
'0:08.527',1.82
'0:08.531',1.42
'0:08.535',1.05
'0:08.539',1.32
'0:08.543',1.8
'0:08.547',2.13
'0:08.551',2.03
'0:08.555',1.86
'0:08.559',1.93
'0:08.563',1.72
'0:08.566',2.22
'0:08.570',2.63
'0:08.574',3.97
'0:08.578',5.28
'0:08.582',5.75
'0:08.586',6.14
'0:08.590',6.24
'0:08.594',6.16
'0:08.598',6.04
'0:08.602',6.25
'0:08.605',6.28
'0:08.609',5.94
'0:08.613',4.85
'0:08.617',3.44
'0:08.621',2.72
'0:08.625',1.84
'0:08.629',1.41
'0:08.633',1.16
'0:08.637',0.54
'0:08.641',0.04
'0:08.645',-0.38
'0:08.648',-0.76
'0:08.652',-1.11
'0:08.656',-1.07
'0:08.660',-0.55
'0:08.664',-0.27
'0:08.668',-0.76
'0:08.672',-1.18
'0:08.676',-1.16
'0:08.680',-1.23
'0:08.684',-0.94
'0:08.688',-0.57
'0:08.691',-0.7
'0:08.695',-1.28
'0:08.699',-1.26
'0:08.703',-0.87
'0:08.707',-1.15
'0:08.711',-1.56
'0:08.715',-1.75
'0:08.719',-1.68
'0:08.723',-1.73
'0:08.727',-2.09
'0:08.730',-2.82
'0:08.734',-2.9
'0:08.738',-2.49
'0:08.742',-1.98
'0:08.746',-2
'0:08.750',-1.97
'0:08.754',-1.48
'0:08.758',-0.47
'0:08.762',0.75
'0:08.766',2.11
'0:08.770',4.14
'0:08.773',5.66
'0:08.777',6.3
'0:08.781',4.83
'0:08.785',0.19
'0:08.789',-5.33
'0:08.793',-9.96
'0:08.797',-12.19
'0:08.801',-12.83
'0:08.805',-12.24
'0:08.809',-10.16
'0:08.813',-7.24
'0:08.816',-4.53
'0:08.820',-3.3
'0:08.824',-1.52
'0:08.828',-0.53
'0:08.832',-0.23
'0:08.836',-0.01
'0:08.840',0.65
'0:08.844',1.13
'0:08.848',1.35
'0:08.852',1.41
'0:08.855',1.17
'0:08.859',1.36
'0:08.863',1.8
'0:08.867',2.69
'0:08.871',3.04
'0:08.875',2.6
'0:08.879',2.1
'0:08.883',1.73
'0:08.887',1.26
'0:08.891',1.27
'0:08.895',1.26
'0:08.898',2.3
'0:08.902',3.71
'0:08.906',3.98
'0:08.910',3.56
'0:08.914',3.05
'0:08.918',3.49
'0:08.922',4.2
'0:08.926',4.42
'0:08.930',4.46
'0:08.934',4.46
'0:08.938',3.98
'0:08.941',3.77
'0:08.945',3.37
'0:08.949',2.64
'0:08.953',2.1
'0:08.957',1.41
'0:08.961',0.88
'0:08.965',-0.04
'0:08.969',-0.74
'0:08.973',-0.83
'0:08.977',-0.69
'0:08.980',-0.64
'0:08.984',-0.88
'0:08.988',-1.07
'0:08.992',-1.35
'0:08.996',-1.23
'0:09.000',-0.94
'0:09.004',-0.52
'0:09.008',-0.36
'0:09.012',-0.43
'0:09.016',-0.29
'0:09.020',-0.62
'0:09.023',-1.47
'0:09.027',-2.08
'0:09.031',-2.5
'0:09.035',-2.83
'0:09.039',-3.04
'0:09.043',-3.31
'0:09.047',-3.62
'0:09.051',-3.58
'0:09.055',-3.01
'0:09.059',-2.15
'0:09.063',-1.2
'0:09.066',3.74
'0:09.070',2.88
'0:09.074',-0.27
'0:09.078',-2.18
'0:09.082',-2.41
'0:09.086',-1.52
'0:09.090',0
'0:09.094',1.65
'0:09.098',2.98
'0:09.102',3.95
'0:09.105',4.01
'0:09.109',0.72
'0:09.113',-4.82
'0:09.117',-9.32
'0:09.121',-12.13
'0:09.125',-13.7
'0:09.129',-13.46
'0:09.133',-11.54
'0:09.137',-8.93
'0:09.141',-6.29
'0:09.145',-4
'0:09.148',-2.18
'0:09.152',-0.31
'0:09.156',0.95
'0:09.160',1.61
'0:09.164',1.77
'0:09.168',1.83
'0:09.172',1.86
'0:09.176',2.04
'0:09.180',2.3
'0:09.184',2.64
'0:09.188',3.08
'0:09.191',3.3
'0:09.195',3.41
'0:09.199',3.3
'0:09.203',3.1
'0:09.207',3.11
'0:09.211',3.22
'0:09.215',3.5
'0:09.219',4.04
'0:09.223',4.45
'0:09.227',4.58
'0:09.230',5.14
'0:09.234',5.8
'0:09.238',6.64
'0:09.242',7.23
'0:09.246',7.4
'0:09.250',7.36
'0:09.254',7.2
'0:09.258',6.81
'0:09.262',6.04
'0:09.266',5.14
'0:09.270',4.14
'0:09.273',3.45
'0:09.277',2.43
'0:09.281',1.65
'0:09.285',1.21
'0:09.289',0.7
'0:09.293',0.26
'0:09.297',-0.96
'0:09.301',-1.65
'0:09.305',-1.62
'0:09.309',-1.47
'0:09.313',-1.36
'0:09.316',-1.2
'0:09.320',-1
'0:09.324',-0.5
'0:09.328',-0.49
'0:09.332',-0.77
'0:09.336',-1.16
'0:09.340',-1.49
'0:09.344',-1.61
'0:09.348',-1.69
'0:09.352',-1.92
'0:09.355',-2.38
'0:09.359',-3.04
'0:09.363',-3.88
'0:09.367',-4.35
'0:09.371',-4.38
'0:09.375',-4.28
'0:09.379',-4.11
'0:09.383',-3.63
'0:09.387',-3.19
'0:09.391',-3.31
'0:09.395',-3.56
'0:09.398',-3.73
'0:09.402',-3.88
'0:09.406',-3.75
'0:09.410',-2.88
'0:09.414',-1.51
'0:09.418',-0.07
'0:09.422',1.73
'0:09.426',3.49
'0:09.430',4.96
'0:09.434',5.25
'0:09.438',1.91
'0:09.441',-3.83
'0:09.445',-9.03
'0:09.449',-12.29
'0:09.453',-14.09
'0:09.457',-14.78
'0:09.461',-13.63
'0:09.465',-11.13
'0:09.469',-7.84
'0:09.473',-5.31
'0:09.477',-3.63
'0:09.480',-2.08
'0:09.484',-1.11
'0:09.488',-0.87
'0:09.492',-0.82
'0:09.496',-0.89
'0:09.500',-0.76
'0:09.504',-0.52
'0:09.508',0.36
'0:09.512',-0.21
'0:09.516',-0.45
'0:09.520',-0.1
'0:09.523',0.43
'0:09.527',1.39
'0:09.531',2.13
'0:09.535',2.39
'0:09.539',2.13
'0:09.543',1.55
'0:09.547',1.45
'0:09.551',1.63
'0:09.555',2.43
'0:09.559',3.55
'0:09.563',4.81
'0:09.566',5.62
'0:09.570',5.89
'0:09.574',6.39
'0:09.578',6.7
'0:09.582',6.77
'0:09.586',6.76
'0:09.590',6.5
'0:09.594',6.4
'0:09.598',5.84
'0:09.602',5.2
'0:09.605',4.82
'0:09.609',4.29
'0:09.613',3.43
'0:09.617',2.72
'0:09.621',2.47
'0:09.625',2.37
'0:09.629',2.4
'0:09.633',2.09
'0:09.637',1.9
'0:09.641',1.68
'0:09.645',1.56
'0:09.648',1.46
'0:09.652',1.62
'0:09.656',2.14
'0:09.660',2.29
'0:09.664',2.06
'0:09.668',1.68
'0:09.672',1
'0:09.676',0.04
'0:09.680',-0.38
'0:09.684',-1
'0:09.688',-1.67
'0:09.691',-2.14
'0:09.695',-2.18
'0:09.699',-2.02
'0:09.703',-2.02
'0:09.707',-1.88
'0:09.711',-2.16
'0:09.715',-2.49
'0:09.719',-2.56
'0:09.723',-2.71
'0:09.727',-3.02
'0:09.730',-2.69
'0:09.734',-1.5
'0:09.738',-0.01
'0:09.742',1.9
'0:09.746',3.54
'0:09.750',4.31
'0:09.754',4.41
'0:09.758',3.49
'0:09.762',-0.25
'0:09.766',-5.92
'0:09.770',-10.51
'0:09.773',-13.66
'0:09.777',-15.28
'0:09.781',-15.41
'0:09.785',-13.82
'0:09.789',-11.01
'0:09.793',-7.86
'0:09.797',-5
'0:09.801',-2.79
'0:09.805',-1.39
'0:09.809',-0.47
'0:09.813',0.1
'0:09.816',0.38
'0:09.820',0.66
'0:09.824',0.86
'0:09.828',1.1
'0:09.832',1.4
'0:09.836',1.42
'0:09.840',1.35
'0:09.844',1.19
'0:09.848',1.18
'0:09.852',1.47
'0:09.855',1.99
'0:09.859',2.77
'0:09.863',3.15
'0:09.867',2.87
'0:09.871',2.84
'0:09.875',3.05
'0:09.879',3.67
'0:09.883',4.42
'0:09.887',4.96
'0:09.891',5.67
'0:09.895',6.42
'0:09.898',6.96
'0:09.902',6.98
'0:09.906',7.02
'0:09.910',7.1
'0:09.914',6.79
'0:09.918',6.07
'0:09.922',5.27
'0:09.926',4.64
'0:09.930',3.72
'0:09.934',3.29
'0:09.938',2.63
'0:09.941',1.88
'0:09.945',1.55
'0:09.949',1.41
'0:09.953',1.44
'0:09.957',1.34
'0:09.961',1.21
'0:09.965',0.96
'0:09.969',0.7
'0:09.973',0.72
'0:09.977',1
'0:09.980',1.36
'0:09.984',1.45
'0:09.988',1.26
'0:09.992',1.08
'0:09.996',0.8
'0:10.000',0.5
'0:10.004',-0.15
'0:10.008',-0.92
'0:10.012',-1.34
'0:10.016',-1.56
'0:10.020',-1.88
'0:10.023',-2.28
'0:10.027',-2.53
'0:10.031',-2.39
'0:10.035',-2.2
'0:10.039',-1.86
'0:10.043',-2.31
'0:10.047',-2.79
'0:10.051',-3.15
'0:10.055',-2.76
'0:10.059',-2.11
'0:10.063',-1.2
'0:10.066',0.51
'0:10.070',2.82
'0:10.074',5.11
'0:10.078',6.71
'0:10.082',7.11
'0:10.086',5.33
'0:10.090',-0.3
'0:10.094',-6.12
'0:10.098',-10.04
'0:10.102',-12.34
'0:10.105',-13.28
'0:10.109',-12.61
'0:10.113',-10.56
'0:10.117',-8
'0:10.121',-5.32
'0:10.125',-2.84
'0:10.129',-0.93
'0:10.133',0.73
'0:10.137',1.86
'0:10.141',2.13
'0:10.145',2.28
'0:10.148',2.5
'0:10.152',2.49
'0:10.156',2.49
'0:10.160',2.52
'0:10.164',2.69
'0:10.168',2.68
'0:10.172',2.3
'0:10.176',2.04
'0:10.180',2.01
'0:10.184',2.31
'0:10.188',2.67
'0:10.191',2.84
'0:10.195',2.93
'0:10.199',3.01
'0:10.203',3.29
'0:10.207',3.74
'0:10.211',4.39
'0:10.215',5.02
'0:10.219',5.61
'0:10.223',6.2
'0:10.227',6.5
'0:10.230',6.57
'0:10.234',6.6
'0:10.238',6.3
'0:10.242',5.87
'0:10.246',5.24
'0:10.250',4.73
'0:10.254',4.05
'0:10.258',3.09
'0:10.262',2.31
'0:10.266',1.58
'0:10.270',0.61
'0:10.273',-0.46
'0:10.277',-1.24
'0:10.281',-1.22
'0:10.285',-0.94
'0:10.289',-0.92
'0:10.293',-0.91
'0:10.297',-1.03
'0:10.301',-1.1
'0:10.305',-0.81
'0:10.309',-0.8
'0:10.313',-1.27
'0:10.316',-1.65
'0:10.320',-1.69
'0:10.324',-1.6
'0:10.328',-1.64
'0:10.332',-1.83
'0:10.336',-2.17
'0:10.340',-2.85
'0:10.344',-3.64
'0:10.348',-4.36
'0:10.352',-4.71
'0:10.355',-4.71
'0:10.359',-4.61
'0:10.363',-4.61
'0:10.367',-4.55
'0:10.371',-4.5
'0:10.375',-4.39
'0:10.379',-4.61
'0:10.383',-4.45
'0:10.387',-3.39
'0:10.391',-1.94
'0:10.395',-0.11
'0:10.398',1.98
'0:10.402',3.84
'0:10.406',5.24
'0:10.410',5.28
'0:10.414',1.59
'0:10.418',-4.43
'0:10.422',-9.59
'0:10.426',-12.89
'0:10.430',-14.45
'0:10.434',-14.58
'0:10.438',-13.32
'0:10.441',-10.83
'0:10.445',-8.02
'0:10.449',-5.34
'0:10.453',-2.91
'0:10.457',-1.51
'0:10.461',-0.93
'0:10.465',-0.65
'0:10.469',-0.21
'0:10.473',0.47
'0:10.477',1.02
'0:10.480',1.28
'0:10.484',1.16
'0:10.488',1.13
'0:10.492',1.27
'0:10.496',1.56
'0:10.500',1.43
'0:10.504',1.35
'0:10.508',2.08
'0:10.512',2.73
'0:10.516',2.72
'0:10.520',2.19
'0:10.523',1.72
'0:10.527',1.54
'0:10.531',1.6
'0:10.535',2.11
'0:10.539',3.09
'0:10.543',4.04
'0:10.547',4.74
'0:10.551',5.16
'0:10.555',5.34
'0:10.559',5.26
'0:10.563',4.89
'0:10.566',4.65
'0:10.570',4.51
'0:10.574',4.6
'0:10.578',4.64
'0:10.582',4.51
'0:10.586',3.69
'0:10.590',2.3
'0:10.594',1.06
'0:10.598',0.16
'0:10.602',-0.61
'0:10.605',-0.78
'0:10.609',0.03
'0:10.613',0.97
'0:10.617',1.37
'0:10.621',1.21
'0:10.625',1.04
'0:10.629',0.82
'0:10.633',0.51
'0:10.637',0.24
'0:10.641',0.12
'0:10.645',-0.32
'0:10.648',-0.81
'0:10.652',-1.46
'0:10.656',-2.29
'0:10.660',-2.85
'0:10.664',-3.6
'0:10.668',-4.07
'0:10.672',-4.05
'0:10.676',-3.9
'0:10.680',-3.81
'0:10.684',-3.54
'0:10.688',-3.21
'0:10.691',-2.83
'0:10.695',-2.56
'0:10.699',-2.61
'0:10.703',-2.87
'0:10.707',-3.02
'0:10.711',-2.47
'0:10.715',-1.37
'0:10.719',0.19
'0:10.723',1.81
'0:10.727',3.15
'0:10.730',4.24
'0:10.734',4.97
'0:10.738',4.34
'0:10.742',0.38
'0:10.746',-4.75
'0:10.750',-9.06
'0:10.754',-12.31
'0:10.758',-14.04
'0:10.762',-14.03
'0:10.766',-12.57
'0:10.770',-9.8
'0:10.773',-6.68
'0:10.777',-4.08
'0:10.781',-2.31
'0:10.785',-0.96
'0:10.789',0.2
'0:10.793',1.13
'0:10.797',1.52
'0:10.801',1.69
'0:10.805',1.89
'0:10.809',2.27
'0:10.813',2.53
'0:10.816',2.6
'0:10.820',2.6
'0:10.824',2.8
'0:10.828',3.11
'0:10.832',3.29
'0:10.836',3.32
'0:10.840',3.41
'0:10.844',3.7
'0:10.848',3.96
'0:10.852',4.18
'0:10.855',4.52
'0:10.859',4.8
'0:10.863',5.01
'0:10.867',5.24
'0:10.871',5.71
'0:10.875',6.41
'0:10.879',6.89
'0:10.883',6.95
'0:10.887',6.92
'0:10.891',6.8
'0:10.895',6.15
'0:10.898',5.38
'0:10.902',4.59
'0:10.906',4.01
'0:10.910',3.37
'0:10.914',2.62
'0:10.918',1.94
'0:10.922',1.19
'0:10.926',0.46
'0:10.930',0
'0:10.934',-0.14
'0:10.938',-0.04
'0:10.941',0.11
'0:10.945',0.02
'0:10.949',-0.06
'0:10.953',0.03
'0:10.957',-0.21
'0:10.961',-0.56
'0:10.965',-0.81
'0:10.969',-0.85
'0:10.973',-0.91
'0:10.977',-1.23
'0:10.980',-1.65
'0:10.984',-1.86
'0:10.988',-2.23
'0:10.992',-2.46
'0:10.996',-2.52
'0:11.000',-2.42
'0:11.004',-2.36
'0:11.008',-2.54
'0:11.012',-2.78
'0:11.016',-2.94
'0:11.020',-2.91
'0:11.023',-2.78
'0:11.027',-2.69
'0:11.031',-3.02
'0:11.035',-3.64
'0:11.039',-3.58
'0:11.043',-2.04
'0:11.047',0.35
'0:11.051',2.89
'0:11.055',4.77
'0:11.059',6.15
'0:11.063',6.96
'0:11.066',4.46
'0:11.070',-1.56
'0:11.074',-7.3
'0:11.078',-11.22
'0:11.082',-13.27
'0:11.086',-13.87
'0:11.090',-12.77
'0:11.094',-10.47
'0:11.098',-7.79
'0:11.102',-5.18
'0:11.105',-2.9
'0:11.109',-1.14
'0:11.113',0.07
'0:11.117',0.74
'0:11.121',1.23
'0:11.125',1.66
'0:11.129',2.06
'0:11.133',2.26
'0:11.137',2.39
'0:11.141',2.56
'0:11.145',2.52
'0:11.148',2.44
'0:11.152',2.49
'0:11.156',2.65
'0:11.160',2.69
'0:11.164',2.83
'0:11.168',3.18
'0:11.172',3.88
'0:11.176',4.06
'0:11.180',3.86
'0:11.184',3.94
'0:11.188',4.07
'0:11.191',4.13
'0:11.195',4.44
'0:11.199',5
'0:11.203',5.38
'0:11.207',5.55
'0:11.211',5.78
'0:11.215',5.72
'0:11.219',5.38
'0:11.223',4.64
'0:11.227',3.9
'0:11.230',3.29
'0:11.234',2.64
'0:11.238',1.83
'0:11.242',0.89
'0:11.246',0.22
'0:11.250',-0.28
'0:11.254',-0.6
'0:11.258',-0.78
'0:11.262',-0.69
'0:11.266',-0.46
'0:11.270',-0.11
'0:11.273',0
'0:11.277',0.16
'0:11.281',0.33
'0:11.285',0.29
'0:11.289',0.07
'0:11.293',-0.06
'0:11.297',-0.15
'0:11.301',-0.23
'0:11.305',-0.45
'0:11.309',-0.94
'0:11.313',-1.4
'0:11.316',-1.99
'0:11.320',-2.71
'0:11.324',-3.14
'0:11.328',-3.36
'0:11.332',-3.43
'0:11.336',-3.36
'0:11.340',-3.4
'0:11.344',-3.5
'0:11.348',-3.47
'0:11.352',-3.4
'0:11.355',-3.31
'0:11.359',-2.98
'0:11.363',-1.72
'0:11.367',-0.14
'0:11.371',1.77
'0:11.375',4.03
'0:11.379',5.71
'0:11.383',6.59
'0:11.387',6.82
'0:11.391',4.17
'0:11.395',-1.65
'0:11.398',-7.14
'0:11.402',-11.12
'0:11.406',-13.52
'0:11.410',-14.15
'0:11.414',-13.27
'0:11.418',-11.06
'0:11.422',-8.26
'0:11.426',-5.5
'0:11.430',-3.37
'0:11.434',-2.14
'0:11.438',-1.52
'0:11.441',-1.01
'0:11.445',-0.5
'0:11.449',0.06
'0:11.453',0.4
'0:11.457',0.78
'0:11.461',1.14
'0:11.465',1.36
'0:11.469',1.4
'0:11.473',1.35
'0:11.477',1.47
'0:11.480',1.61
'0:11.484',1.47
'0:11.488',0.89
'0:11.492',0.52
'0:11.496',0.73
'0:11.500',0.96
'0:11.504',1.32
'0:11.508',2.09
'0:11.512',2.97
'0:11.516',3.52
'0:11.520',4.03
'0:11.523',4.55
'0:11.527',5.02
'0:11.531',5.35
'0:11.535',5.6
'0:11.539',5.77
'0:11.543',5.69
'0:11.547',5.38
'0:11.551',4.57
'0:11.555',3.38
'0:11.559',2.25
'0:11.563',1.03
'0:11.566',0.21
'0:11.570',-0.25
'0:11.574',-0.21
'0:11.578',0.12
'0:11.582',0.02
'0:11.586',0.04
'0:11.590',0.11
'0:11.594',0.22
'0:11.598',0
'0:11.602',-0.3
'0:11.605',-0.16
'0:11.609',0.01
'0:11.613',-0.08
'0:11.617',-0.36
'0:11.621',-0.99
'0:11.625',-1.68
'0:11.629',-2.1
'0:11.633',-2.2
'0:11.637',-2.25
'0:11.641',-2.46
'0:11.645',-2.75
'0:11.648',-2.92
'0:11.652',-3.03
'0:11.656',-3.23
'0:11.660',-3.15
'0:11.664',-2.96
'0:11.668',-2.83
'0:11.672',-2.62
'0:11.676',-2.55
'0:11.680',-2.57
'0:11.684',-2.53
'0:11.688',-1.94
'0:11.691',-0.73
'0:11.695',0.48
'0:11.699',1.68
'0:11.703',3.46
'0:11.707',5.55
'0:11.711',7.56
'0:11.715',7.72
'0:11.719',3.84
'0:11.723',-1.93
'0:11.727',-6.85
'0:11.730',-10.09
'0:11.734',-11.84
'0:11.738',-11.76
'0:11.742',-10.14
'0:11.746',-7.7
'0:11.750',-4.93
'0:11.754',-2.44
'0:11.758',-0.95
'0:11.762',-0.07
'0:11.766',0.65
'0:11.770',1.41
'0:11.773',1.95
'0:11.777',2.21
'0:11.781',2.4
'0:11.785',2.57
'0:11.789',2.59
'0:11.793',2.53
'0:11.797',2.42
'0:11.801',2.44
'0:11.805',2.62
'0:11.809',2.84
'0:11.813',2.79
'0:11.816',2.66
'0:11.820',2.57
'0:11.824',2.72
'0:11.828',3.03
'0:11.832',3.37
'0:11.836',3.86
'0:11.840',4.42
'0:11.844',4.87
'0:11.848',5.34
'0:11.852',5.77
'0:11.855',6.22
'0:11.859',6.69
'0:11.863',6.87
'0:11.867',6.82
'0:11.871',6.54
'0:11.875',5.99
'0:11.879',5.33
'0:11.883',4.39
'0:11.887',3.47
'0:11.891',2.76
'0:11.895',2.1
'0:11.898',1.45
'0:11.902',0.86
'0:11.906',0.53
'0:11.910',0.36
'0:11.914',0.26
'0:11.918',0.04
'0:11.922',-0.24
'0:11.926',-0.42
'0:11.930',-0.47
'0:11.934',-0.56
'0:11.938',-0.67
'0:11.941',-0.78
'0:11.945',-0.74
'0:11.949',-0.77
'0:11.953',-1.01
'0:11.957',-1.46
'0:11.961',-2.07
'0:11.965',-2.5
'0:11.969',-3.03
'0:11.973',-3.86
'0:11.977',-4.47
'0:11.980',-4.65
'0:11.984',-4.63
'0:11.988',-4.54
'0:11.992',-4.55
'0:11.996',-4.6
'0:12.000',-4.66
'0:12.004',-4.64
'0:12.008',-4.6
'0:12.012',-4.59
'0:12.016',-4.34
'0:12.020',-3.41
'0:12.023',-1.84
'0:12.027',0.07
'0:12.031',2.26
'0:12.035',4.21
'0:12.039',5.67
'0:12.043',6.11
'0:12.047',2.97
'0:12.051',-2.83
'0:12.055',-8.21
'0:12.059',-11.96
'0:12.063',-14.2
'0:12.066',-14.95
'0:12.070',-14.18
'0:12.074',-12.16
'0:12.078',-9.37
'0:12.082',-6.63
'0:12.086',-4.24
'0:12.090',-2.63
'0:12.094',-1.64
'0:12.098',-1.18
'0:12.102',-0.87
'0:12.105',-0.15
'0:12.109',0.58
'0:12.113',0.85
'0:12.117',0.92
'0:12.121',0.84
'0:12.125',0.82
'0:12.129',1.05
'0:12.133',1.21
'0:12.137',1.35
'0:12.141',1.61
'0:12.145',1.94
'0:12.148',1.95
'0:12.152',2.06
'0:12.156',2.53
'0:12.160',3.07
'0:12.164',3.45
'0:12.168',3.77
'0:12.172',4
'0:12.176',4.56
'0:12.180',5.29
'0:12.184',5.95
'0:12.188',6.4
'0:12.191',6.59
'0:12.195',6.82
'0:12.199',6.67
'0:12.203',6.26
'0:12.207',5.3
'0:12.211',4.19
'0:12.215',3.43
'0:12.219',2.85
'0:12.223',2.33
'0:12.227',1.96
'0:12.230',1.38
'0:12.234',1.02
'0:12.238',0.6
'0:12.242',0.27
'0:12.246',0.23
'0:12.250',0.2
'0:12.254',0.29
'0:12.258',0.78
'0:12.262',1.13
'0:12.266',1.13
'0:12.270',1.01
'0:12.273',0.74
'0:12.277',0.31
'0:12.281',-0.16
'0:12.285',-0.54
'0:12.289',-0.91
'0:12.293',-1.45
'0:12.297',-1.99
'0:12.301',-2.14
'0:12.305',-2.07
'0:12.309',-1.99
'0:12.313',-2.02
'0:12.316',-2.02
'0:12.320',-2.03
'0:12.324',-2.12
'0:12.328',-2.18
'0:12.332',-2.43
'0:12.336',-2.56
'0:12.340',-2.02
'0:12.344',-0.61
'0:12.348',1.26
'0:12.352',3.43
'0:12.355',5.47
'0:12.359',7.02
'0:12.363',7.9
'0:12.367',7.27
'0:12.371',2.72
'0:12.375',-3.52
'0:12.379',-8.51
'0:12.383',-11.74
'0:12.387',-13.37
'0:12.391',-13.58
'0:12.395',-12.22
'0:12.398',-9.8
'0:12.402',-6.98
'0:12.406',-4.42
'0:12.410',-2.44
'0:12.414',-0.92
'0:12.418',0.28
'0:12.422',1.06
'0:12.426',1.4
'0:12.430',1.45
'0:12.434',1.59
'0:12.438',1.75
'0:12.441',1.83
'0:12.445',1.76
'0:12.449',1.84
'0:12.453',1.9
'0:12.457',2.04
'0:12.461',2.17
'0:12.465',2.26
'0:12.469',2.27
'0:12.473',2.31
'0:12.477',2.37
'0:12.480',2.24
'0:12.484',2.22
'0:12.488',2.6
'0:12.492',3.11
'0:12.496',3.77
'0:12.500',4.5
'0:12.504',5.27
'0:12.508',5.86
'0:12.512',6.2
'0:12.516',6.26
'0:12.520',6.35
'0:12.523',6.22
'0:12.527',5.42
'0:12.531',4.39
'0:12.535',3.59
'0:12.539',2.88
'0:12.543',2.04
'0:12.547',1.2
'0:12.551',0.51
'0:12.555',-0.04
'0:12.559',-0.41
'0:12.563',-0.74
'0:12.566',-0.6
'0:12.570',-0.25
'0:12.574',-0.11
'0:12.578',-0.25
'0:12.582',-0.25
'0:12.586',0.17
'0:12.590',0.27
'0:12.594',-0.06
'0:12.598',-0.29
'0:12.602',-0.24
'0:12.605',-0.31
'0:12.609',-0.42
'0:12.613',-0.74
'0:12.617',-1.32
'0:12.621',-1.82
'0:12.625',-2.24
'0:12.629',-2.67
'0:12.633',-2.97
'0:12.637',-2.74
'0:12.641',-2.56
'0:12.645',-2.5
'0:12.648',-2.48
'0:12.652',-2.59
'0:12.656',-2.91
'0:12.660',-3.16
'0:12.664',-3
'0:12.668',-2.13
'0:12.672',-0.79
'0:12.676',1.07
'0:12.680',1.49
'0:12.684',6.07
'0:12.688',7.36
'0:12.691',5.96
'0:12.695',0.98
'0:12.699',-4.61
'0:12.703',-8.97
'0:12.707',-11.84
'0:12.711',-13.11
'0:12.715',-12.66
'0:12.719',-10.7
'0:12.723',-7.98
'0:12.727',-5.26
'0:12.730',-3.22
'0:12.734',-2.01
'0:12.738',-1.13
'0:12.742',-0.36
'0:12.746',0.08
'0:12.750',0.41
'0:12.754',0.94
'0:12.758',1.25
'0:12.762',1.37
'0:12.766',1.38
'0:12.770',1.44
'0:12.773',1.38
'0:12.777',1.43
'0:12.781',1.65
'0:12.785',1.99
'0:12.789',2.1
'0:12.793',1.97
'0:12.797',1.88
'0:12.801',2.11
'0:12.805',2.31
'0:12.809',2.48
'0:12.813',2.8
'0:12.816',3.25
'0:12.820',3.97
'0:12.824',4.76
'0:12.828',5.44
'0:12.832',6.13
'0:12.836',6.57
'0:12.840',6.61
'0:12.844',6.39
'0:12.848',5.95
'0:12.852',5.38
'0:12.855',4.72
'0:12.859',4.09
'0:12.863',3.43
'0:12.867',2.64
'0:12.871',1.84
'0:12.875',1.21
'0:12.879',0.83
'0:12.883',0.53
'0:12.887',0.29
'0:12.891',0.01
'0:12.895',-0.21
'0:12.898',-0.33
'0:12.902',-0.41
'0:12.906',-0.45
'0:12.910',-0.57
'0:12.914',-0.67
'0:12.918',-0.81
'0:12.922',-0.95
'0:12.926',-1.21
'0:12.930',-1.58
'0:12.934',-1.85
'0:12.938',-2.27
'0:12.941',-2.92
'0:12.945',-3.67
'0:12.949',-4.27
'0:12.953',-4.64
'0:12.957',-4.66
'0:12.961',-4.46
'0:12.965',-4.5
'0:12.969',-4.52
'0:12.973',-4.5
'0:12.977',-4.57
'0:12.980',-4.47
'0:12.984',-4.56
'0:12.988',-4.58
'0:12.992',-3.99
'0:12.996',-2.9
'0:13.000',-1.34
'0:13.004',0.58
'0:13.008',2.26
'0:13.012',3.34
'0:13.016',3.68
'0:13.020',1.46
'0:13.023',-3.81
'0:13.027',-9.33
'0:13.031',-13.35
'0:13.035',-15.36
'0:13.039',-15.84
'0:13.043',-14.9
'0:13.047',-12.63
'0:13.051',-9.68
'0:13.055',-6.8
'0:13.059',-4.45
'0:13.063',-2.62
'0:13.066',-1.28
'0:13.070',-0.56
'0:13.074',-0.2
'0:13.078',0.1
'0:13.082',0.36
'0:13.086',0.46
'0:13.090',0.6
'0:13.094',0.86
'0:13.098',1.24
'0:13.102',1.61
'0:13.105',1.68
'0:13.109',1.59
'0:13.113',1.59
'0:13.117',1.7
'0:13.121',1.96
'0:13.125',2.15
'0:13.129',2.28
'0:13.133',2.47
'0:13.137',2.91
'0:13.141',3.51
'0:13.145',4.26
'0:13.148',4.91
'0:13.152',5.44
'0:13.156',5.96
'0:13.160',6.7
'0:13.164',7.04
'0:13.168',6.98
'0:13.172',6.72
'0:13.176',6.16
'0:13.180',5.59
'0:13.184',4.99
'0:13.188',4.3
'0:13.191',3.5
'0:13.195',2.62
'0:13.199',1.86
'0:13.203',1.2
'0:13.207',0.78
'0:13.211',0.46
'0:13.215',0.36
'0:13.219',0.6
'0:13.223',0.75
'0:13.227',0.81
'0:13.230',0.89
'0:13.234',1.18
'0:13.238',1.57
'0:13.242',1.56
'0:13.246',1.13
'0:13.250',0.75
'0:13.254',0.35
'0:13.258',-0.08
'0:13.262',-0.57
'0:13.266',-1.36
'0:13.270',-1.89
'0:13.273',-2.05
'0:13.277',-2.19
'0:13.281',-2.15
'0:13.285',-2.07
'0:13.289',-2.13
'0:13.293',-2.25
'0:13.297',-2.31
'0:13.301',-2.2
'0:13.305',-2.24
'0:13.309',-2.24
'0:13.313',-1.83
'0:13.316',-0.77
'0:13.320',0.29
'0:13.324',1.76
'0:13.328',3.49
'0:13.332',5.21
'0:13.336',6.47
'0:13.340',6.99
'0:13.344',4.59
'0:13.348',-1.06
'0:13.352',-6.27
'0:13.355',-10.01
'0:13.359',-12.04
'0:13.363',-12.52
'0:13.367',-11.45
'0:13.371',-9.69
'0:13.375',-7.19
'0:13.379',-4.44
'0:13.383',-2.2
'0:13.387',-0.61
'0:13.391',0.51
'0:13.395',1.53
'0:13.398',2.12
'0:13.402',2.6
'0:13.406',3.08
'0:13.410',3.28
'0:13.414',3.21
'0:13.418',2.93
'0:13.422',2.7
'0:13.426',2.77
'0:13.430',2.96
'0:13.434',3.1
'0:13.438',2.94
'0:13.441',2.85
'0:13.445',2.72
'0:13.449',2.63
'0:13.453',2.84
'0:13.457',3.13
'0:13.461',3.27
'0:13.465',3.55
'0:13.469',3.66
'0:13.473',5.43
'0:13.477',6.12
'0:13.480',6.49
'0:13.484',6.65
'0:13.488',6.61
'0:13.492',6.52
'0:13.496',6.21
'0:13.500',5.55
'0:13.504',4.9
'0:13.508',4.31
'0:13.512',3.7
'0:13.516',3.02
'0:13.520',2.29
'0:13.523',1.68
'0:13.527',0.91
'0:13.531',0.28
'0:13.535',-0.24
'0:13.539',-0.98
'0:13.543',-1.28
'0:13.547',-1.04
'0:13.551',-0.65
'0:13.555',-0.35
'0:13.559',-0.08
'0:13.563',0.08
'0:13.566',0.12
'0:13.570',0.04
'0:13.574',-0.21
'0:13.578',-0.64
'0:13.582',-1.04
'0:13.586',-1.36
'0:13.590',-1.83
'0:13.594',-2.49
'0:13.598',-2.86
'0:13.602',-2.97
'0:13.605',-2.95
'0:13.609',-2.86
'0:13.613',-2.64
'0:13.617',-2.45
'0:13.621',-2.28
'0:13.625',-2.26
'0:13.629',-2.47
'0:13.633',-2.82
'0:13.637',-2.85
'0:13.641',-2.14
'0:13.645',-0.6
'0:13.648',1.45
'0:13.652',3.84
'0:13.656',5.88
'0:13.660',7.28
'0:13.664',7.4
'0:13.668',3.5
'0:13.672',-2.84
'0:13.676',-8.24
'0:13.680',-11.73
'0:13.684',-13.4
'0:13.688',-13.53
'0:13.691',-12.16
'0:13.695',-9.79
'0:13.699',-7.17
'0:13.703',-4.77
'0:13.707',-2.93
'0:13.711',-1.59
'0:13.715',-0.63
'0:13.719',-0.05
'0:13.723',0.27
'0:13.727',0.47
'0:13.730',0.68
'0:13.734',0.9
'0:13.738',1.33
'0:13.742',1.57
'0:13.746',1.68
'0:13.750',1.71
'0:13.754',1.69
'0:13.758',1.57
'0:13.762',1.48
'0:13.766',1.46
'0:13.770',1.56
'0:13.773',1.63
'0:13.777',1.77
'0:13.781',1.82
'0:13.785',2.06
'0:13.789',2.67
'0:13.793',3.35
'0:13.797',4.07
'0:13.801',4.65
'0:13.805',5.07
'0:13.809',5.39
'0:13.813',5.64
'0:13.816',5.68
'0:13.820',5.55
'0:13.824',5.27
'0:13.828',4.66
'0:13.832',3.88
'0:13.836',3.04
'0:13.840',2.26
'0:13.844',1.68
'0:13.848',1.04
'0:13.852',0.48
'0:13.855',0.19
'0:13.859',-0.03
'0:13.863',-0.43
'0:13.867',-0.65
'0:13.871',-0.65
'0:13.875',-0.7
'0:13.879',-0.78
'0:13.883',-0.75
'0:13.887',-0.65
'0:13.891',-0.67
'0:13.895',-0.83
'0:13.898',-1.03
'0:13.902',-1.26
'0:13.906',-1.74
'0:13.910',-2.44
'0:13.914',-2.96
'0:13.918',-3.36
'0:13.922',-3.71
'0:13.926',-3.96
'0:13.930',-4.14
'0:13.934',-4.16
'0:13.938',-4.06
'0:13.941',-3.89
'0:13.945',-3.98
'0:13.949',-4.04
'0:13.953',-3.81
'0:13.957',-3.76
'0:13.961',-3.88
'0:13.965',-3.5
'0:13.969',-2.72
'0:13.973',-1.31
'0:13.977',0.88
'0:13.980',3.18
'0:13.984',4.87
'0:13.988',5.93
'0:13.992',4.79
'0:13.996',0.08
'0:14.000',-5.79
'0:14.004',-10.6
'0:14.008',-13.58
'0:14.012',-14.47
'0:14.016',-13.69
'0:14.020',-11.8
'0:14.023',-9.21
'0:14.027',-6.82
'0:14.031',-4.76
'0:14.035',-3.07
'0:14.039',-1.77
'0:14.043',-1
'0:14.047',-0.62
'0:14.051',-0.35
'0:14.055',-0.15
'0:14.059',-0.03
'0:14.063',-0.12
'0:14.066',-0.01
'0:14.070',0.29
'0:14.074',0.89
'0:14.078',1.3
'0:14.082',1.33
'0:14.086',0.91
'0:14.090',0.55
'0:14.094',0.65
'0:14.098',0.93
'0:14.102',1.21
'0:14.105',1.5
'0:14.109',1.81
'0:14.113',2.23
'0:14.117',2.79
'0:14.121',3.44
'0:14.125',4.17
'0:14.129',4.79
'0:14.133',5.44
'0:14.137',6.04
'0:14.141',6.42
'0:14.145',6.44
'0:14.148',6.17
'0:14.152',5.64
'0:14.156',4.93
'0:14.160',4.08
'0:14.164',3.23
'0:14.168',2.55
'0:14.172',1.99
'0:14.176',1.57
'0:14.180',1.15
'0:14.184',0.87
'0:14.188',0.74
'0:14.191',0.78
'0:14.195',0.78
'0:14.199',0.74
'0:14.203',0.7
'0:14.207',0.85
'0:14.211',0.94
'0:14.215',1.03
'0:14.219',0.87
'0:14.223',0.6
'0:14.227',0.42
'0:14.230',0.26
'0:14.234',-0.04
'0:14.238',-0.52
'0:14.242',-1.13
'0:14.246',-1.53
'0:14.250',-1.9
'0:14.254',-2.27
'0:14.258',-2.46
'0:14.262',-2.53
'0:14.266',-2.42
'0:14.270',-2.18
'0:14.273',-2.15
'0:14.277',-2.32
'0:14.281',-2.43
'0:14.285',-2.52
'0:14.289',-2.48
'0:14.293',-1.97
'0:14.297',-0.96
'0:14.301',0.25
'0:14.305',1.94
'0:14.309',2.08
'0:14.313',5.04
'0:14.316',5.9
'0:14.320',5.25
'0:14.324',1.23
'0:14.328',-4.16
'0:14.332',-8.72
'0:14.336',-11.81
'0:14.340',-13.07
'0:14.344',-12.69
'0:14.348',-10.88
'0:14.352',-8.46
'0:14.355',-5.88
'0:14.359',-3.68
'0:14.363',-1.94
'0:14.367',-0.63
'0:14.371',0.32
'0:14.375',1.03
'0:14.379',1.7
'0:14.383',2.04
'0:14.387',2.12
'0:14.391',2.2
'0:14.395',2.2
'0:14.398',2.25
'0:14.402',2.4
'0:14.406',2.62
'0:14.410',2.82
'0:14.414',2.79
'0:14.418',2.62
'0:14.422',2.56
'0:14.426',2.67
'0:14.430',2.98
'0:14.434',3.3
'0:14.438',3.47
'0:14.441',3.73
'0:14.445',4.34
'0:14.449',5.17
'0:14.453',5.89
'0:14.457',6.28
'0:14.461',6.33
'0:14.465',6.31
'0:14.469',6.41
'0:14.473',6.36
'0:14.477',6.26
'0:14.480',5.98
'0:14.484',5.32
'0:14.488',4.44
'0:14.492',3.59
'0:14.496',2.71
'0:14.500',1.8
'0:14.504',0.98
'0:14.508',0.46
'0:14.512',0.26
'0:14.516',0.22
'0:14.520',0.14
'0:14.523',0.14
'0:14.527',0.31
'0:14.531',0.5
'0:14.535',0.59
'0:14.539',0.62
'0:14.543',0.37
'0:14.547',0.06
'0:14.551',-0.04
'0:14.555',-0.09
'0:14.559',-0.19
'0:14.563',-0.66
'0:14.566',-1.25
'0:14.570',-1.58
'0:14.574',-2.09
'0:14.578',-2.65
'0:14.582',-3.22
'0:14.586',-3.67
'0:14.590',-3.86
'0:14.594',-3.73
'0:14.598',-3.64
'0:14.602',-3.16
'0:14.605',-2.55
'0:14.609',-2.3
'0:14.613',-2.37
'0:14.617',-2.41
'0:14.621',-1.62
'0:14.625',-0.04
'0:14.629',1.78
'0:14.633',3.79
'0:14.637',5.75
'0:14.641',7.19
'0:14.645',7.29
'0:14.648',3.41
'0:14.652',-2.66
'0:14.656',-7.54
'0:14.660',-10.97
'0:14.664',-12.88
'0:14.668',-13.21
'0:14.672',-11.71
'0:14.676',-9.32
'0:14.680',-6.61
'0:14.684',-3.99
'0:14.688',-1.75
'0:14.691',-0.62
'0:14.695',0.31
'0:14.699',1.15
'0:14.703',1.6
'0:14.707',1.82
'0:14.711',1.95
'0:14.715',2.03
'0:14.719',2.16
'0:14.723',2.42
'0:14.727',2.7
'0:14.730',2.69
'0:14.734',3.01
'0:14.738',3.61
'0:14.742',3.83
'0:14.746',3.78
'0:14.750',3.31
'0:14.754',2.88
'0:14.758',3.13
'0:14.762',3.9
'0:14.766',4.2
'0:14.770',4.25
'0:14.773',4.92
'0:14.777',5.83
'0:14.781',6.56
'0:14.785',6.88
'0:14.789',7.03
'0:14.793',7.14
'0:14.797',7.09
'0:14.801',6.97
'0:14.805',6.45
'0:14.809',5.35
'0:14.813',4.35
'0:14.816',3.54
'0:14.820',2.72
'0:14.824',1.93
'0:14.828',1.09
'0:14.832',0.29
'0:14.836',-0.14
'0:14.840',-0.33
'0:14.844',-0.31
'0:14.848',-0.25
'0:14.852',-0.2
'0:14.855',-0.21
'0:14.859',-0.24
'0:14.863',-0.14
'0:14.867',-0.13
'0:14.871',-0.3
'0:14.875',-0.59
'0:14.879',-0.81
'0:14.883',-1.14
'0:14.887',-1.53
'0:14.891',-1.99
'0:14.895',-2.46
'0:14.898',-2.89
'0:14.902',-3.37
'0:14.906',-3.77
'0:14.910',-4.02
'0:14.914',-4.11
'0:14.918',-4.12
'0:14.922',-4.03
'0:14.926',-4.05
'0:14.930',-4.14
'0:14.934',-4.17
'0:14.938',-4.15
'0:14.941',-3.99
'0:14.945',-3.41
'0:14.949',-2.01
'0:14.953',0.07
'0:14.957',2.37
'0:14.961',4.18
'0:14.965',5.29
'0:14.969',5.4
'0:14.973',2.09
'0:14.977',-3.83
'0:14.980',-8.96
'0:14.984',-12.48
'0:14.988',-14.59
'0:14.992',-15.22
'0:14.996',-14.3
'0:15.000',-12.2
'0:15.004',-9.48
'0:15.008',-6.86
'0:15.012',-4.71
'0:15.016',-3.06
'0:15.020',-1.97
'0:15.023',-1.43
'0:15.027',-1.12
'0:15.031',-0.73
'0:15.035',-0.25
'0:15.039',0.04
'0:15.043',0.08
'0:15.047',0.16
'0:15.051',0.4
'0:15.055',0.7
'0:15.059',0.91
'0:15.063',1.02
'0:15.066',1.05
'0:15.070',1
'0:15.074',1.03
'0:15.078',1.03
'0:15.082',1.16
'0:15.086',1.49
'0:15.090',1.85
'0:15.094',2.22
'0:15.098',2.66
'0:15.102',3.29
'0:15.105',4.15
'0:15.109',4.96
'0:15.113',5.55
'0:15.117',5.91
'0:15.121',6
'0:15.125',5.84
'0:15.129',5.53
'0:15.133',4.9
'0:15.137',4.08
'0:15.141',3.38
'0:15.145',2.71
'0:15.148',1.8
'0:15.152',0.93
'0:15.156',0.15
'0:15.160',-0.54
'0:15.164',-0.96
'0:15.168',-1.05
'0:15.172',-0.89
'0:15.176',-0.69
'0:15.180',-0.47
'0:15.184',-0.22
'0:15.188',-0.13
'0:15.191',-0.18
'0:15.195',-0.52
'0:15.199',-0.76
'0:15.203',-1.11
'0:15.207',-1.46
'0:15.211',-1.82
'0:15.215',-2.06
'0:15.219',-2.22
'0:15.223',-2.47
'0:15.227',-2.95
'0:15.230',-3.45
'0:15.234',-3.68
'0:15.238',-3.54
'0:15.242',-3.39
'0:15.246',-3.33
'0:15.250',-3.18
'0:15.254',-3.1
'0:15.258',-2.97
'0:15.262',-2.74
'0:15.266',-2.65
'0:15.270',-2.46
'0:15.273',-1.7
'0:15.277',-0.5
'0:15.281',1.17
'0:15.285',3.38
'0:15.289',5.58
'0:15.293',7.16
'0:15.297',7.48
'0:15.301',4.76
'0:15.305',-0.96
'0:15.309',-6.72
'0:15.313',-10.85
'0:15.316',-12.59
'0:15.320',-12.6
'0:15.324',-11.47
'0:15.328',-9.73
'0:15.332',-7.33
'0:15.336',-4.71
'0:15.340',-2.59
'0:15.344',-1.06
'0:15.348',-0.04
'0:15.352',0.67
'0:15.355',1.47
'0:15.359',1.97
'0:15.363',1.9
'0:15.367',1.66
'0:15.371',1.83
'0:15.375',2.09
'0:15.379',2.12
'0:15.383',1.96
'0:15.387',1.91
'0:15.391',2.08
'0:15.395',2.48
'0:15.398',2.37
'0:15.402',1.58
'0:15.406',1.41
'0:15.410',2.08
'0:15.414',3.16
'0:15.418',4.06
'0:15.422',4.7
'0:15.426',5.06
'0:15.430',5.29
'0:15.434',5.81
'0:15.438',6.41
'0:15.441',6.64
'0:15.445',6.73
'0:15.449',6.71
'0:15.453',6.62
'0:15.457',6.32
'0:15.461',6
'0:15.465',5.44
'0:15.469',4.37
'0:15.473',3.3
'0:15.477',2.58
'0:15.480',2.35
'0:15.484',2.15
'0:15.488',1.75
'0:15.492',1.34
'0:15.496',1.04
'0:15.500',0.82
'0:15.504',0.73
'0:15.508',0.76
'0:15.512',0.76
'0:15.516',0.74
'0:15.520',0.66
'0:15.523',0.55
'0:15.527',0.32
'0:15.531',-0.2
'0:15.535',-0.57
'0:15.539',-0.87
'0:15.543',-1.28
'0:15.547',-1.83
'0:15.551',-2.49
'0:15.555',-2.99
'0:15.559',-3.22
'0:15.563',-3.46
'0:15.566',-3.67
'0:15.570',-3.7
'0:15.574',-3.61
'0:15.578',-3.51
'0:15.582',-3.44
'0:15.586',-3.29
'0:15.590',-3.26
'0:15.594',-3.33
'0:15.598',-3.36
'0:15.602',-2.69
'0:15.605',-1.53
'0:15.609',-0.07
'0:15.613',1.8
'0:15.617',3.6
'0:15.621',4.84
'0:15.625',5.36
'0:15.629',3.04
'0:15.633',-2.28
'0:15.637',-7.58
'0:15.641',-11.45
'0:15.645',-13.51
'0:15.648',-13.94
'0:15.652',-12.8
'0:15.656',-10.59
'0:15.660',-7.84
'0:15.664',-5.13
'0:15.668',-2.97
'0:15.672',-1.51
'0:15.676',-0.57
'0:15.680',-0.04
'0:15.684',0.4
'0:15.688',0.88
'0:15.691',1.3
'0:15.695',1.55
'0:15.699',1.73
'0:15.703',1.71
'0:15.707',1.7
'0:15.711',1.86
'0:15.715',2.2
'0:15.719',2.48
'0:15.723',2.43
'0:15.727',2.38
'0:15.730',2.64
'0:15.734',2.93
'0:15.738',3.21
'0:15.742',3.43
'0:15.746',3.73
'0:15.750',4.23
'0:15.754',4.79
'0:15.758',5.49
'0:15.762',6.42
'0:15.766',7.13
'0:15.770',7.47
'0:15.773',7.64
'0:15.777',7.69
'0:15.781',7.44
'0:15.785',6.94
'0:15.789',6.24
'0:15.793',5.24
'0:15.797',4.27
'0:15.801',3.34
'0:15.805',2.53
'0:15.809',1.85
'0:15.813',1.15
'0:15.816',0.8
'0:15.820',0.71
'0:15.824',0.69
'0:15.828',0.5
'0:15.832',0.42
'0:15.836',0.44
'0:15.840',0.41
'0:15.844',0.44
'0:15.848',0.47
'0:15.852',0.51
'0:15.855',0.46
'0:15.859',0.13
'0:15.863',-0.49
'0:15.867',-0.94
'0:15.871',-1.45
'0:15.875',-2.07
'0:15.879',-2.6
'0:15.883',-2.79
'0:15.887',-3.07
'0:15.891',-3.32
'0:15.895',-3.48
'0:15.898',-3.69
'0:15.902',-3.82
'0:15.906',-3.73
'0:15.910',-3.7
'0:15.914',-3.49
'0:15.918',-3.51
'0:15.922',-3.63
'0:15.926',-3.13
'0:15.930',-1.85
'0:15.934',-0.13
'0:15.938',2.21
'0:15.941',4.51
'0:15.945',6.11
'0:15.949',6.76
'0:15.953',4.64
'0:15.957',-1.24
'0:15.961',-7.07
'0:15.965',-11.12
'0:15.969',-13.41
'0:15.973',-14.17
'0:15.977',-13.48
'0:15.980',-11.49
'0:15.984',-8.76
'0:15.988',-6.02
'0:15.992',-3.56
'0:15.996',-1.63
'0:16.000',-0.49
'0:16.004',0.33
'0:16.008',0.88
'0:16.012',1.09
'0:16.016',1.21
'0:16.020',1.43
'0:16.023',1.67
'0:16.027',1.75
'0:16.031',1.94
'0:16.035',2.15
'0:16.039',2.16
'0:16.043',2.08
'0:16.047',2.34
'0:16.051',2.69
'0:16.055',2.83
'0:16.059',2.82
'0:16.063',3.24
'0:16.066',3.7
'0:16.070',3.92
'0:16.074',4.08
'0:16.078',4.57
'0:16.082',5.25
'0:16.086',5.8
'0:16.090',6.3
'0:16.094',6.87
'0:16.098',7.18
'0:16.102',7.07
'0:16.105',6.68
'0:16.109',6.06
'0:16.113',5.35
'0:16.117',4.29
'0:16.121',3.16
'0:16.125',2.39
'0:16.129',1.82
'0:16.133',0.98
'0:16.137',0.36
'0:16.141',-0.08
'0:16.145',-0.74
'0:16.148',-1.07
'0:16.152',-0.95
'0:16.156',-0.74
'0:16.160',-0.59
'0:16.164',-0.47
'0:16.168',-0.46
'0:16.172',-0.54
'0:16.176',-0.56
'0:16.180',-0.46
'0:16.184',-0.59
'0:16.188',-0.81
'0:16.191',-1.35
'0:16.195',-1.84
'0:16.199',-2.24
'0:16.203',-2.44
'0:16.207',-2.7
'0:16.211',-3.2
'0:16.215',-3.65
'0:16.219',-3.91
'0:16.223',-3.86
'0:16.227',-3.7
'0:16.230',-3.69
'0:16.234',-3.46
'0:16.238',-3.01
'0:16.242',-2.98
'0:16.246',-3.02
'0:16.250',-2.81
'0:16.254',-1.87
'0:16.258',-0.19
'0:16.262',1.98
'0:16.266',3.73
'0:16.270',4.87
'0:16.273',5.52
'0:16.277',4.1
'0:16.281',-1.09
'0:16.285',-6.77
'0:16.289',-10.9
'0:16.293',-13.26
'0:16.297',-14.11
'0:16.301',-13.6
'0:16.305',-11.72
'0:16.309',-8.92
'0:16.313',-5.87
'0:16.316',-3.44
'0:16.320',-1.72
'0:16.324',-0.71
'0:16.328',-0.14
'0:16.332',0.32
'0:16.336',0.58
'0:16.340',0.7
'0:16.344',0.84
'0:16.348',0.82
'0:16.352',0.87
'0:16.355',1.33
'0:16.359',1.76
'0:16.363',2.1
'0:16.367',2.42
'0:16.371',2.56
'0:16.375',2.5
'0:16.379',2.53
'0:16.383',2.69
'0:16.387',2.86
'0:16.391',2.71
'0:16.395',2.87
'0:16.398',3.35
'0:16.402',3.92
'0:16.406',4.46
'0:16.410',4.99
'0:16.414',5.8
'0:16.418',6.63
'0:16.422',7.23
'0:16.426',7.21
'0:16.430',6.63
'0:16.434',5.99
'0:16.438',5.14
'0:16.441',4.35
'0:16.445',3.52
'0:16.449',2.83
'0:16.453',1.83
'0:16.457',0.8
'0:16.461',0.17
'0:16.465',0.25
'0:16.469',0.51
'0:16.473',0.37
'0:16.477',-0.06
'0:16.480',-0.14
'0:16.484',-0.12
'0:16.488',-0.25
'0:16.492',-0.5
'0:16.496',-0.48
'0:16.500',-0.3
'0:16.504',-0.21
'0:16.508',-0.25
'0:16.512',-0.35
'0:16.516',-0.57
'0:16.520',-1.39
'0:16.523',-2.57
'0:16.527',-3.33
'0:16.531',-3.46
'0:16.535',-3.27
'0:16.539',-3.23
'0:16.543',-3.53
'0:16.547',-3.92
'0:16.551',-4.01
'0:16.555',-4.15
'0:16.559',-4.08
'0:16.563',-3.48
'0:16.566',-2.94
'0:16.570',-2.85
'0:16.574',-2.93
'0:16.578',-2.78
'0:16.582',-2.06
'0:16.586',-0.67
'0:16.590',1.12
'0:16.594',3.02
'0:16.598',4.73
'0:16.602',6.18
'0:16.605',6.64
'0:16.609',3.82
'0:16.613',-1.57
'0:16.617',-6.87
'0:16.621',-10.9
'0:16.625',-12.77
'0:16.629',-12.59
'0:16.633',-11.07
'0:16.637',-9.02
'0:16.641',-7.01
'0:16.645',-5.13
'0:16.648',-3.3
'0:16.652',-1.66
'0:16.656',-0.48
'0:16.660',-0.08
'0:16.664',0.07
'0:16.668',0.4
'0:16.672',1
'0:16.676',1.74
'0:16.680',2.16
'0:16.684',1.91
'0:16.688',1.6
'0:16.691',1.37
'0:16.695',1.43
'0:16.699',1.78
'0:16.703',2.04
'0:16.707',2.23
'0:16.711',2.46
'0:16.715',2.65
'0:16.719',2.62
'0:16.723',2.6
'0:16.727',3.1
'0:16.730',3.69
'0:16.734',4.26
'0:16.738',4.74
'0:16.742',5.32
'0:16.746',5.91
'0:16.750',6.43
'0:16.754',6.62
'0:16.758',6.11
'0:16.762',5.43
'0:16.766',4.96
'0:16.770',4.68
'0:16.773',4.45
'0:16.777',4.33
'0:16.781',4.03
'0:16.785',3.48
'0:16.789',2.84
'0:16.793',2.27
'0:16.797',1.88
'0:16.801',1.58
'0:16.805',1.42
'0:16.809',1.37
'0:16.813',1.16
'0:16.816',0.83
'0:16.820',0.63
'0:16.824',0.6
'0:16.828',0.7
'0:16.832',0.77
'0:16.836',0.63
'0:16.840',0.4
'0:16.844',0.16
'0:16.848',-0.12
'0:16.852',-0.64
'0:16.855',-1.26
'0:16.859',-1.74
'0:16.863',-2.18
'0:16.867',-2.56
'0:16.871',-2.83
'0:16.875',-3.05
'0:16.879',-3.2
'0:16.883',-3.33
'0:16.887',-3.25
'0:16.891',-3.08
'0:16.895',-2.88
'0:16.898',-2.85
'0:16.902',-3.1
'0:16.906',-3
'0:16.910',-2.15
'0:16.914',-0.89
'0:16.918',0.65
'0:16.922',2.49
'0:16.926',4.17
'0:16.930',5.42
'0:16.934',5.44
'0:16.938',2.23
'0:16.941',-3.13
'0:16.945',-8.17
'0:16.949',-11.75
'0:16.953',-13.74
'0:16.957',-13.95
'0:16.961',-12.47
'0:16.965',-9.96
'0:16.969',-7.19
'0:16.973',-4.78
'0:16.977',-2.96
'0:16.980',-1.72
'0:16.984',-0.84
'0:16.988',-0.25
'0:16.992',0.04
'0:16.996',0.22
'0:17.000',0.5
'0:17.004',0.66
'0:17.008',0.78
'0:17.012',0.85
'0:17.016',0.86
'0:17.020',0.84
'0:17.023',0.97
'0:17.027',1.21
'0:17.031',1.38
'0:17.035',1.51
'0:17.039',1.67
'0:17.043',1.82
'0:17.047',2.15
'0:17.051',2.49
'0:17.055',2.97
'0:17.059',3.57
'0:17.063',4.27
'0:17.066',4.96
'0:17.070',5.6
'0:17.074',6.14
'0:17.078',6.52
'0:17.082',6.7
'0:17.086',6.77
'0:17.090',6.44
'0:17.094',5.46
'0:17.098',4.46
'0:17.102',3.66
'0:17.105',2.93
'0:17.109',2.13
'0:17.113',1.32
'0:17.117',0.76
'0:17.121',0.51
'0:17.125',0.25
'0:17.129',-0.19
'0:17.133',-0.56
'0:17.137',-0.66
'0:17.141',-0.49
'0:17.145',-0.43
'0:17.148',-0.5
'0:17.152',-0.53
'0:17.156',-0.37
'0:17.160',-0.34
'0:17.164',-0.36
'0:17.168',-0.45
'0:17.172',-0.84
'0:17.176',-1.34
'0:17.180',-1.68
'0:17.184',-2.13
'0:17.188',-2.74
'0:17.191',-3.26
'0:17.195',-3.7
'0:17.199',-3.88
'0:17.203',-3.87
'0:17.207',-3.93
'0:17.211',-4.02
'0:17.215',-3.82
'0:17.219',-3.57
'0:17.223',-3.38
'0:17.227',-3.31
'0:17.230',-3.31
'0:17.234',-3.14
'0:17.238',-2.36
'0:17.242',-0.88
'0:17.246',1.09
'0:17.250',3.18
'0:17.254',4.8
'0:17.258',6.02
'0:17.262',6.05
'0:17.266',2.12
'0:17.270',-3.88
'0:17.273',-8.74
'0:17.277',-11.97
'0:17.281',-13.58
'0:17.285',-13.66
'0:17.289',-12.04
'0:17.293',-9.62
'0:17.297',-6.73
'0:17.301',-4.05
'0:17.305',-1.93
'0:17.309',-0.52
'0:17.313',0.5
'0:17.316',1.44
'0:17.320',2.13
'0:17.324',2.56
'0:17.328',2.85
'0:17.332',3.05
'0:17.336',2.97
'0:17.340',2.88
'0:17.344',2.97
'0:17.348',3.21
'0:17.352',3.45
'0:17.355',3.49
'0:17.359',3.67
'0:17.363',3.81
'0:17.367',3.92
'0:17.371',4.15
'0:17.375',4.28
'0:17.379',4.7
'0:17.383',5.46
'0:17.387',6.09
'0:17.391',6.49
'0:17.395',7.1
'0:17.398',7.75
'0:17.402',8.12
'0:17.406',8.39
'0:17.410',8.4
'0:17.414',8.07
'0:17.418',7.45
'0:17.422',6.64
'0:17.426',5.63
'0:17.430',4.55
'0:17.434',3.73
'0:17.438',3.2
'0:17.441',2.48
'0:17.445',1.77
'0:17.449',1.16
'0:17.453',0.75
'0:17.457',0.39
'0:17.461',0.19
'0:17.465',0.44
'0:17.469',0.78
'0:17.473',0.93
'0:17.477',0.64
'0:17.480',0.22
'0:17.484',0.12
'0:17.488',0.33
'0:17.492',0.62
'0:17.496',0.63
'0:17.500',0.07
'0:17.504',-0.58
'0:17.508',-1.18
'0:17.512',-1.56
'0:17.516',-1.9
'0:17.520',-2.2
'0:17.523',-2.37
'0:17.527',-2.52
'0:17.531',-2.87
'0:17.535',-3.09
'0:17.539',-2.9
'0:17.543',-2.93
'0:17.547',-3.29
'0:17.551',-3.59
'0:17.555',-3.65
'0:17.559',-3.42
'0:17.563',-2.66
'0:17.566',-1.42
'0:17.570',0.21
'0:17.574',2.21
'0:17.578',4.21
'0:17.582',5.74
'0:17.586',6.74
'0:17.590',5.72
'0:17.594',0.68
'0:17.598',-5.35
'0:17.602',-9.79
'0:17.605',-12.49
'0:17.609',-13.68
'0:17.613',-13.4
'0:17.617',-11.88
'0:17.621',-9.57
'0:17.625',-6.85
'0:17.629',-4.42
'0:17.633',-2.63
'0:17.637',-1.4
'0:17.641',-0.49
'0:17.645',0.1
'0:17.648',0.4
'0:17.652',0.61
'0:17.656',0.84
'0:17.660',0.99
'0:17.664',1.07
'0:17.668',1.19
'0:17.672',1.33
'0:17.676',1.55
'0:17.680',1.72
'0:17.684',1.76
'0:17.688',1.7
'0:17.691',1.75
'0:17.695',1.91
'0:17.699',2.16
'0:17.703',2.33
'0:17.707',2.61
'0:17.711',3.05
'0:17.715',3.5
'0:17.719',4.08
'0:17.723',4.65
'0:17.727',5.12
'0:17.730',5.63
'0:17.734',5.87
'0:17.738',5.76
'0:17.742',5.6
'0:17.746',5.22
'0:17.750',4.76
'0:17.754',4.21
'0:17.758',3.42
'0:17.762',2.45
'0:17.766',1.47
'0:17.770',0.81
'0:17.773',0.14
'0:17.777',-0.38
'0:17.781',-0.64
'0:17.785',-0.87
'0:17.789',-0.99
'0:17.793',-0.94
'0:17.797',-0.9
'0:17.801',-0.88
'0:17.805',-0.87
'0:17.809',-0.83
'0:17.813',-0.74
'0:17.816',-0.81
'0:17.820',-0.97
'0:17.824',-1.08
'0:17.828',-1.38
'0:17.832',-1.75
'0:17.836',-2.2
'0:17.840',-2.68
'0:17.844',-3.04
'0:17.848',-3.48
'0:17.852',-3.87
'0:17.855',-4.16
'0:17.859',-4.35
'0:17.863',-4.43
'0:17.867',-4.43
'0:17.871',-4.29
'0:17.875',-4.28
'0:17.879',-4.55
'0:17.883',-4.68
'0:17.887',-4.61
'0:17.891',-4.24
'0:17.895',-3.22
'0:17.898',-1.71
'0:17.902',0.38
'0:17.906',2.78
'0:17.910',4.76
'0:17.914',6.13
'0:17.918',6.25
'0:17.922',3.15
'0:17.926',-2.31
'0:17.930',-7.52
'0:17.934',-11.32
'0:17.938',-13.37
'0:17.941',-13.71
'0:17.945',-13.59
'0:17.949',-9.75
'0:17.953',-8.99
'0:17.957',-4.95
'0:17.961',-3.14
'0:17.965',-2.12
'0:17.969',-1.75
'0:17.973',-1.43
'0:17.977',-1
'0:17.980',-0.61
'0:17.984',-0.34
'0:17.988',-0.06
'0:17.992',-0.07
'0:17.996',-0.09
'0:18.000',0.18
'0:18.004',0.54
'0:18.008',0.81
'0:18.012',1.09
'0:18.016',1.26
'0:18.020',1.39
'0:18.023',1.3
'0:18.027',1.39
'0:18.031',1.67
'0:18.035',1.9
'0:18.039',2.47
'0:18.043',3.33
'0:18.047',4.06
'0:18.051',4.42
'0:18.055',4.83
'0:18.059',5.11
'0:18.063',5.22
'0:18.066',5.46
'0:18.070',5.58
'0:18.074',5.52
'0:18.078',5.2
'0:18.082',4.4
'0:18.086',3.38
'0:18.090',2.38
'0:18.094',1.44
'0:18.098',0.88
'0:18.102',0.66
'0:18.105',0.66
'0:18.109',0.45
'0:18.113',0.26
'0:18.117',0.2
'0:18.121',0.21
'0:18.125',0.36
'0:18.129',0.52
'0:18.133',0.77
'0:18.137',0.78
'0:18.141',0.43
'0:18.145',-0.2
'0:18.148',-0.54
'0:18.152',-0.4
'0:18.156',-0.08
'0:18.160',0.17
'0:18.164',0.02
'0:18.168',-0.53
'0:18.172',-1.26
'0:18.176',-1.86
'0:18.180',-2.32
'0:18.184',-2.46
'0:18.188',-2.46
'0:18.191',-2.24
'0:18.195',-1.98
'0:18.199',-1.8
'0:18.203',-1.72
'0:18.207',-1.68
'0:18.211',-1.66
'0:18.215',-1.65
'0:18.219',-1.59
'0:18.223',-1.12
'0:18.227',-0.21
'0:18.230',1.19
'0:18.234',2.94
'0:18.238',4.49
'0:18.242',5.6
'0:18.246',5.93
'0:18.250',3.45
'0:18.254',-1.53
'0:18.258',-6.47
'0:18.262',-10.17
'0:18.266',-12.19
'0:18.270',-12.72
'0:18.273',-11.58
'0:18.277',-9.24
'0:18.281',-6.52
'0:18.285',-3.96
'0:18.289',-1.91
'0:18.293',-0.39
'0:18.297',0.66
'0:18.301',1.27
'0:18.305',1.47
'0:18.309',1.47
'0:18.313',1.55
'0:18.316',1.95
'0:18.320',2.37
'0:18.324',2.54
'0:18.328',2.56
'0:18.332',2.67
'0:18.336',2.8
'0:18.340',2.83
'0:18.344',2.94
'0:18.348',3.13
'0:18.352',3.37
'0:18.355',3.71
'0:18.359',3.96
'0:18.363',4.21
'0:18.367',4.42
'0:18.371',4.8
'0:18.375',5.31
'0:18.379',5.92
'0:18.383',6.58
'0:18.387',7.07
'0:18.391',7.43
'0:18.395',7.6
'0:18.398',7.36
'0:18.402',6.77
'0:18.406',6.02
'0:18.410',5.11
'0:18.414',3.99
'0:18.418',3.02
'0:18.422',2.35
'0:18.426',1.63
'0:18.430',1.1
'0:18.434',0.72
'0:18.438',0.14
'0:18.441',-0.34
'0:18.445',-0.48
'0:18.449',-0.47
'0:18.453',-0.36
'0:18.457',-0.34
'0:18.461',-0.45
'0:18.465',-0.51
'0:18.469',-0.48
'0:18.473',-0.41
'0:18.477',-0.48
'0:18.480',-0.78
'0:18.484',-1.24
'0:18.488',-1.51
'0:18.492',-1.66
'0:18.496',-1.84
'0:18.500',-2.12
'0:18.504',-2.64
'0:18.508',-3.19
'0:18.512',-3.42
'0:18.516',-3.5
'0:18.520',-3.59
'0:18.523',-3.65
'0:18.527',-3.71
'0:18.531',-3.56
'0:18.535',-3.31
'0:18.539',-3.31
'0:18.543',-3.67
'0:18.547',-3.78
'0:18.551',-3.1
'0:18.555',-1.8
'0:18.559',0.14
'0:18.563',2.43
'0:18.566',4.31
'0:18.570',5.87
'0:18.574',6.74
'0:18.578',4.57
'0:18.582',-0.93
'0:18.586',-6.46
'0:18.590',-10.38
'0:18.594',-12.73
'0:18.598',-13.63
'0:18.602',-12.74
'0:18.605',-10.55
'0:18.609',-7.71
'0:18.613',-4.92
'0:18.617',-2.51
'0:18.621',-0.74
'0:18.625',0.26
'0:18.629',0.67
'0:18.633',1.14
'0:18.637',1.61
'0:18.641',1.79
'0:18.645',1.95
'0:18.648',1.98
'0:18.652',2.15
'0:18.656',2.44
'0:18.660',2.81
'0:18.664',2.9
'0:18.668',2.76
'0:18.672',2.71
'0:18.676',2.77
'0:18.680',3.01
'0:18.684',3.22
'0:18.688',3.56
'0:18.691',4.05
'0:18.695',4.47
'0:18.699',5.05
'0:18.703',5.83
'0:18.707',6.53
'0:18.711',7.24
'0:18.715',7.79
'0:18.719',8.09
'0:18.723',7.96
'0:18.727',7.79
'0:18.730',7.48
'0:18.734',6.94
'0:18.738',5.91
'0:18.742',4.59
'0:18.746',3.48
'0:18.750',2.53
'0:18.754',1.64
'0:18.758',1.1
'0:18.762',0.66
'0:18.766',0.25
'0:18.770',-0.08
'0:18.773',-0.28
'0:18.777',-0.3
'0:18.781',-0.33
'0:18.785',-0.14
'0:18.789',0.08
'0:18.793',0.14
'0:18.797',0.2
'0:18.801',-0.02
'0:18.805',-0.37
'0:18.809',-0.59
'0:18.813',-0.75
'0:18.816',-1.05
'0:18.820',-1.41
'0:18.824',-1.84
'0:18.828',-2.6
'0:18.832',-3.1
'0:18.836',-3.08
'0:18.840',-3.15
'0:18.844',-3.29
'0:18.848',-3.24
'0:18.852',-3.51
'0:18.855',-3.75
'0:18.859',-3.23
'0:18.863',-3.15
'0:18.867',-3.46
'0:18.871',-3.62
'0:18.875',-3.15
'0:18.879',-2.22
'0:18.883',-0.81
'0:18.887',0.91
'0:18.891',2.84
'0:18.895',4.54
'0:18.898',5.83
'0:18.902',5.96
'0:18.906',3.17
'0:18.910',-2.93
'0:18.914',-8.87
'0:18.918',-12.52
'0:18.922',-14.38
'0:18.926',-14.35
'0:18.930',-13
'0:18.934',-11.35
'0:18.938',-9.03
'0:18.941',-6.29
'0:18.945',-3.86
'0:18.949',-2.05
'0:18.953',-1.05
'0:18.957',-0.22
'0:18.961',0.04
'0:18.965',0.08
'0:18.969',0.69
'0:18.973',1.7
'0:18.977',1.84
'0:18.980',1.27
'0:18.984',1.03
'0:18.988',1.05
'0:18.992',1.08
'0:18.996',0.81
'0:19.000',0.52
'0:19.004',0.53
'0:19.008',0.81
'0:19.012',1.2
'0:19.016',1.56
'0:19.020',2.1
'0:19.023',2.99
'0:19.027',3.66
'0:19.031',3.76
'0:19.035',4.02
'0:19.039',4.49
'0:19.043',5.11
'0:19.047',5.81
'0:19.051',6.34
'0:19.055',6.29
'0:19.059',5.72
'0:19.063',5.11
'0:19.066',4.52
'0:19.070',3.75
'0:19.074',2.81
'0:19.078',2.06
'0:19.082',1.58
'0:19.086',1.19
'0:19.090',0.78
'0:19.094',0.37
'0:19.098',-0.05
'0:19.102',-0.3
'0:19.105',-0.35
'0:19.109',-0.31
'0:19.113',-0.26
'0:19.117',-0.26
'0:19.121',-0.27
'0:19.125',-0.26
'0:19.129',0.61
'0:19.133',0.88
'0:19.137',0.82
'0:19.141',0.5
'0:19.145',-0.08
'0:19.148',-0.76
'0:19.152',-1.42
'0:19.156',-1.92
'0:19.160',-2.11
'0:19.164',-2.14
'0:19.168',-2.2
'0:19.172',-2.4
'0:19.176',-2.7
'0:19.180',-3.13
'0:19.184',-3.4
'0:19.188',-3.36
'0:19.191',-3.16
'0:19.195',-2.97
'0:19.199',-3.13
'0:19.203',-3.47
'0:19.207',-3.2
'0:19.211',-1.9
'0:19.215',-0.01
'0:19.219',2.02
'0:19.223',3.86
'0:19.227',5.27
'0:19.230',6.52
'0:19.234',6.11
'0:19.238',1.51
'0:19.242',-4.66
'0:19.246',-9.38
'0:19.250',-12
'0:19.254',-13.01
'0:19.258',-12.83
'0:19.262',-11.6
'0:19.266',-9.49
'0:19.270',-6.97
'0:19.273',-4.46
'0:19.277',-2.61
'0:19.281',-1.46
'0:19.285',-0.64
'0:19.289',-0.2
'0:19.293',-0.26
'0:19.297',-0.04
'0:19.301',0.44
'0:19.305',0.89
'0:19.309',1.32
'0:19.313',1.61
'0:19.316',1.77
'0:19.320',1.91
'0:19.324',1.93
'0:19.328',1.98
'0:19.332',2.1
'0:19.336',2.15
'0:19.340',2.1
'0:19.344',2.21
'0:19.348',2.52
'0:19.352',2.84
'0:19.355',3.1
'0:19.359',3.49
'0:19.363',4.04
'0:19.367',4.76
'0:19.371',5.38
'0:19.375',5.69
'0:19.379',5.98
'0:19.383',6.18
'0:19.387',6.2
'0:19.391',5.91
'0:19.395',5.31
'0:19.398',4.53
'0:19.402',3.64
'0:19.406',2.78
'0:19.410',2.13
'0:19.414',1.64
'0:19.418',1.17
'0:19.422',0.68
'0:19.426',0.59
'0:19.430',0.47
'0:19.434',0.49
'0:19.438',0.6
'0:19.441',0.75
'0:19.445',0.83
'0:19.449',0.76
'0:19.453',0.65
'0:19.457',0.5
'0:19.461',0.44
'0:19.465',0.26
'0:19.469',-0.02
'0:19.473',-0.43
'0:19.477',-0.91
'0:19.480',-1.5
'0:19.484',-2.14
'0:19.488',-2.6
'0:19.492',-3
'0:19.496',-3.3
'0:19.500',-3.41
'0:19.504',-3.37
'0:19.508',-3.31
'0:19.512',-3.36
'0:19.516',-3.48
'0:19.520',-3.42
'0:19.523',-3.25
'0:19.527',-3.2
