'0:00.000',0.37
'0:00.004',0.74
'0:00.008',1.19
'0:00.012',1.14
'0:00.016',1.1
'0:00.020',1.33
'0:00.023',1.83
'0:00.027',2.33
'0:00.031',2.76
'0:00.035',3.27
'0:00.039',3.93
'0:00.043',4.48
'0:00.047',4.95
'0:00.051',5.15
'0:00.055',5.47
'0:00.059',5.36
'0:00.063',5.04
'0:00.066',4.65
'0:00.070',4.13
'0:00.074',3.58
'0:00.078',3.63
'0:00.082',3.65
'0:00.086',3.5
'0:00.090',2.61
'0:00.094',1.63
'0:00.098',1.17
'0:00.102',1.24
'0:00.105',1.09
'0:00.109',0.62
'0:00.113',0.89
'0:00.117',0.88
'0:00.121',1
'0:00.125',0.89
'0:00.129',0.42
'0:00.133',-0.06
'0:00.137',-0.3
'0:00.141',0.59
'0:00.145',0.45
'0:00.148',-0.17
'0:00.152',-0.45
'0:00.156',-1.34
'0:00.160',-0.21
'0:00.164',6.18
'0:00.168',5.66
'0:00.172',1.39
'0:00.176',-0.96
'0:00.180',-1.56
'0:00.184',-2.09
'0:00.188',-2.34
'0:00.191',-3.04
'0:00.195',-4.34
'0:00.199',-4.55
'0:00.203',-4.19
'0:00.207',-4.28
'0:00.211',-4.41
'0:00.215',-4.35
'0:00.219',-4.24
'0:00.223',-4.39
'0:00.227',-4.37
'0:00.230',-3.31
'0:00.234',-1.23
'0:00.238',1.46
'0:00.242',4.43
'0:00.246',7.47
'0:00.250',8.77
'0:00.254',6.4
'0:00.258',1.33
'0:00.262',-4.37
'0:00.266',-8.87
'0:00.270',-11.49
'0:00.273',-12.34
'0:00.277',-11.4
'0:00.281',-9.27
'0:00.285',-7.23
'0:00.289',-5.71
'0:00.293',-4.59
'0:00.297',-3.54
'0:00.301',-2.76
'0:00.305',-2.46
'0:00.309',-2.18
'0:00.313',-1.44
'0:00.316',-0.57
'0:00.320',0.08
'0:00.324',0.35
'0:00.328',0.54
'0:00.332',0.62
'0:00.336',0.94
'0:00.340',1.59
'0:00.344',2.18
'0:00.348',2.34
'0:00.352',2.12
'0:00.355',2.35
'0:00.359',2.66
'0:00.363',2.89
'0:00.367',3.29
'0:00.371',3.76
'0:00.375',4.52
'0:00.379',5.1
'0:00.383',5.3
'0:00.387',5.37
'0:00.391',5.65
'0:00.395',5.77
'0:00.398',5.93
'0:00.402',5.89
'0:00.406',5.4
'0:00.410',4.77
'0:00.414',4.24
'0:00.418',3.67
'0:00.422',3.23
'0:00.426',2.78
'0:00.430',2.33
'0:00.434',2.07
'0:00.438',1.63
'0:00.441',1.24
'0:00.445',1.32
'0:00.449',1.73
'0:00.453',2.44
'0:00.457',2.38
'0:00.461',1.54
'0:00.465',1.09
'0:00.469',1.03
'0:00.473',1.27
'0:00.477',1.18
'0:00.480',1.26
'0:00.484',1.98
'0:00.488',2.13
'0:00.492',1.87
'0:00.496',1.62
'0:00.500',0.7
'0:00.504',-0.55
'0:00.508',-1.5
'0:00.512',-2.14
'0:00.516',-1.96
'0:00.520',-1.66
'0:00.523',-1.97
'0:00.527',-2.02
'0:00.531',-1.39
'0:00.535',-1.59
'0:00.539',-2.02
'0:00.543',-1.84
'0:00.547',-0.44
'0:00.551',0.15
'0:00.555',-0.12
'0:00.559',-0.77
'0:00.563',-1.88
'0:00.566',-2.89
'0:00.570',-2.1
'0:00.574',0.41
'0:00.578',3.41
'0:00.582',5.86
'0:00.586',9.01
'0:00.590',11.96
'0:00.594',11.71
'0:00.598',7.3
'0:00.602',0.97
'0:00.605',-4.84
'0:00.609',-9.26
'0:00.613',-10.89
'0:00.617',-9.22
'0:00.621',-6.57
'0:00.625',-3.97
'0:00.629',-1.94
'0:00.633',-0.19
'0:00.637',2.45
'0:00.641',5.1
'0:00.645',6.61
'0:00.648',6.96
'0:00.652',7.84
'0:00.656',9.22
'0:00.660',8.89
'0:00.664',7.12
'0:00.668',5.67
'0:00.672',5.42
'0:00.676',6.02
'0:00.680',6.68
'0:00.684',6.51
'0:00.688',5.84
'0:00.691',5.46
'0:00.695',5.47
'0:00.699',5.77
'0:00.703',5.83
'0:00.707',6.23
'0:00.711',7.05
'0:00.715',7.39
'0:00.719',6.03
'0:00.723',4.68
'0:00.727',4.31
'0:00.730',4.27
'0:00.734',5
'0:00.738',5.95
'0:00.742',5.8
'0:00.746',4.96
'0:00.750',4.56
'0:00.754',4.32
'0:00.758',3.14
'0:00.762',1.6
'0:00.766',0.37
'0:00.770',-0.35
'0:00.773',-0.49
'0:00.777',-0.44
'0:00.781',-0.62
'0:00.785',-0.65
'0:00.789',-0.26
'0:00.793',-0.2
'0:00.797',-0.77
'0:00.801',-1.25
'0:00.805',-1.21
'0:00.809',-1.01
'0:00.813',-1.05
'0:00.816',-1.5
'0:00.820',-2.01
'0:00.824',-2.39
'0:00.828',-2.84
'0:00.832',-3.56
'0:00.836',-6.34
'0:00.840',-9.23
'0:00.844',-11.09
'0:00.848',-12.12
'0:00.852',-12.37
'0:00.855',-11.99
'0:00.859',-12.15
'0:00.863',-13.74
'0:00.867',-15.04
'0:00.871',-14.87
'0:00.875',-14.21
'0:00.879',-13.59
'0:00.883',-13.02
'0:00.887',-12.3
'0:00.891',-11.51
'0:00.895',-11.59
'0:00.898',-12.4
'0:00.902',-12.05
'0:00.906',-10.36
'0:00.910',-7.56
'0:00.914',-4.42
'0:00.918',-2.2
'0:00.922',-0.23
'0:00.926',2.26
'0:00.930',3.39
'0:00.934',0.78
'0:00.938',-3.7
'0:00.941',-8.79
'0:00.945',-13.62
'0:00.949',-15.93
'0:00.953',-15.88
'0:00.957',-13.56
'0:00.961',-10.82
'0:00.965',-8.43
'0:00.969',-6.7
'0:00.973',-5.08
'0:00.977',-3.91
'0:00.980',-3.55
'0:00.984',-3.43
'0:00.988',-2.87
'0:00.992',-2.48
'0:00.996',-2.5
'0:01.000',-2.2
'0:01.004',-1.61
'0:01.008',-1.06
'0:01.012',-0.83
'0:01.016',-0.98
'0:01.020',-0.77
'0:01.023',-0.65
'0:01.027',-0.58
'0:01.031',-0.32
'0:01.035',0.18
'0:01.039',0.43
'0:01.043',0.67
'0:01.047',1.25
'0:01.051',1.94
'0:01.055',2.5
'0:01.059',2.91
'0:01.063',3.31
'0:01.066',3.65
'0:01.070',3.83
'0:01.074',3.88
'0:01.078',4.33
'0:01.082',4.86
'0:01.086',5.02
'0:01.090',4.8
'0:01.094',4.52
'0:01.098',4.13
'0:01.102',3.41
'0:01.105',2.72
'0:01.109',2.08
'0:01.113',1.63
'0:01.117',1.37
'0:01.121',1.7
'0:01.125',2.21
'0:01.129',2.54
'0:01.133',2.73
'0:01.137',2.93
'0:01.141',3
'0:01.145',2.98
'0:01.148',3.17
'0:01.152',3.25
'0:01.156',3.03
'0:01.160',2.69
'0:01.164',2.03
'0:01.168',1.53
'0:01.172',1.05
'0:01.176',0.39
'0:01.180',-0.3
'0:01.184',-0.79
'0:01.188',-1.11
'0:01.191',-1.5
'0:01.195',-1.66
'0:01.199',-1.45
'0:01.203',-1.14
'0:01.207',-1.02
'0:01.211',-0.77
'0:01.215',-0.43
'0:01.219',-0.57
'0:01.223',-0.77
'0:01.227',-0.29
'0:01.230',-0.32
'0:01.234',-0.6
'0:01.238',-0.92
'0:01.242',-0.69
'0:01.246',0.84
'0:01.250',3.12
'0:01.254',5.89
'0:01.258',8.47
'0:01.262',10.87
'0:01.266',11.46
'0:01.270',9.56
'0:01.273',5.8
'0:01.277',-0.39
'0:01.281',-6.45
'0:01.285',-9.54
'0:01.289',-9.85
'0:01.293',-8.71
'0:01.297',-6.65
'0:01.301',-4.82
'0:01.305',-3.32
'0:01.309',-1.81
'0:01.313',0.31
'0:01.316',2.14
'0:01.320',3.1
'0:01.324',2.6
'0:01.328',1.76
'0:01.332',1.57
'0:01.336',2.02
'0:01.340',2.59
'0:01.344',12.09
'0:01.348',24.86
'0:01.352',20.66
'0:01.355',13.1
'0:01.359',7.83
'0:01.363',4.68
'0:01.367',3.07
'0:01.371',2.66
'0:01.375',2.84
'0:01.379',3.05
'0:01.383',2.94
'0:01.387',2.7
'0:01.391',2.91
'0:01.395',3.33
'0:01.398',3.65
'0:01.402',4.11
'0:01.406',4.39
'0:01.410',4.46
'0:01.414',4.36
'0:01.418',3.9
'0:01.422',3.32
'0:01.426',2.84
'0:01.430',2.69
'0:01.434',2.44
'0:01.438',1.61
'0:01.441',0.92
'0:01.445',0.07
'0:01.449',-0.65
'0:01.453',-0.92
'0:01.457',-1.01
'0:01.461',-1
'0:01.465',-0.78
'0:01.469',-0.24
'0:01.473',0.2
'0:01.477',0.2
'0:01.480',0.12
'0:01.484',-0.38
'0:01.488',-1.02
'0:01.492',-0.72
'0:01.496',-0.32
'0:01.500',-0.48
'0:01.504',-0.76
'0:01.508',-1.16
'0:01.512',-1.99
'0:01.516',-2.12
'0:01.520',-2.13
'0:01.523',-3.28
'0:01.527',-4.36
'0:01.531',-4.51
'0:01.535',-3.8
'0:01.539',-3.59
'0:01.543',-3.7
'0:01.547',-3.26
'0:01.551',-2.47
'0:01.555',-2.13
'0:01.559',-2.63
'0:01.563',-3.1
'0:01.566',-3.41
'0:01.570',-3.96
'0:01.574',-4.04
'0:01.578',-4.07
'0:01.582',-4.39
'0:01.586',-3.98
'0:01.590',-2.62
'0:01.594',-0.57
'0:01.598',1.73
'0:01.602',3.97
'0:01.605',6.44
'0:01.609',7.73
'0:01.613',6.09
'0:01.617',1.52
'0:01.621',-3.92
'0:01.625',-8.02
'0:01.629',-10.37
'0:01.633',-11.56
'0:01.637',-11.48
'0:01.641',-9.87
'0:01.645',-8.06
'0:01.648',-6.32
'0:01.652',-4.91
'0:01.656',-3.75
'0:01.660',-2.5
'0:01.664',-2.07
'0:01.668',-1.72
'0:01.672',-1.35
'0:01.676',-1.52
'0:01.680',-1.03
'0:01.684',-0.37
'0:01.688',0.35
'0:01.691',0.66
'0:01.695',-0.01
'0:01.699',-0.58
'0:01.703',0.04
'0:01.707',0.93
'0:01.711',1.24
'0:01.715',1.48
'0:01.719',1.66
'0:01.723',1.64
'0:01.727',2.14
'0:01.730',2.56
'0:01.734',2.47
'0:01.738',3.04
'0:01.742',3.81
'0:01.746',4.04
'0:01.750',3.89
'0:01.754',3.39
'0:01.758',3.05
'0:01.762',3.35
'0:01.766',3.84
'0:01.770',4.18
'0:01.773',4.06
'0:01.777',3.65
'0:01.781',3.45
'0:01.785',2.99
'0:01.789',2.07
'0:01.793',1.88
'0:01.797',1.88
'0:01.801',1.88
'0:01.805',1.88
'0:01.809',0.97
'0:01.813',0.81
'0:01.816',0.93
'0:01.820',0.91
'0:01.824',0.42
'0:01.828',-0.02
'0:01.832',-0.07
'0:01.836',-0.35
'0:01.840',-0.79
'0:01.844',-1.21
'0:01.848',-1.55
'0:01.852',-2.12
'0:01.855',-2.6
'0:01.859',-2.96
'0:01.863',-3.22
'0:01.867',-3.5
'0:01.871',-3.63
'0:01.875',-3.68
'0:01.879',-3.72
'0:01.883',-3.67
'0:01.887',-3.48
'0:01.891',-3.33
'0:01.895',-3.11
'0:01.898',-2.94
'0:01.902',-2.87
'0:01.906',-2.77
'0:01.910',-2.5
'0:01.914',-2.18
'0:01.918',-1.68
'0:01.922',-0.67
'0:01.926',1.34
'0:01.930',3.95
'0:01.934',6.58
'0:01.938',9
'0:01.941',10.22
'0:01.945',8.41
'0:01.949',3.65
'0:01.953',-2.3
'0:01.957',-7.16
'0:01.961',-10.13
'0:01.965',-11.09
'0:01.969',-9.83
'0:01.973',-7.34
'0:01.977',-5.17
'0:01.980',-3.6
'0:01.984',-2.26
'0:01.988',-1.25
'0:01.992',-0.59
'0:01.996',-0.45
'0:02.000',-0.77
'0:02.004',-1.03
'0:02.008',-0.3
'0:02.012',0.3
'0:02.016',0.69
'0:02.020',1.2
'0:02.023',1.01
'0:02.027',1.02
'0:02.031',1.73
'0:02.035',2.27
'0:02.039',2.26
'0:02.043',2.03
'0:02.047',2.41
'0:02.051',2.85
'0:02.055',2.53
'0:02.059',2.28
'0:02.063',3.12
'0:02.066',3.91
'0:02.070',4.5
'0:02.074',5.24
'0:02.078',5.57
'0:02.082',5.52
'0:02.086',5.49
'0:02.090',5.73
'0:02.094',5.78
'0:02.098',5.64
'0:02.102',4.79
'0:02.105',5.49
'0:02.109',9.58
'0:02.113',8.28
'0:02.117',6.41
'0:02.121',4.93
'0:02.125',3.98
'0:02.129',3.01
'0:02.133',2.27
'0:02.137',1.87
'0:02.141',1.84
'0:02.145',2.2
'0:02.148',2.69
'0:02.152',3.06
'0:02.156',3.32
'0:02.160',3.2
'0:02.164',2.6
'0:02.168',1.88
'0:02.172',1.55
'0:02.176',1.57
'0:02.180',1.42
'0:02.184',0.57
'0:02.188',-0.2
'0:02.191',-0.54
'0:02.195',-0.84
'0:02.199',-1.27
'0:02.203',-1.27
'0:02.207',-2.02
'0:02.211',-3.13
'0:02.215',-3.32
'0:02.219',-3.08
'0:02.223',-3.69
'0:02.227',-4.35
'0:02.230',-4.19
'0:02.234',-3.96
'0:02.238',-3.68
'0:02.242',-3.09
'0:02.246',-2.57
'0:02.250',-2.78
'0:02.254',-3.45
'0:02.258',-3.92
'0:02.262',-3.55
'0:02.266',-2.33
'0:02.270',-0.7
'0:02.273',1.1
'0:02.277',3.2
'0:02.281',5.56
'0:02.285',8.36
'0:02.289',9.58
'0:02.293',6.51
'0:02.297',0.68
'0:02.301',-5.3
'0:02.305',-10
'0:02.309',-12.67
'0:02.313',-13.23
'0:02.316',-12.08
'0:02.320',-9.92
'0:02.324',-7.68
'0:02.328',-6.05
'0:02.332',-4.98
'0:02.336',-4.37
'0:02.340',-4.05
'0:02.344',-3.49
'0:02.348',-2.88
'0:02.352',-2.5
'0:02.355',-2.33
'0:02.359',-2.17
'0:02.363',-1.95
'0:02.367',-1.21
'0:02.371',-0.75
'0:02.375',-0.78
'0:02.379',-0.73
'0:02.383',-0.5
'0:02.387',-0.18
'0:02.391',0.04
'0:02.395',0.49
'0:02.398',1.13
'0:02.402',1.81
'0:02.406',2.19
'0:02.410',2
'0:02.414',1.89
'0:02.418',2.38
'0:02.422',3.26
'0:02.426',3.38
'0:02.430',3.62
'0:02.434',4.31
'0:02.438',4.57
'0:02.441',4.72
'0:02.445',4.01
'0:02.449',2.76
'0:02.453',2.09
'0:02.457',1.42
'0:02.461',1.16
'0:02.465',1.37
'0:02.469',1.41
'0:02.473',1.47
'0:02.477',1.56
'0:02.480',1.37
'0:02.484',0.68
'0:02.488',-0.05
'0:02.492',-0.78
'0:02.496',-1.19
'0:02.500',-0.65
'0:02.504',0.19
'0:02.508',0.72
'0:02.512',1.11
'0:02.516',0.98
'0:02.520',0.25
'0:02.523',-0.87
'0:02.527',-1.77
'0:02.531',-2.28
'0:02.535',-2.81
'0:02.539',-3.25
'0:02.543',-3.39
'0:02.547',-3.37
'0:02.551',-3.56
'0:02.555',-3.43
'0:02.559',-3.02
'0:02.563',-2.71
'0:02.566',-2.36
'0:02.570',-2.53
'0:02.574',-3.59
'0:02.578',-4
'0:02.582',-3.69
'0:02.586',-3.38
'0:02.590',-3.19
'0:02.594',-3.09
'0:02.598',-2.85
'0:02.602',-2.16
'0:02.605',-0.18
'0:02.609',2.59
'0:02.613',5.38
'0:02.617',7.95
'0:02.621',9.22
'0:02.625',7.43
'0:02.629',2.81
'0:02.633',-2.78
'0:02.637',-7.56
'0:02.641',-10.66
'0:02.645',-11.43
'0:02.648',-10.18
'0:02.652',-7.79
'0:02.656',-5.49
'0:02.660',-3.73
'0:02.664',-2.64
'0:02.668',-2.17
'0:02.672',-1.82
'0:02.676',-1.31
'0:02.680',-0.73
'0:02.684',-0.27
'0:02.688',0.01
'0:02.691',0.28
'0:02.695',0.87
'0:02.699',1.17
'0:02.703',1.09
'0:02.707',1.3
'0:02.711',1.79
'0:02.715',2.04
'0:02.719',2
'0:02.723',2.02
'0:02.727',2.02
'0:02.730',2.2
'0:02.734',2.72
'0:02.738',3.16
'0:02.742',3.41
'0:02.746',3.37
'0:02.750',3.55
'0:02.754',4.22
'0:02.758',4.9
'0:02.762',5.46
'0:02.766',5.67
'0:02.770',5.82
'0:02.773',5.76
'0:02.777',5.55
'0:02.781',5.18
'0:02.785',4.25
'0:02.789',3.64
'0:02.793',3.53
'0:02.797',3.38
'0:02.801',3.1
'0:02.805',2.59
'0:02.809',2.03
'0:02.813',1.75
'0:02.816',1.1
'0:02.820',1.13
'0:02.824',2.25
'0:02.828',3.11
'0:02.832',2.94
'0:02.836',2.33
'0:02.840',2.32
'0:02.844',2.93
'0:02.848',2.45
'0:02.852',1.58
'0:02.855',1.45
'0:02.859',1.5
'0:02.863',1.37
'0:02.867',1.43
'0:02.871',1.21
'0:02.875',-0.02
'0:02.879',-1.77
'0:02.883',-2.99
'0:02.887',-3.7
'0:02.891',-3.66
'0:02.895',-3.2
'0:02.898',-1.56
'0:02.902',11.37
'0:02.906',24.26
'0:02.910',19.44
'0:02.914',9.93
'0:02.918',3.58
'0:02.922',-0.42
'0:02.926',-2.73
'0:02.930',-3.35
'0:02.934',-3.31
'0:02.938',-3.32
'0:02.941',-2.27
'0:02.945',-0.38
'0:02.949',1.96
'0:02.953',4.3
'0:02.957',5.8
'0:02.961',5.44
'0:02.965',3.62
'0:02.969',-0.17
'0:02.973',-5.85
'0:02.977',-11
'0:02.980',-13.87
'0:02.984',-13.99
'0:02.988',-11.85
'0:02.992',-9.2
'0:02.996',-7.29
'0:03.000',-5.57
'0:03.004',-4.07
'0:03.008',-3.12
'0:03.012',-2.71
'0:03.016',-2.74
'0:03.020',-2.92
'0:03.023',-3.26
'0:03.027',-2.47
'0:03.031',-1.4
'0:03.035',-0.91
'0:03.039',-0.66
'0:03.043',-1.02
'0:03.047',-1.17
'0:03.051',-0.53
'0:03.055',-0.02
'0:03.059',0.29
'0:03.063',1.01
'0:03.066',1.7
'0:03.070',1.95
'0:03.074',1.96
'0:03.078',2.18
'0:03.082',2.44
'0:03.086',3.28
'0:03.090',3.8
'0:03.094',3.73
'0:03.098',3.42
'0:03.102',3.53
'0:03.105',4.2
'0:03.109',4.26
'0:03.113',3.92
'0:03.117',3.2
'0:03.121',2.32
'0:03.125',1.45
'0:03.129',0.36
'0:03.133',-0.49
'0:03.137',-0.83
'0:03.141',-0.69
'0:03.145',-0.78
'0:03.148',-1.48
'0:03.152',-1.88
'0:03.156',-1.92
'0:03.160',-1.51
'0:03.164',-1.27
'0:03.168',-1.15
'0:03.172',-0.81
'0:03.176',-0.55
'0:03.180',-0.17
'0:03.184',0.44
'0:03.188',0.38
'0:03.191',-0.31
'0:03.195',-0.7
'0:03.199',-0.65
'0:03.203',-1.58
'0:03.207',-2.98
'0:03.211',-3.49
'0:03.215',-3.65
'0:03.219',-4.07
'0:03.223',-3.89
'0:03.227',-3.64
'0:03.230',-3.68
'0:03.234',-3.55
'0:03.238',-3.75
'0:03.242',-4.4
'0:03.246',-4.3
'0:03.250',-3.85
'0:03.254',-3.4
'0:03.258',-3.27
'0:03.262',-3.32
'0:03.266',-3.62
'0:03.270',-3.91
'0:03.273',-4.21
'0:03.277',-3.86
'0:03.281',-2.92
'0:03.285',-1.19
'0:03.289',0.88
'0:03.293',3.51
'0:03.297',6.07
'0:03.301',8.04
'0:03.305',7.98
'0:03.309',4.76
'0:03.313',-0.38
'0:03.316',-5.03
'0:03.320',-8.39
'0:03.324',-10.42
'0:03.328',-6.11
'0:03.332',3.06
'0:03.336',1.39
'0:03.340',-1.61
'0:03.344',-3.23
'0:03.348',-3.05
'0:03.352',-2.63
'0:03.355',-2.64
'0:03.359',-2.26
'0:03.363',-2.25
'0:03.367',-2.35
'0:03.371',-2.03
'0:03.375',-1.78
'0:03.379',-1.77
'0:03.383',-1.67
'0:03.387',-1.24
'0:03.391',-0.76
'0:03.395',-0.48
'0:03.398',-0.36
'0:03.402',-0.13
'0:03.406',0.26
'0:03.410',0.59
'0:03.414',0.76
'0:03.418',0.98
'0:03.422',1.13
'0:03.426',1.41
'0:03.430',1.82
'0:03.434',2.11
'0:03.438',2.23
'0:03.441',2.65
'0:03.445',3.08
'0:03.449',3.35
'0:03.453',3.41
'0:03.457',3.36
'0:03.461',3.26
'0:03.465',3.03
'0:03.469',2.63
'0:03.473',2.18
'0:03.477',1.74
'0:03.480',1.33
'0:03.484',1.15
'0:03.488',1.18
'0:03.492',1.29
'0:03.496',1.17
'0:03.500',1.25
'0:03.504',1.6
'0:03.508',2.09
'0:03.512',2.28
'0:03.516',2.01
'0:03.520',1.82
'0:03.523',1.58
'0:03.527',1.28
'0:03.531',0.8
'0:03.535',0.34
'0:03.539',0.04
'0:03.543',-0.47
'0:03.547',-1.61
'0:03.551',-2.38
'0:03.555',-1.75
'0:03.559',-1.05
'0:03.563',-1.39
'0:03.566',-1.35
'0:03.570',-1.48
'0:03.574',-1.93
'0:03.578',-1.85
'0:03.582',-1.12
'0:03.586',-1.09
'0:03.590',-1.7
'0:03.594',-1.91
'0:03.598',-1.62
'0:03.602',-1.37
'0:03.605',-1.24
'0:03.609',-1.8
'0:03.613',-1.82
'0:03.617',-1.26
'0:03.621',0.46
'0:03.625',3.12
'0:03.629',5.89
'0:03.633',8.12
'0:03.637',9.95
'0:03.641',10.2
'0:03.645',6.78
'0:03.648',0.86
'0:03.652',-5.53
'0:03.656',-9.76
'0:03.660',-11.58
'0:03.664',-11.12
'0:03.668',-9.27
'0:03.672',-7.02
'0:03.676',-4.98
'0:03.680',-3.56
'0:03.684',-2.4
'0:03.688',-1.53
'0:03.691',-0.53
'0:03.695',0.54
'0:03.699',1.47
'0:03.703',1.96
'0:03.707',2.43
'0:03.711',2.96
'0:03.715',3.17
'0:03.719',2.97
'0:03.723',2.72
'0:03.727',2.54
'0:03.730',2.9
'0:03.734',3.54
'0:03.738',3.94
'0:03.742',3.99
'0:03.746',4.05
'0:03.750',4.17
'0:03.754',4.39
'0:03.758',4.57
'0:03.762',4.8
'0:03.766',5.35
'0:03.770',6.41
'0:03.773',7.82
'0:03.777',9.08
'0:03.781',9.92
'0:03.785',10.26
'0:03.789',10.25
'0:03.793',9.86
'0:03.797',9.08
'0:03.801',7.68
'0:03.805',8.1
'0:03.809',10.12
'0:03.813',11.1
'0:03.816',10.65
'0:03.820',9.8
'0:03.824',9.34
'0:03.828',8.39
'0:03.832',7.59
'0:03.836',7.06
'0:03.840',6.33
'0:03.844',5.48
'0:03.848',4.8
'0:03.852',4.6
'0:03.855',5.18
'0:03.859',4.88
'0:03.863',3.49
'0:03.867',2.58
'0:03.871',2.14
'0:03.875',1.38
'0:03.879',0.56
'0:03.883',0.03
'0:03.887',-1.02
'0:03.891',-2.28
'0:03.895',-3.04
'0:03.898',-3.57
'0:03.902',-4.27
'0:03.906',-6.6
'0:03.910',-8.8
'0:03.914',-10.3
'0:03.918',-11.36
'0:03.922',-12.13
'0:03.926',-12.44
'0:03.930',-12.21
'0:03.934',-11.72
'0:03.938',-11.02
'0:03.941',-10.78
'0:03.945',-11.5
'0:03.949',-11.54
'0:03.953',-11.29
'0:03.957',-11.31
'0:03.961',-10.98
'0:03.965',-9.73
'0:03.969',-7.65
'0:03.973',-5.19
'0:03.977',-2.74
'0:03.980',0.58
'0:03.984',2.39
'0:03.988',0.38
'0:03.992',-4.42
'0:03.996',-9.12
'0:04.000',-13.33
'0:04.004',-16.4
'0:04.008',-17.38
'0:04.012',-16.71
'0:04.016',-14.29
'0:04.020',-11.46
'0:04.023',-9.08
'0:04.027',-7.5
'0:04.031',-6.6
'0:04.035',-6.48
'0:04.039',-6.13
'0:04.043',-5.14
'0:04.047',-4.46
'0:04.051',-3.75
'0:04.055',-3.29
'0:04.059',-2.72
'0:04.063',-2.4
'0:04.066',-2.18
'0:04.070',-1.41
'0:04.074',-0.41
'0:04.078',0.26
'0:04.082',0.45
'0:04.086',0.13
'0:04.090',-0.54
'0:04.094',-0.14
'0:04.098',1.51
'0:04.102',2.78
'0:04.105',3.13
'0:04.109',3.62
'0:04.113',4.26
'0:04.117',4.59
'0:04.121',4.8
'0:04.125',5.07
'0:04.129',5.66
'0:04.133',5.74
'0:04.137',5.27
'0:04.141',5.02
'0:04.145',4.78
'0:04.148',4.61
'0:04.152',4.57
'0:04.156',4.5
'0:04.160',4.08
'0:04.164',3.39
'0:04.168',2.12
'0:04.172',1.48
'0:04.176',1.45
'0:04.180',1.72
'0:04.184',2.24
'0:04.188',2.51
'0:04.191',2.3
'0:04.195',1.92
'0:04.199',1.53
'0:04.203',0.88
'0:04.207',0.54
'0:04.211',0.56
'0:04.215',0.51
'0:04.219',0
'0:04.223',-0.86
'0:04.227',-1.56
'0:04.230',-2.05
'0:04.234',-2.44
'0:04.238',-2.64
'0:04.242',-2.66
'0:04.246',-2.68
'0:04.250',-2.73
'0:04.254',-2.78
'0:04.258',-3.02
'0:04.262',-3.24
'0:04.266',-3.03
'0:04.270',-2.68
'0:04.273',-2.51
'0:04.277',-2.64
'0:04.281',-2.89
'0:04.285',-2.69
'0:04.289',-2.13
'0:04.293',-1.4
'0:04.297',-0.33
'0:04.301',1.33
'0:04.305',3.54
'0:04.309',6.2
'0:04.313',8.78
'0:04.316',10.04
'0:04.320',8.42
'0:04.324',4.24
'0:04.328',-1.19
'0:04.332',-5.89
'0:04.336',-9.25
'0:04.340',-10.46
'0:04.344',-9.36
'0:04.348',-6.9
'0:04.352',-4.47
'0:04.355',-2.79
'0:04.359',-1.66
'0:04.363',-0.34
'0:04.367',0.47
'0:04.371',0.65
'0:04.375',0.58
'0:04.379',0.87
'0:04.383',1.25
'0:04.387',1.35
'0:04.391',1.75
'0:04.395',2.09
'0:04.398',2.04
'0:04.402',1.81
'0:04.406',1.89
'0:04.410',2.54
'0:04.414',3.64
'0:04.418',3.87
'0:04.422',4.16
'0:04.426',4.39
'0:04.430',4.14
'0:04.434',3.56
'0:04.438',3.86
'0:04.441',4.52
'0:04.445',4.73
'0:04.449',5.12
'0:04.453',5.91
'0:04.457',6.34
'0:04.461',6.57
'0:04.465',6.54
'0:04.469',5.72
'0:04.473',5.4
'0:04.477',5.82
'0:04.480',6.01
'0:04.484',5.89
'0:04.488',5.32
'0:04.492',4.62
'0:04.496',4.39
'0:04.500',4.1
'0:04.504',3.39
'0:04.508',2.71
'0:04.512',2.09
'0:04.516',1.95
'0:04.520',2.66
'0:04.523',3.38
'0:04.527',3.43
'0:04.531',3.36
'0:04.535',3.31
'0:04.539',3.42
'0:04.543',3.25
'0:04.547',2.55
'0:04.551',2.67
'0:04.555',2.6
'0:04.559',1.78
'0:04.563',1.11
'0:04.566',0.01
'0:04.570',-1.63
'0:04.574',-3.19
'0:04.578',-3.61
'0:04.582',-2.96
'0:04.586',-2.5
'0:04.590',-2.65
'0:04.594',-3.25
'0:04.598',-3.81
'0:04.602',-3.65
'0:04.605',-2.8
'0:04.609',-2.47
'0:04.613',-2.79
'0:04.617',-2.98
'0:04.621',-2.73
'0:04.625',-2.99
'0:04.629',-3.08
'0:04.633',-2.76
'0:04.637',-2.65
'0:04.641',-2.31
'0:04.645',-0.91
'0:04.648',0.96
'0:04.652',3.05
'0:04.656',5.4
'0:04.660',7.88
'0:04.664',9.17
'0:04.668',6.89
'0:04.672',1.2
'0:04.676',-5
'0:04.680',-9.69
'0:04.684',-12.58
'0:04.688',-12.85
'0:04.691',-10.21
'0:04.695',-7.73
'0:04.699',-5.86
'0:04.703',-4.02
'0:04.707',-3.08
'0:04.711',-2.49
'0:04.715',-2.17
'0:04.719',-1.94
'0:04.723',-1.96
'0:04.727',-2.15
'0:04.730',-2.2
'0:04.734',-1.86
'0:04.738',-1.76
'0:04.742',-1.89
'0:04.746',-1.6
'0:04.750',-1.39
'0:04.754',-0.88
'0:04.758',-0.69
'0:04.762',-0.51
'0:04.766',0
'0:04.770',0.8
'0:04.773',1.25
'0:04.777',1.22
'0:04.781',1.17
'0:04.785',1.57
'0:04.789',2.29
'0:04.793',2.93
'0:04.797',3.58
'0:04.801',4.11
'0:04.805',4.28
'0:04.809',4.15
'0:04.813',3.99
'0:04.816',3.96
'0:04.820',3.67
'0:04.824',2.74
'0:04.828',1.99
'0:04.832',1.64
'0:04.836',1.25
'0:04.840',0.94
'0:04.844',0.69
'0:04.848',0.58
'0:04.852',0.82
'0:04.855',0.05
'0:04.859',-0.02
'0:04.863',0.75
'0:04.867',0.91
'0:04.871',1.23
'0:04.875',1.5
'0:04.879',1.43
'0:04.883',0.79
'0:04.887',0.32
'0:04.891',-0.01
'0:04.895',-0.65
'0:04.898',-1.99
'0:04.902',-3.19
'0:04.906',-2.98
'0:04.910',-2.76
'0:04.914',-2.93
'0:04.918',-2.84
'0:04.922',-2.74
'0:04.926',-2.82
'0:04.930',-3.09
'0:04.934',-3.26
'0:04.938',-3.19
'0:04.941',-3.09
'0:04.945',-2.88
'0:04.949',-3.02
'0:04.953',-3.08
'0:04.957',-2.88
'0:04.961',-2.52
'0:04.965',-2.61
'0:04.969',-3.03
'0:04.973',-3.22
'0:04.977',-1.98
'0:04.980',0.52
'0:04.984',3.55
'0:04.988',6.61
'0:04.992',9.09
'0:04.996',9.33
'0:05.000',6.14
'0:05.004',0.36
'0:05.008',-5.4
'0:05.012',-9.43
'0:05.016',-11.26
'0:05.020',-11.09
'0:05.023',-9.42
'0:05.027',-7.03
'0:05.031',-4.95
'0:05.035',-3.55
'0:05.039',-2.73
'0:05.043',-2.21
'0:05.047',-1.82
'0:05.051',-1.07
'0:05.055',-0.64
'0:05.059',-0.38
'0:05.063',-0.11
'0:05.066',0.07
'0:05.070',0.13
'0:05.074',0.56
'0:05.078',0.96
'0:05.082',1.18
'0:05.086',1.58
'0:05.090',1.75
'0:05.094',1.86
'0:05.098',2.1
'0:05.102',2.56
'0:05.105',3.24
'0:05.109',3.45
'0:05.113',3.31
'0:05.117',3.65
'0:05.121',4.03
'0:05.125',4.25
'0:05.129',4.45
'0:05.133',4.83
'0:05.137',5.12
'0:05.141',5.14
'0:05.145',5.29
'0:05.148',5.6
'0:05.152',5.65
'0:05.156',5.16
'0:05.160',4.21
'0:05.164',3.1
'0:05.168',2.36
'0:05.172',1.78
'0:05.176',1.32
'0:05.180',0.89
'0:05.184',0.86
'0:05.188',1.05
'0:05.191',1.15
'0:05.195',1.2
'0:05.199',1.36
'0:05.203',1.73
'0:05.207',2.33
'0:05.211',2.5
'0:05.215',2.2
'0:05.219',1.9
'0:05.223',1.57
'0:05.227',1.36
'0:05.230',1.49
'0:05.234',1.21
'0:05.238',0.66
'0:05.242',-0.12
'0:05.246',-1.19
'0:05.250',-1.32
'0:05.254',-1.58
'0:05.258',-1.74
'0:05.262',0.08
'0:05.266',2.2
'0:05.270',0.62
'0:05.273',-0.66
'0:05.277',-0.92
'0:05.281',-0.72
'0:05.285',-0.77
'0:05.289',-1.17
'0:05.293',-1.13
'0:05.297',-0.58
'0:05.301',-0.1
'0:05.305',0.18
'0:05.309',0.32
'0:05.313',0.45
'0:05.316',1.21
'0:05.320',2.56
'0:05.324',4.08
'0:05.328',6.16
'0:05.332',9.26
'0:05.336',12.41
'0:05.340',12.47
'0:05.344',8.25
'0:05.348',1.78
'0:05.352',-4.22
'0:05.355',-8.66
'0:05.359',-10.83
'0:05.363',-10.63
'0:05.367',-8.72
'0:05.371',-6.61
'0:05.375',-4.94
'0:05.379',-3.58
'0:05.383',-2.15
'0:05.387',-1.45
'0:05.391',-1.43
'0:05.395',-0.73
'0:05.398',0.56
'0:05.402',1.84
'0:05.406',3.75
'0:05.410',5.61
'0:05.414',6.65
'0:05.418',6.98
'0:05.422',7.11
'0:05.426',7.2
'0:05.430',7.46
'0:05.434',7.73
'0:05.438',7.78
'0:05.441',7.26
'0:05.445',6.71
'0:05.449',6.21
'0:05.453',5.96
'0:05.457',5.98
'0:05.461',6.27
'0:05.465',6.71
'0:05.469',6.82
'0:05.473',6.76
'0:05.477',6.62
'0:05.480',6.44
'0:05.484',6.3
'0:05.488',6.05
'0:05.492',6.02
'0:05.496',6.23
'0:05.500',5.19
'0:05.504',3.24
'0:05.508',1.85
'0:05.512',0.86
'0:05.516',0.32
'0:05.520',0.08
'0:05.523',-0.42
'0:05.527',-0.85
'0:05.531',-0.85
'0:05.535',-0.85
'0:05.539',-0.85
'0:05.543',-1.43
'0:05.547',-1.12
'0:05.551',-0.97
'0:05.555',-1.23
'0:05.559',-1.7
'0:05.563',-1.9
'0:05.566',-2.05
'0:05.570',-2.4
'0:05.574',-3.05
'0:05.578',-4.76
'0:05.582',-6.9
'0:05.586',-9.01
'0:05.590',-10.26
'0:05.594',-11.3
'0:05.598',-12.43
'0:05.602',-13.77
'0:05.605',-14.69
'0:05.609',-14.9
'0:05.613',-14.44
'0:05.617',-13.27
'0:05.621',-12.46
'0:05.625',-12.12
'0:05.629',-11.72
'0:05.633',-11.19
'0:05.637',-10.69
'0:05.641',-10.31
'0:05.645',-10.38
'0:05.648',-10.59
'0:05.652',-9.79
'0:05.656',-8.01
'0:05.660',-5.5
'0:05.664',-2.97
'0:05.668',0.23
'0:05.672',4.2
'0:05.676',5.65
'0:05.680',2.87
'0:05.684',-1.85
'0:05.688',-7.61
'0:05.691',-12.41
'0:05.695',-15.1
'0:05.699',-15.53
'0:05.703',-14.54
'0:05.707',-12.82
'0:05.711',-10.83
'0:05.715',-8.97
'0:05.719',-6.99
'0:05.723',-4.7
'0:05.727',-3.25
'0:05.730',-2.85
'0:05.734',-2.45
'0:05.738',-1.97
'0:05.742',-1.36
'0:05.746',-0.88
'0:05.750',-0.37
'0:05.754',-0.17
'0:05.758',0.02
'0:05.762',0.49
'0:05.766',0.66
'0:05.770',0.62
'0:05.773',1
'0:05.777',1.54
'0:05.781',2.22
'0:05.785',2.31
'0:05.789',2.05
'0:05.793',2.34
'0:05.797',2.95
'0:05.801',3.5
'0:05.805',3.92
'0:05.809',4.16
'0:05.813',4.23
'0:05.816',4.32
'0:05.820',4.56
'0:05.824',4.68
'0:05.828',4.76
'0:05.832',4.93
'0:05.836',4.86
'0:05.840',4.62
'0:05.844',4.01
'0:05.848',3.43
'0:05.852',3.01
'0:05.855',2.69
'0:05.859',2.34
'0:05.863',2.18
'0:05.867',2.21
'0:05.871',2.38
'0:05.875',2.52
'0:05.879',2.8
'0:05.883',2.95
'0:05.887',2.91
'0:05.891',2.72
'0:05.895',2.2
'0:05.898',1.62
'0:05.902',1.39
'0:05.906',1.28
'0:05.910',1.11
'0:05.914',0.6
'0:05.918',-0.03
'0:05.922',-0.6
'0:05.926',-0.97
'0:05.930',-1.35
'0:05.934',-1.39
'0:05.938',-1.23
'0:05.941',-1.07
'0:05.945',-1.09
'0:05.949',-1.11
'0:05.953',-1.32
'0:05.957',-1.44
'0:05.961',-1.13
'0:05.965',-0.7
'0:05.969',-0.52
'0:05.973',-0.54
'0:05.977',-0.87
'0:05.980',-1.13
'0:05.984',-1.07
'0:05.988',-0.65
'0:05.992',0.74
'0:05.996',2.7
'0:06.000',5.02
'0:06.004',7.16
'0:06.008',9.55
'0:06.012',10.58
'0:06.016',8.22
'0:06.020',3.35
'0:06.023',-2.45
'0:06.027',-7.02
'0:06.031',-9.75
'0:06.035',-10.43
'0:06.039',-9.41
'0:06.043',-7.31
'0:06.047',-5.13
'0:06.051',-3.29
'0:06.055',-1.94
'0:06.059',-1.01
'0:06.063',-0.34
'0:06.066',0.31
'0:06.070',0.36
'0:06.074',-0.12
'0:06.078',0.16
'0:06.082',2.29
'0:06.086',3.25
'0:06.090',3.3
'0:06.094',2.74
'0:06.098',2.72
'0:06.102',2.57
'0:06.105',2.41
'0:06.109',2.54
'0:06.113',2.92
'0:06.117',2.85
'0:06.121',3.19
'0:06.125',3.87
'0:06.129',4.49
'0:06.133',5.23
'0:06.137',5.94
'0:06.141',6.47
'0:06.145',7.03
'0:06.148',7.69
'0:06.152',7.85
'0:06.156',7.73
'0:06.160',8.01
'0:06.164',8.13
'0:06.168',8.13
'0:06.172',7.32
'0:06.176',6.14
'0:06.180',5.32
'0:06.184',4.48
'0:06.188',3.73
'0:06.191',3.23
'0:06.195',2.79
'0:06.199',1.87
'0:06.203',1.12
'0:06.207',0.84
'0:06.211',0.33
'0:06.215',0.34
'0:06.219',0.83
'0:06.223',1.45
'0:06.227',1.84
'0:06.230',2.11
'0:06.234',2.11
'0:06.238',1.5
'0:06.242',0.81
'0:06.246',0.55
'0:06.250',0.45
'0:06.254',0.59
'0:06.258',-0.01
'0:06.262',-1.45
'0:06.266',-2.26
'0:06.270',-2.75
'0:06.273',-3.77
'0:06.277',-4.38
'0:06.281',-4.18
'0:06.285',-4.1
'0:06.289',-4.19
'0:06.293',-4.33
'0:06.297',-4.91
'0:06.301',-5.33
'0:06.305',-5.17
'0:06.309',-4.74
'0:06.313',-4.33
'0:06.316',-4.02
'0:06.320',-3.91
'0:06.324',-3.99
'0:06.328',-3.9
'0:06.332',-3.43
'0:06.336',-2.55
'0:06.340',-1.32
'0:06.344',0.38
'0:06.348',2.9
'0:06.352',5.96
'0:06.355',8.34
'0:06.359',9.07
'0:06.363',6.6
'0:06.367',1.2
'0:06.371',-4.93
'0:06.375',-9.74
'0:06.379',-12.6
'0:06.383',-13.61
'0:06.387',-12.87
'0:06.391',-11.09
'0:06.395',-9.27
'0:06.398',-7.95
'0:06.402',-6.25
'0:06.406',-4.47
'0:06.410',-3.49
'0:06.414',-3.38
'0:06.418',-3.28
'0:06.422',-2.94
'0:06.426',-2.44
'0:06.430',-2.03
'0:06.434',-1.61
'0:06.438',-1.39
'0:06.441',-1.61
'0:06.445',-1.48
'0:06.449',-1.07
'0:06.453',-0.81
'0:06.457',-0.34
'0:06.461',0.09
'0:06.465',0.09
'0:06.469',-0.17
'0:06.473',-0.46
'0:06.477',0.51
'0:06.480',1.98
'0:06.484',2.63
'0:06.488',3.06
'0:06.492',3.62
'0:06.496',4.13
'0:06.500',3.88
'0:06.504',3.62
'0:06.508',4.13
'0:06.512',4.76
'0:06.516',4.7
'0:06.520',4.03
'0:06.523',3.6
'0:06.527',3.35
'0:06.531',2.38
'0:06.535',1.18
'0:06.539',0.98
'0:06.543',1.46
'0:06.547',1.92
'0:06.551',1.35
'0:06.555',0.48
'0:06.559',0.74
'0:06.563',1.17
'0:06.566',0.81
'0:06.570',0.68
'0:06.574',0.75
'0:06.578',0.4
'0:06.582',0.24
'0:06.586',0.19
'0:06.590',0.02
'0:06.594',-0.44
'0:06.598',-0.93
'0:06.602',-1.55
'0:06.605',-2.24
'0:06.609',-2.29
'0:06.613',-3.15
'0:06.617',-3.3
'0:06.621',-3.25
'0:06.625',-3.01
'0:06.629',-2.95
'0:06.633',-3.02
'0:06.637',-2.96
'0:06.641',-2.77
'0:06.645',-2.73
'0:06.648',-2.85
'0:06.652',-2.89
'0:06.656',-2.61
'0:06.660',-2.39
'0:06.664',-2.35
'0:06.668',-2.03
'0:06.672',-1.13
'0:06.676',0.64
'0:06.680',3.15
'0:06.684',6.05
'0:06.688',8.92
'0:06.691',10.95
'0:06.695',10.1
'0:06.699',5.92
'0:06.703',-0.03
'0:06.707',-5.37
'0:06.711',-8.77
'0:06.715',-10.13
'0:06.719',-9.68
'0:06.723',-7.63
'0:06.727',-5.26
'0:06.730',-3.35
'0:06.734',-1.94
'0:06.738',-0.98
'0:06.742',-0.21
'0:06.746',0.19
'0:06.750',0.53
'0:06.754',0.76
'0:06.758',0.9
'0:06.762',1.31
'0:06.766',1.68
'0:06.770',2.09
'0:06.773',2.37
'0:06.777',2.28
'0:06.781',2.2
'0:06.785',2.12
'0:06.789',2.19
'0:06.793',2.38
'0:06.797',2.13
'0:06.801',2.5
'0:06.805',3.5
'0:06.809',4.52
'0:06.813',5.05
'0:06.816',5.02
'0:06.820',4.38
'0:06.824',4.19
'0:06.828',4.88
'0:06.832',6.04
'0:06.836',6.64
'0:06.840',6.43
'0:06.844',5.86
'0:06.848',5.36
'0:06.852',4.79
'0:06.855',4.54
'0:06.859',4.04
'0:06.863',3.43
'0:06.867',2.63
'0:06.871',2.35
'0:06.875',1.57
'0:06.879',0.93
'0:06.883',1.41
'0:06.887',2.22
'0:06.891',2.17
'0:06.895',1.88
'0:06.898',1.93
'0:06.902',2.14
'0:06.906',2.09
'0:06.910',1.8
'0:06.914',1.31
'0:06.918',1.48
'0:06.922',2.37
'0:06.926',2.86
'0:06.930',2.63
'0:06.934',2.07
'0:06.938',1.34
'0:06.941',0.43
'0:06.945',-0.24
'0:06.949',-0.84
'0:06.953',-1.5
'0:06.957',-1.53
'0:06.961',-1.48
'0:06.965',-1.93
'0:06.969',-2.58
'0:06.973',-2.49
'0:06.977',-1.46
'0:06.980',-0.95
'0:06.984',-1.05
'0:06.988',-1.49
'0:06.992',-1.74
'0:06.996',-1.21
'0:07.000',-0.72
'0:07.004',-1.07
'0:07.008',-2.29
'0:07.012',-2.25
'0:07.016',-0.64
'0:07.020',1.03
'0:07.023',1.99
'0:07.027',3.21
'0:07.031',5.45
'0:07.035',7.68
'0:07.039',8.31
'0:07.043',5.81
'0:07.047',1.41
'0:07.051',-4.47
'0:07.055',-9.34
'0:07.059',-12.22
'0:07.063',-12.49
'0:07.066',-11.01
'0:07.070',-9.34
'0:07.074',-7.09
'0:07.078',-4.54
'0:07.082',-2.64
'0:07.086',-2.09
'0:07.090',-1.89
'0:07.094',-1.47
'0:07.098',-0.79
'0:07.102',-0.63
'0:07.105',-0.75
'0:07.109',-0.59
'0:07.113',0.02
'0:07.117',0.57
'0:07.121',0.14
'0:07.125',-0.69
'0:07.129',-0.93
'0:07.133',-0.85
'0:07.137',-0.83
'0:07.141',-0.72
'0:07.145',-0.5
'0:07.148',-0.28
'0:07.152',0.18
'0:07.156',0.83
'0:07.160',1.27
'0:07.164',1.34
'0:07.168',1.53
'0:07.172',1.66
'0:07.176',1.67
'0:07.180',1.99
'0:07.184',2.37
'0:07.188',2.35
'0:07.191',2.29
'0:07.195',2.3
'0:07.199',1.92
'0:07.203',1.07
'0:07.207',0.36
'0:07.211',0.09
'0:07.215',0.06
'0:07.219',-0.34
'0:07.223',-0.8
'0:07.227',-1.21
'0:07.230',-1.45
'0:07.234',-1.34
'0:07.238',-0.87
'0:07.242',-0.5
'0:07.246',-0.3
'0:07.250',-0.09
'0:07.254',-0.31
'0:07.258',-0.26
'0:07.262',-0.24
'0:07.266',-0.32
'0:07.270',-0.51
'0:07.273',-0.59
'0:07.277',-1.01
'0:07.281',-1.65
'0:07.285',-2.05
'0:07.289',-2.83
'0:07.293',-3.68
'0:07.297',-4.03
'0:07.301',-3.94
'0:07.305',-3.09
'0:07.309',-2.55
'0:07.313',-2.48
'0:07.316',-1.88
'0:07.320',-1.88
'0:07.324',-2.71
'0:07.328',-2.72
'0:07.332',-2.09
'0:07.336',-1.58
'0:07.340',-1.97
'0:07.344',-3.18
'0:07.348',-3.74
'0:07.352',-3.24
'0:07.355',-2.46
'0:07.359',-0.96
'0:07.363',1.78
'0:07.367',4.62
'0:07.371',7.57
'0:07.375',10.3
'0:07.379',9.7
'0:07.383',5.08
'0:07.387',-1.32
'0:07.391',-6.6
'0:07.395',-9.9
'0:07.398',-11.09
'0:07.402',-10.25
'0:07.406',-7.48
'0:07.410',-5.82
'0:07.414',-4.97
'0:07.418',-4.3
'0:07.422',-3.31
'0:07.426',-2.29
'0:07.430',-1.94
'0:07.434',-1.66
'0:07.438',-1.29
'0:07.441',-0.96
'0:07.445',-0.9
'0:07.449',-0.61
'0:07.453',-0.11
'0:07.457',0.27
'0:07.461',0.49
'0:07.465',0.39
'0:07.469',0.33
'0:07.473',0.58
'0:07.477',1
'0:07.480',1.18
'0:07.484',1.33
'0:07.488',1.59
'0:07.492',1.97
'0:07.496',2.49
'0:07.500',3.03
'0:07.504',3.54
'0:07.508',4.17
'0:07.512',4.83
'0:07.516',5.13
'0:07.520',5.04
'0:07.523',4.82
'0:07.527',4.81
'0:07.531',4.74
'0:07.535',4.5
'0:07.539',4.31
'0:07.543',3.82
'0:07.547',3.13
'0:07.551',2.47
'0:07.555',1.92
'0:07.559',1.89
'0:07.563',1.98
'0:07.566',1.75
'0:07.570',1.36
'0:07.574',1.19
'0:07.578',1.51
'0:07.582',1.48
'0:07.586',1.53
'0:07.590',2.14
'0:07.594',2.43
'0:07.598',0.91
'0:07.602',-0.13
'0:07.605',0.63
'0:07.609',1.13
'0:07.613',0.86
'0:07.617',-0.13
'0:07.621',-1.07
'0:07.625',-1.33
'0:07.629',-1.49
'0:07.633',-1.69
'0:07.637',-2.12
'0:07.641',-2.56
'0:07.645',-2.81
'0:07.648',-2.91
'0:07.652',-3.36
'0:07.656',-2.67
'0:07.660',-1.74
'0:07.664',-1.03
'0:07.668',-0.92
'0:07.672',-0.84
'0:07.676',-0.56
'0:07.680',-0.35
'0:07.684',-0.75
'0:07.688',-0.83
'0:07.691',-0.17
'0:07.695',1.29
'0:07.699',3.24
'0:07.703',5.29
'0:07.707',7.33
'0:07.711',10.21
'0:07.715',11.72
'0:07.719',9.44
'0:07.723',4.1
'0:07.727',-1.91
'0:07.730',-6.91
'0:07.734',-9.87
'0:07.738',-10.43
'0:07.742',-9.05
'0:07.746',-6.79
'0:07.750',-4.24
'0:07.754',-2.49
'0:07.758',-1.48
'0:07.762',-0.67
'0:07.766',0.05
'0:07.770',0.56
'0:07.773',0.69
'0:07.777',0.56
'0:07.781',0.89
'0:07.785',1.58
'0:07.789',1.62
'0:07.793',1.66
'0:07.797',1.71
'0:07.801',1.46
'0:07.805',0.64
'0:07.809',-0.1
'0:07.813',0.34
'0:07.816',1.33
'0:07.820',1.8
'0:07.824',1.88
'0:07.828',2.44
'0:07.832',3.36
'0:07.836',4.17
'0:07.840',4.48
'0:07.844',5.01
'0:07.848',5.59
'0:07.852',5.63
'0:07.855',5.05
'0:07.859',4.77
'0:07.863',4.91
'0:07.867',5.22
'0:07.871',5.57
'0:07.875',5.49
'0:07.879',5.18
'0:07.883',4.86
'0:07.887',4.14
'0:07.891',3.02
'0:07.895',2.1
'0:07.898',1.72
'0:07.902',1.59
'0:07.906',1.81
'0:07.910',1.9
'0:07.914',1.88
'0:07.918',1.72
'0:07.922',0.77
'0:07.926',-0.24
'0:07.930',-0.7
'0:07.934',-1.41
'0:07.938',-2.21
'0:07.941',-2.59
'0:07.945',-2.86
'0:07.949',-3.51
'0:07.953',-3.95
'0:07.957',-4.73
'0:07.961',-5.7
'0:07.965',-5.92
'0:07.969',-6.21
'0:07.973',-6.8
'0:07.977',-7.14
'0:07.980',-7.25
'0:07.984',-7.03
'0:07.988',-6.33
'0:07.992',-6.07
'0:07.996',-6.44
'0:08.000',-6.36
'0:08.004',-6.37
'0:08.008',-6.8
'0:08.012',-6.83
'0:08.016',-6.44
'0:08.020',-5.66
'0:08.023',-5.47
'0:08.027',-5.02
'0:08.031',-4.1
'0:08.035',-3.31
'0:08.039',-2.07
'0:08.043',0.03
'0:08.047',2.57
'0:08.051',5.27
'0:08.055',7.44
'0:08.059',7.38
'0:08.063',3.9
'0:08.066',-1.47
'0:08.070',-6.54
'0:08.074',-10.11
'0:08.078',-12.09
'0:08.082',-11.82
'0:08.086',-10.04
'0:08.090',-7.39
'0:08.094',-4.73
'0:08.098',-3.27
'0:08.102',-3.1
'0:08.105',-3.44
'0:08.109',-2.82
'0:08.113',-1.68
'0:08.117',-1.12
'0:08.121',-1.06
'0:08.125',-1.27
'0:08.129',-1.17
'0:08.133',-0.49
'0:08.137',0.63
'0:08.141',1.27
'0:08.145',1.29
'0:08.148',1.08
'0:08.152',0.99
'0:08.156',1.31
'0:08.160',1.44
'0:08.164',1.63
'0:08.168',2.01
'0:08.172',2.8
'0:08.176',3.67
'0:08.180',4.04
'0:08.184',4.36
'0:08.188',4.65
'0:08.191',4.89
'0:08.195',5.1
'0:08.199',5.21
'0:08.203',4.99
'0:08.207',4.68
'0:08.211',4.13
'0:08.215',3.81
'0:08.219',3.72
'0:08.223',3.42
'0:08.227',3.08
'0:08.230',2.56
'0:08.234',2.13
'0:08.238',2.1
'0:08.242',1.95
'0:08.246',1.48
'0:08.250',1.11
'0:08.254',1.18
'0:08.258',1.57
'0:08.262',1.76
'0:08.266',1.55
'0:08.270',1.36
'0:08.273',1.29
'0:08.277',1.29
'0:08.281',1.25
'0:08.285',1.08
'0:08.289',0.69
'0:08.293',0.15
'0:08.297',-0.44
'0:08.301',-0.96
'0:08.305',-1.37
'0:08.309',-1.62
'0:08.313',-1.85
'0:08.316',-1.96
'0:08.320',-2.03
'0:08.324',-2.18
'0:08.328',-2.28
'0:08.332',-2.27
'0:08.336',-2.31
'0:08.340',-2.34
'0:08.344',-2.43
'0:08.348',-2.24
'0:08.352',-1.99
'0:08.355',-1.75
'0:08.359',-1.55
'0:08.363',-0.99
'0:08.367',-0.14
'0:08.371',1
'0:08.375',2.88
'0:08.379',4.89
'0:08.383',6.78
'0:08.387',8.7
'0:08.391',8.75
'0:08.395',5.58
'0:08.398',0.43
'0:08.402',-5.4
'0:08.406',-9.75
'0:08.410',-11.09
'0:08.414',-10.32
'0:08.418',-8.42
'0:08.422',-6.28
'0:08.426',-4.26
'0:08.430',-2.46
'0:08.434',-0.99
'0:08.438',-0.17
'0:08.441',-0.07
'0:08.445',-0.16
'0:08.449',0.14
'0:08.453',0.18
'0:08.457',0.15
'0:08.461',0.92
'0:08.465',1.33
'0:08.469',1.33
'0:08.473',1.92
'0:08.477',2.88
'0:08.480',3.17
'0:08.484',3.02
'0:08.488',2.81
'0:08.492',3.29
'0:08.496',3.71
'0:08.500',3.89
'0:08.504',4.38
'0:08.508',4.46
'0:08.512',4.62
'0:08.516',5.57
'0:08.520',6.89
'0:08.523',7.25
'0:08.527',6.85
'0:08.531',6.66
'0:08.535',6.72
'0:08.539',6.43
'0:08.543',5.77
'0:08.547',5.39
'0:08.551',5.3
'0:08.555',5.07
'0:08.559',4.97
'0:08.563',4.35
'0:08.566',3.36
'0:08.570',2.05
'0:08.574',0.29
'0:08.578',-0.36
'0:08.582',0.22
'0:08.586',0.87
'0:08.590',0.97
'0:08.594',1.71
'0:08.598',2
'0:08.602',1.42
'0:08.605',1.14
'0:08.609',1.38
'0:08.613',1.73
'0:08.617',1.29
'0:08.621',1.3
'0:08.625',1.89
'0:08.629',1.57
'0:08.633',0.34
'0:08.637',-1.07
'0:08.641',-1.88
'0:08.645',-2.28
'0:08.648',-2.58
'0:08.652',-2.87
'0:08.656',-3.13
'0:08.660',-3.6
'0:08.664',-3.86
'0:08.668',-4.1
'0:08.672',-4.05
'0:08.676',-3.54
'0:08.680',-3.58
'0:08.684',-4.11
'0:08.688',-4.21
'0:08.691',-4.28
'0:08.695',-4.23
'0:08.699',-3.82
'0:08.703',-3.23
'0:08.707',-2.85
'0:08.711',-2.26
'0:08.715',-0.97
'0:08.719',0.8
'0:08.723',3.02
'0:08.727',5.42
'0:08.730',7.58
'0:08.734',10.06
'0:08.738',11.68
'0:08.742',10.17
'0:08.746',5.08
'0:08.750',-1.14
'0:08.754',-6.18
'0:08.758',-9.45
'0:08.762',-10.86
'0:08.766',-10.52
'0:08.770',-9.53
'0:08.773',-8.3
'0:08.777',-6.62
'0:08.781',-5.77
'0:08.785',-5.78
'0:08.789',-5.74
'0:08.793',-4.9
'0:08.797',-4.26
'0:08.801',-4.4
'0:08.805',-4.29
'0:08.809',-4.21
'0:08.813',-4.12
'0:08.816',-3.73
'0:08.820',-2.97
'0:08.824',-2.39
'0:08.828',-2.48
'0:08.832',-2.48
'0:08.836',-1.57
'0:08.840',-1.19
'0:08.844',-0.74
'0:08.848',-0.26
'0:08.852',0.24
'0:08.855',0.54
'0:08.859',0.37
'0:08.863',0.4
'0:08.867',1.35
'0:08.871',2.34
'0:08.875',2.66
'0:08.879',2.64
'0:08.883',2.73
'0:08.887',2.54
'0:08.891',2.69
'0:08.895',2.59
'0:08.898',2.19
'0:08.902',1.87
'0:08.906',1.42
'0:08.910',0.48
'0:08.914',-0.01
'0:08.918',-0.19
'0:08.922',-0.7
'0:08.926',-1.41
'0:08.930',-1.44
'0:08.934',-1.03
'0:08.938',-0.66
'0:08.941',-0.58
'0:08.945',-0.45
'0:08.949',-0.06
'0:08.953',0.2
'0:08.957',-0.25
'0:08.961',-0.84
'0:08.965',-1.1
'0:08.969',-1.32
'0:08.973',-1.72
'0:08.977',-2.46
'0:08.980',-3.25
'0:08.984',-3.66
'0:08.988',-3.75
'0:08.992',-3.89
'0:08.996',-4.13
'0:09.000',-3.9
'0:09.004',-3.62
'0:09.008',-3.48
'0:09.012',-3.58
'0:09.016',-3.52
'0:09.020',-3.28
'0:09.023',-3.09
'0:09.027',-2.64
'0:09.031',-2.34
'0:09.035',-2.71
'0:09.039',-3.02
'0:09.043',-2.96
'0:09.047',-2.79
'0:09.051',-2.18
'0:09.055',-0.52
'0:09.059',2.06
'0:09.063',4.7
'0:09.066',7.4
'0:09.070',9.79
'0:09.074',9.89
'0:09.078',6.83
'0:09.082',1.4
'0:09.086',-4.1
'0:09.090',-7.93
'0:09.094',-9.34
'0:09.098',-8.52
'0:09.102',-7.07
'0:09.105',-5.47
'0:09.109',-3.62
'0:09.113',-2.07
'0:09.117',-1.22
'0:09.121',-0.9
'0:09.125',-0.28
'0:09.129',0.53
'0:09.133',1.08
'0:09.137',1.58
'0:09.141',1.63
'0:09.145',1.56
'0:09.148',1.79
'0:09.152',1.94
'0:09.156',1.75
'0:09.160',2.22
'0:09.164',2.63
'0:09.168',3.34
'0:09.172',3.97
'0:09.176',3.83
'0:09.180',3.57
'0:09.184',4.11
'0:09.188',4.74
'0:09.191',4.6
'0:09.195',4.65
'0:09.199',5.26
'0:09.203',5.87
'0:09.207',6.15
'0:09.211',6.68
'0:09.215',7.24
'0:09.219',6.87
'0:09.223',6.02
'0:09.227',7.24
'0:09.230',14.12
'0:09.234',13.15
'0:09.238',9.25
'0:09.242',6.7
'0:09.246',4.78
'0:09.250',4.19
'0:09.254',4.19
'0:09.258',4.19
'0:09.262',4.19
'0:09.266',1.37
'0:09.270',1.37
'0:09.273',1.42
'0:09.277',1.85
'0:09.281',2.13
'0:09.285',2.32
'0:09.289',2.22
'0:09.293',1.72
'0:09.297',1.27
'0:09.301',0.85
'0:09.305',0.66
'0:09.309',0.12
'0:09.313',-0.35
'0:09.316',-0.38
'0:09.320',-0.56
'0:09.324',-1.65
'0:09.328',-2.91
'0:09.332',-3.53
'0:09.336',-3.42
'0:09.340',-3.28
'0:09.344',-2.94
'0:09.348',-2.55
'0:09.352',-2.52
'0:09.355',-2.53
'0:09.359',-2.77
'0:09.363',-2.86
'0:09.367',-2.5
'0:09.371',-2.26
'0:09.375',-2.39
'0:09.379',-2.9
'0:09.383',-2.95
'0:09.387',-2.54
'0:09.391',-2.15
'0:09.395',-1.22
'0:09.398',0.53
'0:09.402',3.58
'0:09.406',6.34
'0:09.410',7.99
'0:09.414',8.92
'0:09.418',8.23
'0:09.422',4.92
'0:09.426',-0.75
'0:09.430',-6.22
'0:09.434',-10
'0:09.438',-11.51
'0:09.441',-10.95
'0:09.445',-9.68
'0:09.449',-7.89
'0:09.453',-5.82
'0:09.457',-4.06
'0:09.461',-2.84
'0:09.465',-2.4
'0:09.469',-2.28
'0:09.473',-1.93
'0:09.477',-1.49
'0:09.480',-1.13
'0:09.484',-0.79
'0:09.488',-0.4
'0:09.492',-0.13
'0:09.496',0.04
'0:09.500',0.15
'0:09.504',0.26
'0:09.508',0.54
'0:09.512',0.74
'0:09.516',0.92
'0:09.520',1.29
'0:09.523',1.7
'0:09.527',2.15
'0:09.531',2.28
'0:09.535',2.31
'0:09.539',2.69
'0:09.543',3.21
'0:09.547',3.63
'0:09.551',3.92
'0:09.555',4.3
'0:09.559',4.63
'0:09.563',4.37
'0:09.566',3.47
'0:09.570',2.94
'0:09.574',2.68
'0:09.578',2.39
'0:09.582',1.86
'0:09.586',1.14
'0:09.590',1.06
'0:09.594',1.29
'0:09.598',1.01
'0:09.602',0.26
'0:09.605',-0.54
'0:09.609',-1.1
'0:09.613',-1.73
'0:09.617',-1.79
'0:09.621',-1.22
'0:09.625',-0.89
'0:09.629',-0.8
'0:09.633',-0.72
'0:09.637',-0.51
'0:09.641',-0.43
'0:09.645',-0.37
'0:09.648',-0.22
'0:09.652',-0.78
'0:09.656',-1.19
'0:09.660',-1.72
'0:09.664',-2.45
'0:09.668',-3.37
'0:09.672',-4.58
'0:09.676',-5.13
'0:09.680',-5.1
'0:09.684',-5.2
'0:09.688',-5.33
'0:09.691',-5.35
'0:09.695',-4.71
'0:09.699',-4.08
'0:09.703',-4.21
'0:09.707',-4.59
'0:09.711',-4.59
'0:09.715',-4.13
'0:09.719',-3.83
'0:09.723',-3.94
'0:09.727',-4.26
'0:09.730',-3.89
'0:09.734',-2.62
'0:09.738',-0.86
'0:09.742',1.56
'0:09.746',4.19
'0:09.750',6.74
'0:09.754',7.99
'0:09.758',5.9
'0:09.762',1
'0:09.766',-4.82
'0:09.770',-9.38
'0:09.773',-12.13
'0:09.777',-13.24
'0:09.781',-12.54
'0:09.785',-10.29
'0:09.789',-7.52
'0:09.793',-5.33
'0:09.797',-4.04
'0:09.801',-3.2
'0:09.805',-2.34
'0:09.809',-1.45
'0:09.813',-0.89
'0:09.816',-0.38
'0:09.820',0.11
'0:09.824',0.16
'0:09.828',0.15
'0:09.832',0.16
'0:09.836',0.4
'0:09.840',0.72
'0:09.844',0.96
'0:09.848',1.36
'0:09.852',1.57
'0:09.855',1.66
'0:09.859',1.97
'0:09.863',2.6
'0:09.867',3.34
'0:09.871',3.92
'0:09.875',4.12
'0:09.879',4.03
'0:09.883',4.23
'0:09.887',4.66
'0:09.891',5.11
'0:09.895',5.35
'0:09.898',5.36
'0:09.902',5.26
'0:09.906',5.39
'0:09.910',5.28
'0:09.914',5.07
'0:09.918',4.79
'0:09.922',4.08
'0:09.926',3.45
'0:09.930',2.98
'0:09.934',2.57
'0:09.938',2.26
'0:09.941',2.33
'0:09.945',2.33
'0:09.949',2.17
'0:09.953',2.01
'0:09.957',2.16
'0:09.961',2.63
'0:09.965',3.01
'0:09.969',3.57
'0:09.973',3.04
'0:09.977',1.81
'0:09.980',1.05
'0:09.984',0.63
'0:09.988',0.05
'0:09.992',-0.44
'0:09.996',-0.53
'0:10.000',-0.82
'0:10.004',-2
'0:10.008',-2.8
'0:10.012',-3.16
'0:10.016',-3.47
'0:10.020',-3.47
'0:10.023',-3.14
'0:10.027',-2.3
'0:10.031',3.99
'0:10.035',4.37
'0:10.039',1.82
'0:10.043',0.47
'0:10.047',-0.25
'0:10.051',-1
'0:10.055',-1.84
'0:10.059',-2.3
'0:10.063',-2.36
'0:10.066',-2.03
'0:10.070',-1.14
'0:10.074',0.73
'0:10.078',3.74
'0:10.082',6.61
'0:10.086',8.94
'0:10.090',9.88
'0:10.094',7.89
'0:10.098',3.64
'0:10.102',-1.78
'0:10.105',-6.55
'0:10.109',-9.35
'0:10.113',-10.35
'0:10.117',-9.43
'0:10.121',-7.35
'0:10.125',-5.25
'0:10.129',-3.46
'0:10.133',-1.85
'0:10.137',-0.84
'0:10.141',-0.55
'0:10.145',-0.2
'0:10.148',0.17
'0:10.152',0.32
'0:10.156',0.32
'0:10.160',0.38
'0:10.164',0.81
'0:10.168',1.34
'0:10.172',1.45
'0:10.176',1.38
'0:10.180',1.43
'0:10.184',1.86
'0:10.188',2.12
'0:10.191',2.19
'0:10.195',2.18
'0:10.199',2.7
'0:10.203',3.36
'0:10.207',3.85
'0:10.211',4.49
'0:10.215',4.78
'0:10.219',4.77
'0:10.223',4.93
'0:10.227',5.05
'0:10.230',5.33
'0:10.234',5.52
'0:10.238',5.51
'0:10.242',5.7
'0:10.246',5.68
'0:10.250',5.23
'0:10.254',4.35
'0:10.258',3.35
'0:10.262',2.49
'0:10.266',1.7
'0:10.270',1.15
'0:10.273',0.17
'0:10.277',-0.59
'0:10.281',-0.83
'0:10.285',-0.2
'0:10.289',0.37
'0:10.293',0.46
'0:10.297',0.7
'0:10.301',0.99
'0:10.305',0.97
'0:10.309',1.05
'0:10.313',0.92
'0:10.316',0.63
'0:10.320',0.69
'0:10.324',0.88
'0:10.328',0.57
'0:10.332',-0.06
'0:10.336',-1.14
'0:10.340',-2.29
'0:10.344',-3.04
'0:10.348',-3.57
'0:10.352',-3.96
'0:10.355',-3.92
'0:10.359',-3.82
'0:10.363',-3.88
'0:10.367',-4.17
'0:10.371',-4.4
'0:10.375',-4.35
'0:10.379',-4.09
'0:10.383',-3.78
'0:10.387',-3.65
'0:10.391',-3.69
'0:10.395',-3.83
'0:10.398',-4.18
'0:10.402',-4.46
'0:10.406',-4.06
'0:10.410',-3.06
'0:10.414',-1.67
'0:10.418',0.12
'0:10.422',2.28
'0:10.426',4.18
'0:10.430',6.38
'0:10.434',7.98
'0:10.438',6.78
'0:10.441',2.31
'0:10.445',-3.37
'0:10.449',-7.78
'0:10.453',-10.64
'0:10.457',-12.55
'0:10.461',-11.94
'0:10.465',-9.21
'0:10.469',-6.7
'0:10.473',-5.14
'0:10.477',-3.73
'0:10.480',-2.53
'0:10.484',-2.44
'0:10.488',-2.65
'0:10.492',-2.66
'0:10.496',-2.61
'0:10.500',-2.44
'0:10.504',-2.31
'0:10.508',-2.2
'0:10.512',-2.21
'0:10.516',-1.65
'0:10.520',-1.16
'0:10.523',-0.95
'0:10.527',-0.76
'0:10.531',-0.67
'0:10.535',-0.89
'0:10.539',-1.41
'0:10.543',-1.74
'0:10.547',-1.45
'0:10.551',-0.78
'0:10.555',-0.12
'0:10.559',0.59
'0:10.563',1.27
'0:10.566',1.75
'0:10.570',2.04
'0:10.574',2.27
'0:10.578',2.48
'0:10.582',2.46
'0:10.586',2.5
'0:10.590',2.58
'0:10.594',2.55
'0:10.598',2.08
'0:10.602',1.3
'0:10.605',0.71
'0:10.609',0.4
'0:10.613',0.35
'0:10.617',0.31
'0:10.621',0.56
'0:10.625',1.06
'0:10.629',1.52
'0:10.633',1.43
'0:10.637',1.19
'0:10.641',1.04
'0:10.645',1.1
'0:10.648',1.12
'0:10.652',0.83
'0:10.656',0.45
'0:10.660',0.1
'0:10.664',-0.44
'0:10.668',-0.95
'0:10.672',-1.62
'0:10.676',-2.39
'0:10.680',-2.79
'0:10.684',-2.69
'0:10.688',-2.62
'0:10.691',-2.43
'0:10.695',-2.26
'0:10.699',-2.43
'0:10.703',-2.78
'0:10.707',-2.98
'0:10.711',-2.79
'0:10.715',-2.5
'0:10.719',-2.24
'0:10.723',-2.26
'0:10.727',-2.36
'0:10.730',-2.42
'0:10.734',-2.48
'0:10.738',-2.21
'0:10.742',-1.45
'0:10.746',-0.4
'0:10.750',1.32
'0:10.754',4
'0:10.758',6.76
'0:10.762',9.35
'0:10.766',10.77
'0:10.770',9.35
'0:10.773',5.32
'0:10.777',-0.27
'0:10.781',-5.5
'0:10.785',-8.99
'0:10.789',-10.32
'0:10.793',-9.93
'0:10.797',-7.7
'0:10.801',-5.29
'0:10.805',-3.21
'0:10.809',-1.77
'0:10.813',-1.15
'0:10.816',-0.86
'0:10.820',-0.66
'0:10.824',-0.28
'0:10.828',0.03
'0:10.832',0.61
'0:10.836',2.64
'0:10.840',5.92
'0:10.844',4.69
'0:10.848',3.5
'0:10.852',2.44
'0:10.855',2.18
'0:10.859',2.57
'0:10.863',3
'0:10.867',3.13
'0:10.871',2.76
'0:10.875',2.65
'0:10.879',3.49
'0:10.883',4.13
'0:10.887',4.22
'0:10.891',4.3
'0:10.895',4.63
'0:10.898',5.33
'0:10.902',6.09
'0:10.906',6.23
'0:10.910',6.13
'0:10.914',6.32
'0:10.918',6.47
'0:10.922',6.13
'0:10.926',6.07
'0:10.930',5.72
'0:10.934',4.85
'0:10.938',3.69
'0:10.941',2.72
'0:10.945',2.23
'0:10.949',2.19
'0:10.953',1.97
'0:10.957',1.81
'0:10.961',1.74
'0:10.965',1.42
'0:10.969',1.21
'0:10.973',1.25
'0:10.977',0.85
'0:10.980',0.86
'0:10.984',1.17
'0:10.988',1.44
'0:10.992',1.4
'0:10.996',1.28
'0:11.000',1.05
'0:11.004',0.67
'0:11.008',0.16
'0:11.012',0.04
'0:11.016',-0.5
'0:11.020',-1.25
'0:11.023',-1.82
'0:11.027',-2.44
'0:11.031',-3.05
'0:11.035',-3.36
'0:11.039',-3.17
'0:11.043',-2.68
'0:11.047',-2.38
'0:11.051',-2.43
'0:11.055',-2.64
'0:11.059',-2.77
'0:11.063',-2.86
'0:11.066',-2.96
'0:11.070',-2.73
'0:11.074',-2.29
'0:11.078',-1.92
'0:11.082',-1.51
'0:11.086',-1.27
'0:11.090',-0.62
'0:11.094',0.73
'0:11.098',2.52
'0:11.102',3.94
'0:11.105',5.02
'0:11.109',5.52
'0:11.113',4.23
'0:11.117',0.53
'0:11.121',-4.41
'0:11.125',-8.2
'0:11.129',-9.66
'0:11.133',-8.93
'0:11.137',-7.35
'0:11.141',-5.63
'0:11.145',-4.43
'0:11.148',-3.32
'0:11.152',-2.15
'0:11.156',-1.45
'0:11.160',-1.23
'0:11.164',-1.24
'0:11.168',-0.92
'0:11.172',-0.44
'0:11.176',-0.16
'0:11.180',0.11
'0:11.184',0.27
'0:11.188',0.3
'0:11.191',0.2
'0:11.195',0.63
'0:11.199',1.37
'0:11.203',2.1
'0:11.207',2.55
'0:11.211',2.33
'0:11.215',1.7
'0:11.219',1.64
'0:11.223',2.46
'0:11.227',3.38
'0:11.230',4.09
'0:11.234',4.52
'0:11.238',4.44
'0:11.242',3.99
'0:11.246',3.53
'0:11.250',3.19
'0:11.254',2.33
'0:11.258',1.43
'0:11.262',1.71
'0:11.266',2.21
'0:11.270',2.05
'0:11.273',1.18
'0:11.277',0.54
'0:11.281',-0.52
'0:11.285',-1.42
'0:11.289',-1.32
'0:11.293',-1
'0:11.297',-0.61
'0:11.301',-0.42
'0:11.305',-0.81
'0:11.309',-1.03
'0:11.313',-0.96
'0:11.316',-1.3
'0:11.320',-1.16
'0:11.324',-0.43
'0:11.328',0
'0:11.332',-0.14
'0:11.336',-0.17
'0:11.340',-0.31
'0:11.344',-0.45
'0:11.348',-0.92
'0:11.352',-1.63
'0:11.355',-2.33
'0:11.359',-3.09
'0:11.363',-4.05
'0:11.367',-4.83
'0:11.371',-5.23
'0:11.375',-5.31
'0:11.379',-5.2
'0:11.383',-4.86
'0:11.387',-4.88
'0:11.391',-5.12
'0:11.395',-5.2
'0:11.398',-4.92
'0:11.402',-4.41
'0:11.406',-4.04
'0:11.410',-3.88
'0:11.414',-4.11
'0:11.418',-4.47
'0:11.422',-4.54
'0:11.426',-3.91
'0:11.430',-2.68
'0:11.434',-1.12
'0:11.438',1.25
'0:11.441',4.08
'0:11.445',6.68
'0:11.449',8.46
'0:11.453',7.4
'0:11.457',3.36
'0:11.461',-2.02
'0:11.465',-7.05
'0:11.469',-10.78
'0:11.473',-12.58
'0:11.477',-12.46
'0:11.480',-10.78
'0:11.484',-8.57
'0:11.488',-6.61
'0:11.492',1.59
'0:11.496',9.99
'0:11.500',6.83
'0:11.504',3.05
'0:11.508',0.57
'0:11.512',-0.94
'0:11.516',-1.92
'0:11.520',-2.3
'0:11.523',-2.18
'0:11.527',-1.95
'0:11.531',-2.03
'0:11.535',-2.15
'0:11.539',-1.92
'0:11.543',-1.48
'0:11.547',-0.81
'0:11.551',-0.24
'0:11.555',-0.02
'0:11.559',0.2
'0:11.563',0.8
'0:11.566',1.62
'0:11.570',1.83
'0:11.574',1.95
'0:11.578',2.37
'0:11.582',2.8
'0:11.586',3.24
'0:11.590',3.78
'0:11.594',4.59
'0:11.598',5.14
'0:11.602',5.39
'0:11.605',5.25
'0:11.609',4.95
'0:11.613',4.38
'0:11.617',3.79
'0:11.621',3.25
'0:11.625',2.89
'0:11.629',3.07
'0:11.633',3.37
'0:11.637',3.23
'0:11.641',2.78
'0:11.645',2.42
'0:11.648',2.18
'0:11.652',2.69
'0:11.656',3.17
'0:11.660',3.21
'0:11.664',2.76
'0:11.668',2.32
'0:11.672',2.16
'0:11.676',1.95
'0:11.680',1.45
'0:11.684',0.96
'0:11.688',0.45
'0:11.691',-0.08
'0:11.695',-0.69
'0:11.699',-1.44
'0:11.703',-2.12
'0:11.707',-2.63
'0:11.711',-2.92
'0:11.715',-2.89
'0:11.719',-2.91
'0:11.723',-2.81
'0:11.727',-2.57
'0:11.730',-2.2
'0:11.734',-2.02
'0:11.738',-1.78
'0:11.742',-2.13
'0:11.746',-2.7
'0:11.750',-1.91
'0:11.754',-1.32
'0:11.758',-1.08
'0:11.762',-0.95
'0:11.766',1.83
'0:11.770',4.28
'0:11.773',6.65
'0:11.777',8.71
'0:11.781',9.44
'0:11.785',7.23
'0:11.789',2.51
'0:11.793',-2.93
'0:11.797',-6.04
'0:11.801',-10.08
'0:11.805',-11.26
'0:11.809',-10.54
'0:11.813',-9.15
'0:11.816',-7.16
'0:11.820',-4.87
'0:11.824',-2.8
'0:11.828',-1.16
'0:11.832',-0.04
'0:11.836',0.49
'0:11.840',0.68
'0:11.844',0.76
'0:11.848',0.76
'0:11.852',0.62
'0:11.855',0.46
'0:11.859',0.55
'0:11.863',0.72
'0:11.867',0.84
'0:11.871',1.11
'0:11.875',1.71
'0:11.879',2.2
'0:11.883',2.07
'0:11.887',1.9
'0:11.891',2.06
'0:11.895',2.31
'0:11.898',2.86
'0:11.902',3.37
'0:11.906',3.78
'0:11.910',4.14
'0:11.914',4.65
'0:11.918',5.07
'0:11.922',5.46
'0:11.926',5.91
'0:11.930',6.16
'0:11.934',6.09
'0:11.938',6.07
'0:11.941',6.07
'0:11.945',5.82
'0:11.949',5.13
'0:11.953',4.22
'0:11.957',3.14
'0:11.961',2.55
'0:11.965',2.36
'0:11.969',2.4
'0:11.973',2.51
'0:11.977',1.86
'0:11.980',1.01
'0:11.984',1.15
'0:11.988',1.17
'0:11.992',0.88
'0:11.996',1.74
'0:12.000',2.86
'0:12.004',2.81
'0:12.008',2.01
'0:12.012',0.96
'0:12.016',0.21
'0:12.020',-0.21
'0:12.023',-0.9
'0:12.027',-1.72
'0:12.031',-2.11
'0:12.035',-2.39
'0:12.039',-3.06
'0:12.043',-3.9
'0:12.047',-4.04
'0:12.051',-4.04
'0:12.055',-3.6
'0:12.059',-3.85
'0:12.063',-3.76
'0:12.066',-3.26
'0:12.070',-3.14
'0:12.074',-3.24
'0:12.078',-3.24
'0:12.082',-3.01
'0:12.086',-2.67
'0:12.090',-2.7
'0:12.094',-2.52
'0:12.098',-2.43
'0:12.102',-2.28
'0:12.105',-1.87
'0:12.109',-0.53
'0:12.113',1.85
'0:12.117',3.88
'0:12.121',7.99
'0:12.125',8.07
'0:12.129',4.39
'0:12.133',-1.29
'0:12.137',-6.64
'0:12.141',-10.24
'0:12.145',-12.65
'0:12.148',-13.09
'0:12.152',-11.82
'0:12.156',-9.8
'0:12.160',-7.62
'0:12.164',-5.8
'0:12.168',-4.69
'0:12.172',-4.3
'0:12.176',-4.02
'0:12.180',-3.7
'0:12.184',-3.7
'0:12.188',-3.7
'0:12.191',-1.95
'0:12.195',-1.58
'0:12.199',-1.5
'0:12.203',-1.47
'0:12.207',-1.28
'0:12.211',-0.99
'0:12.215',-0.77
'0:12.219',-0.52
'0:12.223',-0.43
'0:12.227',-0.57
'0:12.230',-0.49
'0:12.234',0.23
'0:12.238',1.18
'0:12.242',2.1
'0:12.246',2.55
'0:12.250',2.96
'0:12.254',3.58
'0:12.258',3.96
'0:12.262',4.01
'0:12.266',4.21
'0:12.270',4.24
'0:12.273',5.34
'0:12.277',6.63
'0:12.281',6.63
'0:12.285',6.63
'0:12.289',6.63
'0:12.293',2.91
'0:12.297',2.19
'0:12.301',1.45
'0:12.305',1.19
'0:12.309',1.24
'0:12.313',1.08
'0:12.316',0.82
'0:12.320',1.41
'0:12.324',1.84
'0:12.328',1.67
'0:12.332',1.37
'0:12.336',0.92
'0:12.340',0.34
'0:12.344',-0.31
'0:12.348',-0.07
'0:12.352',0.44
'0:12.355',-0.05
'0:12.359',-1.18
'0:12.363',-1.75
'0:12.367',-2.14
'0:12.371',-2.31
'0:12.375',-2.44
'0:12.379',-2.97
'0:12.383',-3.64
'0:12.387',-3.51
'0:12.391',-3.18
'0:12.395',-3.05
'0:12.398',-2.8
'0:12.402',-2.48
'0:12.406',-2.37
'0:12.410',-2.2
'0:12.414',-1.76
'0:12.418',-1.33
'0:12.422',-1.32
'0:12.426',-2.52
'0:12.430',-2.13
'0:12.434',-1.43
'0:12.438',0.15
'0:12.441',2.38
'0:12.445',5.06
'0:12.449',6.75
'0:12.453',9.38
'0:12.457',9.26
'0:12.461',5.77
'0:12.465',4.24
'0:12.469',-5
'0:12.473',-8.34
'0:12.477',-10.4
'0:12.480',-10.59
'0:12.484',-8.49
'0:12.488',-5.13
'0:12.492',-4.77
'0:12.496',-3.01
'0:12.500',-1.95
'0:12.504',-1.5
'0:12.508',-0.97
'0:12.512',-0.01
'0:12.516',0.5
'0:12.520',0.52
'0:12.523',1.33
'0:12.527',2.07
'0:12.531',2.48
'0:12.535',2.49
'0:12.539',2.48
'0:12.543',1.97
'0:12.547',2.04
'0:12.551',2.65
'0:12.555',3.53
'0:12.559',3.75
'0:12.563',3.49
'0:12.566',3.21
'0:12.570',2.93
'0:12.574',2.84
'0:12.578',2.89
'0:12.582',3.39
'0:12.586',4.29
'0:12.590',4.94
'0:12.594',5.45
'0:12.598',5.73
'0:12.602',5.67
'0:12.605',5.34
'0:12.609',4.91
'0:12.613',4.56
'0:12.617',4.32
'0:12.621',4.03
'0:12.625',3.8
'0:12.629',3.21
'0:12.633',2.64
'0:12.637',1.89
'0:12.641',0.95
'0:12.645',0.41
'0:12.648',-0.1
'0:12.652',-0.38
'0:12.656',-0.43
'0:12.660',-0.3
'0:12.664',-0.23
'0:12.668',-0.4
'0:12.672',0.2
'0:12.676',0.88
'0:12.680',0.91
'0:12.684',0.7
'0:12.688',0.27
'0:12.691',0.06
'0:12.695',0.05
'0:12.699',-0.31
'0:12.703',-0.7
'0:12.707',-1.39
'0:12.711',-2.08
'0:12.715',-2.6
'0:12.719',-3.11
'0:12.723',-3.41
'0:12.727',-3.3
'0:12.730',-3.29
'0:12.734',-3.23
'0:12.738',-3.25
'0:12.742',-3.12
'0:12.746',-2.79
'0:12.750',-2.13
'0:12.754',-1.91
'0:12.758',-2.48
'0:12.762',-2.94
'0:12.766',-2.63
'0:12.770',-1.85
'0:12.773',-1.04
'0:12.777',-0.12
'0:12.781',1.31
'0:12.785',2.96
'0:12.789',4.1
'0:12.793',4.75
'0:12.797',4.79
'0:12.801',3.97
'0:12.805',2.73
'0:12.809',-0.54
'0:12.813',-5.08
'0:12.816',-6.82
'0:12.820',-8.81
'0:12.824',-7.67
'0:12.828',-5.88
'0:12.832',-4.43
'0:12.836',-3.65
'0:12.840',-2.52
'0:12.844',-1.34
'0:12.848',-1.34
'0:12.852',-1.02
'0:12.855',-0.79
'0:12.859',-0.38
'0:12.863',-0.25
'0:12.867',-0.2
'0:12.871',-0.16
'0:12.875',-0.2
'0:12.879',0.28
'0:12.883',0.67
'0:12.887',0.63
'0:12.891',0.94
'0:12.895',1.56
'0:12.898',2.23
'0:12.902',2.33
'0:12.906',2.47
'0:12.910',3.23
'0:12.914',3.52
'0:12.918',3.68
'0:12.922',3.58
'0:12.926',3.17
'0:12.930',3.61
'0:12.934',4.04
'0:12.938',3.87
'0:12.941',3.55
'0:12.945',3.19
'0:12.949',2.56
'0:12.953',1.87
'0:12.957',1.43
'0:12.961',0.62
'0:12.965',-0.24
'0:12.969',-0.8
'0:12.973',-1.43
'0:12.977',-2.01
'0:12.980',-1.91
'0:12.984',-1.6
'0:12.988',-1.53
'0:12.992',-1.64
'0:12.996',-1.7
'0:13.000',-1.8
'0:13.004',-1.7
'0:13.008',-1.16
'0:13.012',-0.54
'0:13.016',-0.29
'0:13.020',-0.47
'0:13.023',-0.51
'0:13.027',-0.48
'0:13.031',-0.49
'0:13.035',-1.03
'0:13.039',-1.46
'0:13.043',-2
'0:13.047',-2.92
'0:13.051',-3.54
'0:13.055',-3.83
'0:13.059',-4.73
'0:13.063',-5.03
'0:13.066',-5.04
'0:13.070',-4.88
'0:13.074',-4.59
'0:13.078',-4.16
'0:13.082',-3.83
'0:13.086',-3.7
'0:13.090',-3.91
'0:13.094',-3.96
'0:13.098',-3.9
'0:13.102',-3.8
'0:13.105',-3.81
'0:13.109',-3.9
'0:13.113',-3.54
'0:13.117',-2.72
'0:13.121',-1.01
'0:13.125',1.47
'0:13.129',4.03
'0:13.133',6.63
'0:13.137',8.9
'0:13.141',9.76
'0:13.145',6.58
'0:13.148',1.17
'0:13.152',-4.3
'0:13.156',-8.53
'0:13.160',-10.84
'0:13.164',-11.03
'0:13.168',-9.64
'0:13.172',-8.01
'0:13.176',-6.53
'0:13.180',-4.36
'0:13.184',-3.1
'0:13.188',-2.57
'0:13.191',-1.41
'0:13.195',-0.03
'0:13.199',0.36
'0:13.203',0.58
'0:13.207',0.95
'0:13.211',0.91
'0:13.215',0.98
'0:13.219',1.39
'0:13.223',1.7
'0:13.227',2.09
'0:13.230',1.96
'0:13.234',1.61
'0:13.238',1.84
'0:13.242',2.88
'0:13.246',3.72
'0:13.250',3.97
'0:13.254',3.38
'0:13.258',3.19
'0:13.262',3.69
'0:13.266',4.44
'0:13.270',5.11
'0:13.273',5.75
'0:13.277',5.75
'0:13.281',5.88
'0:13.285',5.92
'0:13.289',5.92
'0:13.293',5.92
'0:13.297',6.38
'0:13.301',5.94
'0:13.305',5.75
'0:13.309',5.75
'0:13.313',5.75
'0:13.316',5.75
'0:13.320',5.75
'0:13.324',2.59
'0:13.328',2.94
'0:13.332',3
'0:13.336',2.39
'0:13.340',1.89
'0:13.344',2.33
'0:13.348',2.62
'0:13.352',2.38
'0:13.355',2.13
'0:13.359',2.01
'0:13.363',1.79
'0:13.367',1.29
'0:13.371',0.66
'0:13.375',0.41
'0:13.379',-0.13
'0:13.383',-1.2
'0:13.387',-2.53
'0:13.391',-3.32
'0:13.395',-3.19
'0:13.398',-3.35
'0:13.402',-3.37
'0:13.406',-3.02
'0:13.410',-2.87
'0:13.414',-2.85
'0:13.418',-3.04
'0:13.422',-3.38
'0:13.426',-3.25
'0:13.430',-2.98
'0:13.434',-2.92
'0:13.438',-2.7
'0:13.441',-2.33
'0:13.445',-2.26
'0:13.449',-2.56
'0:13.453',-2.44
'0:13.457',-1.31
'0:13.461',0.7
'0:13.465',3.26
'0:13.469',5.53
'0:13.473',7.34
'0:13.477',8.29
'0:13.480',6.33
'0:13.484',1.53
'0:13.488',-4.18
'0:13.492',-8.68
'0:13.496',-11.24
'0:13.500',-11.67
'0:13.504',-10.43
'0:13.508',-8.27
'0:13.512',-5.97
'0:13.516',-4.07
'0:13.520',-2.68
'0:13.523',-1.8
'0:13.527',-1.29
'0:13.531',-0.86
'0:13.535',-0.4
'0:13.539',-0.17
'0:13.543',-0.01
'0:13.547',0.21
'0:13.551',0.37
'0:13.555',0.66
'0:13.559',0.96
'0:13.563',1.04
'0:13.566',1.05
'0:13.570',1.31
'0:13.574',1.83
'0:13.578',2.13
'0:13.582',2.04
'0:13.586',1.77
'0:13.590',1.98
'0:13.594',2.85
'0:13.598',4.24
'0:13.602',5.33
'0:13.605',5.24
'0:13.609',5.71
'0:13.613',5.92
'0:13.617',5.64
'0:13.621',5.64
'0:13.625',5.8
'0:13.629',5.72
'0:13.633',5.17
'0:13.637',5.66
'0:13.641',5
'0:13.645',3.73
'0:13.648',2.14
'0:13.652',1.56
'0:13.656',1.53
'0:13.660',1.9
'0:13.664',1.7
'0:13.668',0.74
'0:13.672',0.43
'0:13.676',1.39
'0:13.680',2.11
'0:13.684',2.39
'0:13.688',1.99
'0:13.691',1.45
'0:13.695',0.89
'0:13.699',0.58
'0:13.703',0.7
'0:13.707',0.54
'0:13.711',0.12
'0:13.715',-0.25
'0:13.719',-1.3
'0:13.723',-1.86
'0:13.727',-2.38
'0:13.730',-3.16
'0:13.734',-3.61
'0:13.738',-3.84
'0:13.742',-4.29
'0:13.746',-4.54
'0:13.750',-4.48
'0:13.754',-4.77
'0:13.758',-4.64
'0:13.762',-4.33
'0:13.766',-3.98
'0:13.770',-3.99
'0:13.773',-3.7
'0:13.777',-3.43
'0:13.781',-3.72
'0:13.785',-4.16
'0:13.789',-4.23
'0:13.793',-4.07
'0:13.797',-1.38
'0:13.801',-0.07
'0:13.805',-0.07
'0:13.809',-0.07
'0:13.813',-0.07
'0:13.816',-0.07
'0:13.820',6.25
'0:13.824',1.9
'0:13.828',-3.85
'0:13.832',-8.6
'0:13.836',-11.77
'0:13.840',-12.94
'0:13.844',-11.83
'0:13.848',-9.48
'0:13.852',-6.98
'0:13.855',-4.94
'0:13.859',-3.74
'0:13.863',-3.29
'0:13.867',-2.58
'0:13.871',-1.9
'0:13.875',-1.7
'0:13.879',-1.68
'0:13.883',-1.5
'0:13.887',-1.19
'0:13.891',-0.75
'0:13.895',-0.43
'0:13.898',-0.27
'0:13.902',-0.21
'0:13.906',-0.08
'0:13.910',0.23
'0:13.914',0.56
'0:13.918',0.8
'0:13.922',0.96
'0:13.926',1.18
'0:13.930',1.47
'0:13.934',1.71
'0:13.938',1.69
'0:13.941',2.45
'0:13.945',3.39
'0:13.949',3.57
'0:13.953',3.7
'0:13.957',4.54
'0:13.961',5.49
'0:13.965',5.41
'0:13.969',4.61
'0:13.973',3.88
'0:13.977',3.57
'0:13.980',3.29
'0:13.984',2.72
'0:13.988',2.35
'0:13.992',2
'0:13.996',1.56
'0:14.000',1.51
'0:14.004',1.14
'0:14.008',0.78
'0:14.012',0.78
'0:14.016',0.78
'0:14.020',0.78
'0:14.023',0.78
'0:14.027',0.78
'0:14.031',0.78
'0:14.035',0.78
'0:14.039',0.78
'0:14.043',0.78
'0:14.047',0.78
'0:14.051',0.78
'0:14.055',0.78
'0:14.059',0.78
'0:14.063',0.78
'0:14.066',0.78
'0:14.070',0.78
'0:14.074',0.78
'0:14.078',0.78
'0:14.082',0.78
'0:14.086',0.78
'0:14.090',0.78
'0:14.094',0.78
'0:14.098',0.78
'0:14.102',0.78
'0:14.105',0.78
'0:14.109',0.78
'0:14.113',0.78
'0:14.117',0.78
'0:14.121',0.78
'0:14.125',0.78
'0:14.129',0.78
'0:14.133',1.27
'0:14.137',5.39
'0:14.141',8.66
'0:14.145',10.2
'0:14.148',8.14
'0:14.152',3.64
'0:14.156',-0.8
'0:14.160',-4.8
'0:14.164',-7.97
'0:14.168',-9.5
'0:14.172',-8.54
'0:14.176',-6.77
'0:14.180',-5.12
'0:14.184',-3.34
'0:14.188',-2.15
'0:14.191',-1.67
'0:14.195',-0.69
'0:14.199',0.07
'0:14.203',0.73
'0:14.207',1.23
'0:14.211',1.8
'0:14.215',2.05
'0:14.219',1.75
'0:14.223',1.24
'0:14.227',1.22
'0:14.230',1.74
'0:14.234',2.16
'0:14.238',2.29
'0:14.242',2.4
'0:14.246',2.43
'0:14.250',2.21
'0:14.254',2.32
'0:14.258',2.97
'0:14.262',3.65
'0:14.266',4.11
'0:14.270',4.31
'0:14.273',4.28
'0:14.277',4.34
'0:14.281',4.22
'0:14.285',4.23
'0:14.289',4.66
'0:14.293',4.88
'0:14.297',4.65
'0:14.301',4.13
'0:14.305',3.65
'0:14.309',3.24
'0:14.313',2.92
'0:14.316',2.65
'0:14.320',2.36
'0:14.324',1.95
'0:14.328',1.61
'0:14.332',1.42
'0:14.336',1.33
'0:14.340',0.87
'0:14.344',0.4
'0:14.348',0.62
'0:14.352',1.26
'0:14.355',1.44
'0:14.359',1.13
'0:14.363',1.1
'0:14.367',1.31
'0:14.371',1.41
'0:14.375',1.33
'0:14.379',0.89
'0:14.383',0.52
'0:14.387',0.13
'0:14.391',-0.92
'0:14.395',-1.88
'0:14.398',-1.94
'0:14.402',-1.76
'0:14.406',-2.69
'0:14.410',-3.97
'0:14.414',-3.56
'0:14.418',-2.65
'0:14.422',-2.68
'0:14.426',-2.97
'0:14.430',-3.18
'0:14.434',-3.33
'0:14.438',-3.48
'0:14.441',-3.64
'0:14.445',-3.55
'0:14.449',-3.62
'0:14.453',-2.84
'0:14.457',-1.75
'0:14.461',-1.09
'0:14.465',-1.06
'0:14.469',-0.81
'0:14.473',0.28
'0:14.477',2.33
'0:14.480',4.96
'0:14.484',7.58
'0:14.488',10.07
'0:14.492',10.27
'0:14.496',6.95
'0:14.500',1.1
'0:14.504',-4.82
'0:14.508',-9.06
'0:14.512',-11.36
'0:14.516',-11.25
'0:14.520',-9.7
'0:14.523',-7.81
'0:14.527',-6.14
'0:14.531',-4.15
'0:14.535',-3.24
'0:14.539',-3.19
'0:14.543',-2.33
'0:14.547',-1.34
'0:14.551',-0.56
'0:14.555',-0.36
'0:14.559',-0.09
'0:14.563',0.37
'0:14.566',0.63
'0:14.570',0.47
'0:14.574',0.17
'0:14.578',-0.06
'0:14.582',0.02
'0:14.586',0.37
'0:14.590',0.67
'0:14.594',0.94
'0:14.598',1.28
'0:14.602',1.64
'0:14.605',2.12
'0:14.609',2.56
'0:14.613',3
'0:14.617',3.49
'0:14.621',3.78
'0:14.625',3.89
'0:14.629',4.08
'0:14.633',4.39
'0:14.637',4.75
'0:14.641',4.88
'0:14.645',4.79
'0:14.648',4.33
'0:14.652',3.54
'0:14.656',2.68
'0:14.660',1.89
'0:14.664',1.3
'0:14.668',0.95
'0:14.672',0.95
'0:14.676',0.05
'0:14.680',0.19
'0:14.684',0.4
'0:14.688',0.74
'0:14.691',1.04
'0:14.695',1.39
'0:14.699',1.66
'0:14.703',1.48
'0:14.707',1.19
'0:14.711',0.92
'0:14.715',0.56
'0:14.719',0.15
'0:14.723',-0.14
'0:14.727',-0.72
'0:14.730',-1.07
'0:14.734',-1.48
'0:14.738',-2.18
'0:14.742',-2.73
'0:14.746',-3.12
'0:14.750',-3.49
'0:14.754',-3.63
'0:14.758',-3.85
'0:14.762',-4.31
'0:14.766',-4.23
'0:14.770',-3.63
'0:14.773',-3.47
'0:14.777',-3.58
'0:14.781',-3.31
'0:14.785',-2.59
'0:14.789',-2.55
'0:14.793',-2.53
'0:14.797',-2.19
'0:14.801',-2.39
'0:14.805',-2.31
'0:14.809',-0.85
'0:14.813',1.51
'0:14.816',3.98
'0:14.820',6.1
'0:14.824',8.3
'0:14.828',9.73
'0:14.832',7.87
'0:14.836',2.68
'0:14.840',-3.21
'0:14.844',-7.62
'0:14.848',-10.84
'0:14.852',-12.29
'0:14.855',-11.23
'0:14.859',-8.83
'0:14.863',-6.25
'0:14.867',-4.23
'0:14.871',-2.97
'0:14.875',-2.19
'0:14.879',-1.65
'0:14.883',-0.54
'0:14.887',0.05
'0:14.891',0.3
'0:14.895',0.27
'0:14.898',0
'0:14.902',0.25
'0:14.906',0.57
'0:14.910',0.68
'0:14.914',0.72
'0:14.918',1.25
'0:14.922',1.97
'0:14.926',2.55
'0:14.930',3.03
'0:14.934',3.15
'0:14.938',2.89
'0:14.941',3.01
'0:14.945',3.11
'0:14.949',3.35
'0:14.953',3.68
'0:14.957',4.14
'0:14.961',4.66
'0:14.965',4.72
'0:14.969',4.43
'0:14.973',4.25
'0:14.977',4.68
'0:14.980',4.93
'0:14.984',4.61
'0:14.988',4.47
'0:14.992',4.5
'0:14.996',3.71
'0:15.000',3.14
'0:15.004',2.93
'0:15.008',2.97
'0:15.012',2.71
'0:15.016',1.79
'0:15.020',1.21
'0:15.023',1.38
'0:15.027',1.53
'0:15.031',1.73
'0:15.035',1.79
'0:15.039',1.47
'0:15.043',1.3
'0:15.047',0.67
'0:15.051',0.37
'0:15.055',0.44
'0:15.059',0.46
'0:15.063',0.04
'0:15.066',-0.73
'0:15.070',-1.52
'0:15.074',-2.24
'0:15.078',-2.89
'0:15.082',-3.3
'0:15.086',-3.41
'0:15.090',-3.59
'0:15.094',-3.53
'0:15.098',-3.61
'0:15.102',-4.07
'0:15.105',-4.32
'0:15.109',-4.21
'0:15.113',-3.86
'0:15.117',-3.69
'0:15.121',-3.45
'0:15.125',-3.14
'0:15.129',-3.14
'0:15.133',-3.13
'0:15.137',-2.12
'0:15.141',-0.78
'0:15.145',1.17
'0:15.148',3.5
'0:15.152',5.81
'0:15.156',8.01
'0:15.160',8.73
'0:15.164',6.57
'0:15.168',2.1
'0:15.172',-3.49
'0:15.176',-8.33
'0:15.180',-10.77
'0:15.184',-10.77
'0:15.188',-9.23
'0:15.191',-7.41
'0:15.195',-5.83
'0:15.199',-4.53
'0:15.203',-3.72
'0:15.207',-2.72
'0:15.211',-1.41
'0:15.215',-0.36
'0:15.219',0.02
'0:15.223',0.23
'0:15.227',0.82
'0:15.230',1.17
'0:15.234',1
'0:15.238',1.18
'0:15.242',1.17
'0:15.246',0.77
'0:15.250',1.17
'0:15.254',1.76
'0:15.258',1.1
'0:15.262',1.05
'0:15.266',1.79
'0:15.270',2.65
'0:15.273',3.47
'0:15.277',3.74
'0:15.281',3.6
'0:15.285',4.04
'0:15.289',4.61
'0:15.293',4.9
'0:15.297',5.11
'0:15.301',5.05
'0:15.305',5.03
'0:15.309',5.17
'0:15.313',4.66
'0:15.316',3.91
'0:15.320',3.33
'0:15.324',2.28
'0:15.328',1.96
'0:15.332',2.32
'0:15.336',1.81
'0:15.340',0.76
'0:15.344',0.23
'0:15.348',0
'0:15.352',-0.38
'0:15.355',-0.58
'0:15.359',-0.43
'0:15.363',-0.06
'0:15.367',0.07
'0:15.371',0.17
'0:15.375',-0.05
'0:15.379',-0.22
'0:15.383',0.11
'0:15.387',0.27
'0:15.391',-0.08
'0:15.395',-0.82
'0:15.398',-1.03
'0:15.402',-1.14
'0:15.406',-1.85
'0:15.410',-2.53
'0:15.414',-3.18
'0:15.418',-3.74
'0:15.422',-4.13
'0:15.426',-4.24
'0:15.430',-4.36
'0:15.434',-4.54
'0:15.438',-4.65
'0:15.441',-4.73
'0:15.445',-4.54
'0:15.449',-4.52
'0:15.453',-4.64
'0:15.457',-4.76
'0:15.461',-4.64
'0:15.465',-4.23
'0:15.469',-3.96
'0:15.473',-3.69
'0:15.477',-3.45
'0:15.480',-2.85
'0:15.484',-1.47
'0:15.488',0.87
'0:15.492',5.45
'0:15.496',7.61
'0:15.500',9.21
'0:15.504',9.87
'0:15.508',7.76
'0:15.512',3.02
'0:15.516',-2.91
'0:15.520',-8.04
'0:15.523',-11.27
'0:15.527',-12.3
'0:15.531',-11.31
'0:15.535',-9.1
'0:15.539',-6.49
'0:15.543',-4.56
'0:15.547',-3.57
'0:15.551',-2.6
'0:15.555',-1.57
'0:15.559',-1.14
'0:15.563',-0.7
'0:15.566',-0.28
'0:15.570',-0.06
'0:15.574',0.21
'0:15.578',0.36
'0:15.582',0.31
'0:15.586',0.31
'0:15.590',0.57
'0:15.594',0.75
'0:15.598',0.87
'0:15.602',1.15
'0:15.605',1.52
'0:15.609',1.91
'0:15.613',2.34
'0:15.617',2.58
'0:15.621',2.6
'0:15.625',3.05
'0:15.629',3.86
'0:15.633',4.12
'0:15.637',4.43
'0:15.641',5.13
'0:15.645',5.8
'0:15.648',6.13
'0:15.652',6.13
'0:15.656',5.87
'0:15.660',5.42
'0:15.664',4.96
'0:15.668',4.67
'0:15.672',4.18
'0:15.676',3.4
'0:15.680',2.7
'0:15.684',1.87
'0:15.688',1.54
'0:15.691',1.67
'0:15.695',1.98
'0:15.699',2.05
'0:15.703',2.13
'0:15.707',2.22
'0:15.711',1.9
'0:15.715',1.85
'0:15.719',1.86
'0:15.723',1.61
'0:15.727',1.35
'0:15.730',1.13
'0:15.734',0.96
'0:15.738',0.5
'0:15.742',-0.14
'0:15.746',-0.65
'0:15.750',-1.17
'0:15.754',-1.56
'0:15.758',-2.16
'0:15.762',-3.01
'0:15.766',-3.56
'0:15.770',-3.88
'0:15.773',-3.72
'0:15.777',-2.82
'0:15.781',-1.76
'0:15.785',-1.3
'0:15.789',-1.47
'0:15.793',-1.75
'0:15.797',-1.87
'0:15.801',-2.02
'0:15.805',-1.93
'0:15.809',-1.99
'0:15.813',-2.14
'0:15.816',-2.03
'0:15.820',-0.72
'0:15.824',1.84
'0:15.828',4.54
'0:15.832',6.83
'0:15.836',8.74
'0:15.840',9
'0:15.844',6.08
'0:15.848',0.9
'0:15.852',-4.39
'0:15.855',-8.28
'0:15.859',-10.63
'0:15.863',-11.37
'0:15.867',-10.48
'0:15.871',-8.5
'0:15.875',-6.37
'0:15.879',-4.46
'0:15.883',-3.04
'0:15.887',-1.89
'0:15.891',-0.89
'0:15.895',-0.3
'0:15.898',0.09
'0:15.902',-0.05
'0:15.906',-0.42
'0:15.910',-0.49
'0:15.914',-0.29
'0:15.918',0.15
'0:15.922',0.5
'0:15.926',0.41
'0:15.930',0.37
'0:15.934',0.43
'0:15.938',0.74
'0:15.941',1.14
'0:15.945',1.75
'0:15.949',2.36
'0:15.953',3.02
'0:15.957',3.34
'0:15.961',3.25
'0:15.965',3.22
'0:15.969',3.93
'0:15.973',5.13
'0:15.977',6.2
'0:15.980',6.63
'0:15.984',6.23
'0:15.988',5.45
'0:15.992',4.72
'0:15.996',3.98
'0:16.000',3.47
'0:16.004',2.58
'0:16.008',2.16
'0:16.012',2.06
'0:16.016',1.08
'0:16.020',-0.24
'0:16.023',-0.56
'0:16.027',-0.61
'0:16.031',-0.48
'0:16.035',-0.05
'0:16.039',1.04
'0:16.043',1.84
'0:16.047',1.96
'0:16.051',1.98
'0:16.055',2.01
'0:16.059',1.8
'0:16.063',1.51
'0:16.066',1.24
'0:16.070',1.07
'0:16.074',0.83
'0:16.078',0.18
'0:16.082',-0.61
'0:16.086',-0.74
'0:16.090',-1.25
'0:16.094',-2.27
'0:16.098',-3.13
'0:16.102',-2.94
'0:16.105',-2.87
'0:16.109',-3.01
'0:16.113',-3.02
'0:16.117',-3.06
'0:16.121',-3.26
'0:16.125',-3.48
'0:16.129',-4.3
'0:16.133',-4.88
'0:16.137',-3.83
'0:16.141',-2.88
'0:16.145',-2.72
'0:16.148',-2.69
'0:16.152',-2.6
'0:16.156',-2.65
'0:16.160',-2.82
'0:16.164',-1.9
'0:16.168',0.44
'0:16.172',4.35
'0:16.176',8.73
'0:16.180',12.56
'0:16.184',14.39
'0:16.188',11.59
'0:16.191',4.95
'0:16.195',-1.47
'0:16.199',-5.41
'0:16.203',-6.95
'0:16.207',-7.11
'0:16.211',-6.2
'0:16.215',-5.21
'0:16.219',-4.32
'0:16.223',-3.17
'0:16.227',-2.6
'0:16.230',-2.4
'0:16.234',-2.04
'0:16.238',-1.53
'0:16.242',-1.34
'0:16.246',-2.44
'0:16.250',-3.83
'0:16.254',-4.9
'0:16.258',-5.28
'0:16.262',-5.33
'0:16.266',-5.26
'0:16.270',-5.15
'0:16.273',-4.88
'0:16.277',-4.64
'0:16.281',-4.31
'0:16.285',-3.9
'0:16.289',-3.51
'0:16.293',-2.67
'0:16.297',-1.36
'0:16.301',-0.68
'0:16.305',-0.46
'0:16.309',-0.09
'0:16.313',0.27
'0:16.316',0.65
'0:16.320',1.19
'0:16.324',3.16
'0:16.328',5.09
'0:16.332',4.53
'0:16.336',3.82
'0:16.340',3.04
'0:16.344',2.33
'0:16.348',2.01
'0:16.352',1.62
'0:16.355',1.02
'0:16.359',0.69
'0:16.363',0.63
'0:16.367',0.51
'0:16.371',0.61
'0:16.375',0.48
'0:16.379',0.14
'0:16.383',0.03
'0:16.387',-0.08
'0:16.391',0.05
'0:16.395',0.31
'0:16.398',0.37
'0:16.402',0.23
'0:16.406',0.28
'0:16.410',0.33
'0:16.414',-0.1
'0:16.418',-1.09
'0:16.422',-1.75
'0:16.426',-1.99
'0:16.430',-2.13
'0:16.434',-2.41
'0:16.438',-3.16
'0:16.441',-3.41
'0:16.445',-3.58
'0:16.449',-3.55
'0:16.453',-3.08
'0:16.457',-2.69
'0:16.461',-2.19
'0:16.465',-1.69
'0:16.469',-1.21
'0:16.473',-1.5
'0:16.477',-2.1
'0:16.480',-2.18
'0:16.484',-2.09
'0:16.488',-2.14
'0:16.492',-1.41
'0:16.496',-0.16
'0:16.500',2.2
'0:16.504',4.97
'0:16.508',7.44
'0:16.512',9.6
'0:16.516',10.15
'0:16.520',7.79
'0:16.523',3.13
'0:16.527',-2.11
'0:16.531',-5.44
'0:16.535',-6.67
'0:16.539',-6.17
'0:16.543',-4.26
'0:16.547',-0.74
'0:16.551',3.74
'0:16.555',7.49
'0:16.559',9.85
'0:16.563',10.97
'0:16.566',11.4
'0:16.570',11.42
'0:16.574',11.81
'0:16.578',12.08
'0:16.582',11.72
'0:16.586',11.34
'0:16.590',11.35
'0:16.594',11.13
'0:16.598',10.33
'0:16.602',9.37
'0:16.605',8.85
'0:16.609',8.71
'0:16.613',8.42
'0:16.617',7.8
'0:16.621',7.28
'0:16.625',6.71
'0:16.629',6.07
'0:16.633',6.1
'0:16.637',6.85
'0:16.641',7.53
'0:16.645',7.51
'0:16.648',7.58
'0:16.652',7.76
'0:16.656',7.61
'0:16.660',7.43
'0:16.664',7.39
'0:16.668',6.89
'0:16.672',6.01
'0:16.676',5.11
'0:16.680',3.46
'0:16.684',1.34
'0:16.688',-0.43
'0:16.691',-1.9
'0:16.695',-2.87
'0:16.699',-2.84
'0:16.703',-2.94
'0:16.707',-3.74
'0:16.711',-4.56
'0:16.715',-4.77
'0:16.719',-5.96
'0:16.723',-7.68
'0:16.727',-9.26
'0:16.730',-10.39
'0:16.734',-10.83
'0:16.738',-10.92
'0:16.742',-11.06
'0:16.746',-11.34
'0:16.750',-11.47
'0:16.754',-11.55
'0:16.758',-11.51
'0:16.762',-11.68
'0:16.766',-11.8
'0:16.770',-11.97
'0:16.773',-11.92
'0:16.777',-11.9
'0:16.781',-11.81
'0:16.785',-11.31
'0:16.789',-10.7
'0:16.793',-10.23
'0:16.797',-9.72
'0:16.801',-9.34
'0:16.805',-8.92
'0:16.809',-8.08
'0:16.813',-7.37
'0:16.816',-7.01
'0:16.820',-6.61
'0:16.824',-6.02
'0:16.828',-5.65
'0:16.832',-5.72
'0:16.836',-5.24
'0:16.840',-3.41
'0:16.844',-1.08
'0:16.848',1.13
'0:16.852',3.13
'0:16.855',5.57
'0:16.859',7.49
'0:16.863',5.78
'0:16.867',0.85
'0:16.871',-4.69
'0:16.875',-9.2
'0:16.879',-11.92
'0:16.883',-12.71
'0:16.887',-11.72
'0:16.891',-8.9
'0:16.895',-5.93
'0:16.898',-4.26
'0:16.902',-2.39
'0:16.906',-0.29
'0:16.910',0.93
'0:16.914',1.52
'0:16.918',1.67
'0:16.922',1.88
'0:16.926',2.66
'0:16.930',3.42
'0:16.934',3.61
'0:16.938',5.27
'0:16.941',7.42
'0:16.945',9.31
'0:16.949',9.98
'0:16.953',10.04
'0:16.957',10.22
'0:16.961',10.49
'0:16.965',10.26
'0:16.969',9.56
'0:16.973',9.67
'0:16.977',10.26
'0:16.980',10.19
'0:16.984',9.66
'0:16.988',9.72
'0:16.992',9.52
'0:16.996',9.03
'0:17.000',8.78
'0:17.004',8.31
'0:17.008',7.93
'0:17.012',7.69
'0:17.016',6.96
'0:17.020',5.72
'0:17.023',3.85
'0:17.027',1.91
'0:17.031',0.15
'0:17.035',-1.39
'0:17.039',-2.18
'0:17.043',-2.75
'0:17.047',-3.22
'0:17.051',-3.57
'0:17.055',-5.07
'0:17.059',-7.08
'0:17.063',-8.34
'0:17.066',-8.73
'0:17.070',-8.77
'0:17.074',-8.62
'0:17.078',-8.78
'0:17.082',-8.78
'0:17.086',-8.27
'0:17.090',-7.86
'0:17.094',-7.97
'0:17.098',-8.18
'0:17.102',-8.51
'0:17.105',-9.09
'0:17.109',-9.44
'0:17.113',-9.43
'0:17.117',-9.31
'0:17.121',-9.03
'0:17.125',-8.66
'0:17.129',-8.16
'0:17.133',-7.69
'0:17.137',-7.32
'0:17.141',-7.07
'0:17.145',-6.84
'0:17.148',-6.85
'0:17.152',-5.26
'0:17.156',-4.58
'0:17.160',-4.05
'0:17.164',-3.79
'0:17.168',-3.18
'0:17.172',-2.04
'0:17.176',-0.01
'0:17.180',2.59
'0:17.184',5.08
'0:17.188',7.64
'0:17.191',9.58
'0:17.195',8.5
'0:17.199',3.99
'0:17.203',-2.05
'0:17.207',-7.47
'0:17.211',-11.02
'0:17.215',-12.54
'0:17.219',-11.96
'0:17.223',-10.11
'0:17.227',-7.72
'0:17.230',-5.45
'0:17.234',-3.48
'0:17.238',-2.21
'0:17.242',-1.28
'0:17.246',-0.47
'0:17.250',0.13
'0:17.254',0.63
'0:17.258',1.25
'0:17.262',1.43
'0:17.266',1.04
'0:17.270',1.08
'0:17.273',1.63
'0:17.277',1.96
'0:17.281',1.95
'0:17.285',2.55
'0:17.289',3.18
'0:17.293',3.1
'0:17.297',2.68
'0:17.301',2.51
'0:17.305',3.51
'0:17.309',5.24
'0:17.313',6.14
'0:17.316',5.94
'0:17.320',4.95
'0:17.324',5.13
'0:17.328',5.67
'0:17.332',5.76
'0:17.336',6.22
'0:17.340',6.4
'0:17.344',6.54
'0:17.348',6.72
'0:17.352',6.49
'0:17.355',6.39
'0:17.359',6.25
'0:17.363',5.69
'0:17.367',4.59
'0:17.371',4.49
'0:17.375',5.48
'0:17.379',6.34
'0:17.383',6.62
'0:17.387',6.76
'0:17.391',6.74
'0:17.395',6.78
'0:17.398',6.65
'0:17.402',5.99
'0:17.406',4.84
'0:17.410',4
'0:17.414',3.41
'0:17.418',3.08
'0:17.422',3.03
'0:17.426',2.44
'0:17.430',1.55
'0:17.434',0.74
'0:17.438',-0.13
'0:17.441',-1.51
'0:17.445',-3.22
'0:17.449',-4.94
'0:17.453',-5.8
'0:17.457',-5.8
'0:17.461',-5.69
'0:17.465',-6.03
'0:17.469',-6.12
'0:17.473',-5.81
'0:17.477',-5.66
'0:17.480',-5.42
'0:17.484',-4.71
'0:17.488',-4.08
'0:17.492',-3.85
'0:17.496',-3.97
'0:17.500',-4.17
'0:17.504',-4.23
'0:17.508',-3.23
'0:17.512',-1.38
'0:17.516',1.08
'0:17.520',3.92
'0:17.523',6.91
'0:17.527',9.03
'0:17.531',8.44
'0:17.535',4.9
'0:17.539',-0.51
'0:17.543',-5.83
'0:17.547',-9.35
'0:17.551',-11.44
'0:17.555',-11.87
'0:17.559',-10.47
'0:17.563',-7.88
'0:17.566',-5.59
'0:17.570',-3.89
'0:17.574',-2.61
'0:17.578',-2.1
'0:17.582',-1.79
'0:17.586',-1.25
'0:17.590',-0.73
'0:17.594',-0.1
'0:17.598',0.43
'0:17.602',0.38
'0:17.605',0.44
'0:17.609',0.86
'0:17.613',1.34
'0:17.617',1.94
'0:17.621',2.25
'0:17.625',2.49
'0:17.629',2.61
'0:17.633',2.72
'0:17.637',3.1
'0:17.641',3.71
'0:17.645',4.4
'0:17.648',4.57
'0:17.652',4.62
'0:17.656',4.56
'0:17.660',4.55
'0:17.664',4.97
'0:17.668',5.33
'0:17.672',5.51
'0:17.676',5.58
'0:17.680',5.75
'0:17.684',5.42
'0:17.688',4.52
'0:17.691',4.05
'0:17.695',4.07
'0:17.699',3.8
'0:17.703',2.25
'0:17.707',1.54
'0:17.711',1.15
'0:17.715',1.16
'0:17.719',1.52
'0:17.723',1.94
'0:17.727',2.03
'0:17.730',1.97
'0:17.734',1.75
'0:17.738',1.28
'0:17.742',1.72
'0:17.746',2.29
'0:17.750',1.97
'0:17.754',1.21
'0:17.758',0.75
'0:17.762',1.08
'0:17.766',0.95
'0:17.770',0.32
'0:17.773',-0.02
'0:17.777',0.01
'0:17.781',-0.55
'0:17.785',-0.99
'0:17.789',-1.18
'0:17.793',-2.14
'0:17.797',-3.19
'0:17.801',-3.09
'0:17.805',-1.97
'0:17.809',-1.41
'0:17.813',-1.96
'0:17.816',-2.59
'0:17.820',-2.74
'0:17.824',-2.94
'0:17.828',-2.9
'0:17.832',-2.43
'0:17.836',-1.8
'0:17.840',-1.32
'0:17.844',-1.23
'0:17.848',-0.85
'0:17.852',0.27
'0:17.855',2.4
'0:17.859',5.4
'0:17.863',8.45
'0:17.867',10.1
'0:17.871',7.86
'0:17.875',1.89
'0:17.879',-4.67
'0:17.883',-9.41
'0:17.887',-12.28
'0:17.891',-13.47
'0:17.895',-12.8
'0:17.898',-12.27
'0:17.902',-8.13
'0:17.906',-6.11
'0:17.910',-4.77
'0:17.914',-3.95
'0:17.918',-3.36
'0:17.922',-2.73
'0:17.926',-2.38
'0:17.930',-2.01
'0:17.934',-1.6
'0:17.938',-1.45
'0:17.941',-1.27
'0:17.945',-1.14
'0:17.949',-0.97
'0:17.953',-0.83
'0:17.957',-0.64
'0:17.961',-0.44
'0:17.965',-0.44
'0:17.969',-0.07
'0:17.973',0.58
'0:17.977',1.27
'0:17.980',1.74
'0:17.984',2.15
'0:17.988',2.57
'0:17.992',3.14
'0:17.996',3.7
'0:18.000',4.18
'0:18.004',4.57
'0:18.008',4.84
'0:18.012',5.01
'0:18.016',4.98
'0:18.020',4.99
'0:18.023',5.03
'0:18.027',4.58
'0:18.031',3.98
'0:18.035',3.22
'0:18.039',2.6
'0:18.043',2.23
'0:18.047',2.17
'0:18.051',1.87
'0:18.055',1.68
'0:18.059',1.73
'0:18.063',1.82
'0:18.066',1.69
'0:18.070',1.57
'0:18.074',1.42
'0:18.078',1.37
'0:18.082',1.34
'0:18.086',1.16
'0:18.090',0.48
'0:18.094',-0.59
'0:18.098',-1.15
'0:18.102',-1.47
'0:18.105',-2.19
'0:18.109',-2.6
'0:18.113',-2.13
'0:18.117',-1.88
'0:18.121',-2.29
'0:18.125',-2.73
'0:18.129',-3.03
'0:18.133',-3.15
'0:18.137',-2.72
'0:18.141',-2.34
'0:18.145',-2.49
'0:18.148',-2.64
'0:18.152',-2.37
'0:18.156',-2.27
'0:18.160',-2.24
'0:18.164',-2.35
'0:18.168',-2.34
'0:18.172',-2.11
'0:18.176',-1.3
'0:18.180',0.52
'0:18.184',2.74
'0:18.188',5.27
'0:18.191',8.05
'0:18.195',9.88
'0:18.199',9.3
'0:18.203',5.8
'0:18.207',0.69
'0:18.211',-4.81
'0:18.215',-8.67
'0:18.219',-10.3
'0:18.223',-10.16
'0:18.227',-8.52
'0:18.230',-6.04
'0:18.234',-4.15
'0:18.238',-3.31
'0:18.242',-2.43
'0:18.246',-1.14
'0:18.250',-0.52
'0:18.254',-0.16
'0:18.258',0
'0:18.262',0.23
'0:18.266',0.67
'0:18.270',0.8
'0:18.273',1.11
'0:18.277',1.5
'0:18.281',1.54
'0:18.285',1.54
'0:18.289',1.49
'0:18.293',1.2
'0:18.297',1.11
'0:18.301',1.38
'0:18.305',2.04
'0:18.309',3.24
'0:18.313',4.36
'0:18.316',4.43
'0:18.320',4.09
'0:18.324',4.26
'0:18.328',4.36
'0:18.332',4.45
'0:18.336',4.77
'0:18.340',5.4
'0:18.344',6.14
'0:18.348',6.67
'0:18.352',5.96
'0:18.355',4.12
'0:18.359',2.82
'0:18.363',2.26
'0:18.367',1.86
'0:18.371',1.72
'0:18.375',1.47
'0:18.379',1.35
'0:18.383',0.92
'0:18.387',0.48
'0:18.391',0.25
'0:18.395',0.09
'0:18.398',-0.02
'0:18.402',0.09
'0:18.406',0.38
'0:18.410',0.6
'0:18.414',0.82
'0:18.418',1.09
'0:18.422',1.26
'0:18.426',1.12
'0:18.430',0.75
'0:18.434',0.67
'0:18.438',0.39
'0:18.441',0.04
'0:18.445',-0.18
'0:18.449',-0.7
'0:18.453',-1.46
'0:18.457',-2.07
'0:18.461',-2.49
'0:18.465',-2.73
'0:18.469',-2.72
'0:18.473',-2.94
'0:18.477',-3.27
'0:18.480',-3.5
'0:18.484',-3.42
'0:18.488',-3.07
'0:18.492',-2.64
'0:18.496',-2.44
'0:18.500',-2.32
'0:18.504',-2.31
'0:18.508',-2.47
'0:18.512',-2.61
'0:18.516',-2.47
'0:18.520',-1.79
'0:18.523',-0.43
'0:18.527',1.76
'0:18.531',4
'0:18.535',7.8
'0:18.539',11.06
'0:18.543',12.56
'0:18.547',9.86
'0:18.551',4.12
'0:18.555',-2.06
'0:18.559',-6.58
'0:18.563',-9.65
'0:18.566',-11.49
'0:18.570',-11.09
'0:18.574',-9.03
'0:18.578',-7.05
'0:18.582',-4.77
'0:18.586',-2.58
'0:18.590',-1.43
'0:18.594',-1.07
'0:18.598',-0.3
'0:18.602',0.1
'0:18.605',0.19
'0:18.609',0.18
'0:18.613',0.32
'0:18.617',-0.36
'0:18.621',-1
'0:18.625',-0.12
'0:18.629',0.99
'0:18.633',1
'0:18.637',0.67
'0:18.641',1.12
'0:18.645',1.49
'0:18.648',1.83
'0:18.652',2.28
'0:18.656',2.57
'0:18.660',2.14
'0:18.664',2.15
'0:18.668',3.09
'0:18.672',3.93
'0:18.676',4.04
'0:18.680',3.93
'0:18.684',3.47
'0:18.688',2.55
'0:18.691',1.89
'0:18.695',1.7
'0:18.699',1.74
'0:18.703',1.53
'0:18.707',1.3
'0:18.711',1.03
'0:18.715',0.3
'0:18.719',-0.57
'0:18.723',-1.17
'0:18.727',-1.24
'0:18.730',-1.14
'0:18.734',-1.12
'0:18.738',-1.4
'0:18.742',-1.47
'0:18.746',-1.25
'0:18.750',-1.16
'0:18.754',-1.22
'0:18.758',-1.02
'0:18.762',-0.55
'0:18.766',-0.13
'0:18.770',0.14
'0:18.773',-0.17
'0:18.777',-1.1
'0:18.781',-1.92
'0:18.785',-2.46
'0:18.789',-2.98
'0:18.793',-3.23
'0:18.797',-3.61
'0:18.801',-4.03
'0:18.805',-4.42
'0:18.809',-4.68
'0:18.813',-4.51
'0:18.816',-4.27
'0:18.820',-4.07
'0:18.824',-3.72
'0:18.828',-3.23
'0:18.832',-2.75
'0:18.836',-2.17
'0:18.840',-2.11
'0:18.844',-2.28
'0:18.848',-1.83
'0:18.852',-1.11
'0:18.855',-1.09
'0:18.859',-0.89
'0:18.863',0.67
'0:18.867',3.21
'0:18.871',5.89
'0:18.875',8.43
'0:18.879',9.48
'0:18.883',6.72
'0:18.887',1.37
'0:18.891',-4.84
'0:18.895',-8.92
'0:18.898',-10.78
'0:18.902',-12.06
'0:18.906',-12.1
'0:18.910',-9.83
'0:18.914',-6.94
'0:18.918',-3.81
'0:18.922',-1.52
'0:18.926',-0.32
'0:18.930',-0.47
'0:18.934',-0.7
'0:18.938',-0.84
'0:18.941',-1.08
'0:18.945',-0.89
'0:18.949',-0.11
'0:18.953',0.76
'0:18.957',1.31
'0:18.961',1.52
'0:18.965',2.13
'0:18.969',2.63
'0:18.973',2.1
'0:18.977',1.57
'0:18.980',1.69
'0:18.984',2.06
'0:18.988',2.61
'0:18.992',3.57
'0:18.996',4.19
'0:19.000',4.62
'0:19.004',4.4
'0:19.008',4.44
'0:19.012',4.68
'0:19.016',4.66
'0:19.020',5.05
'0:19.023',5.47
'0:19.027',5.26
'0:19.031',5.12
'0:19.035',5.04
'0:19.039',4.37
'0:19.043',3.89
'0:19.047',3.74
'0:19.051',3.42
'0:19.055',3.41
'0:19.059',3.67
'0:19.063',3.51
'0:19.066',2.23
'0:19.070',0.96
'0:19.074',0.86
'0:19.078',1.37
'0:19.082',1.69
'0:19.086',1.28
'0:19.090',1.23
'0:19.094',1.3
'0:19.098',1.11
'0:19.102',1.03
'0:19.105',1.05
'0:19.109',0.81
'0:19.113',-0.18
'0:19.117',-1.28
'0:19.121',-2.43
'0:19.125',-3.39
'0:19.129',-3.4
'0:19.133',-3.1
'0:19.137',-3.3
'0:19.141',-3.77
'0:19.145',-3.86
'0:19.148',-3.48
'0:19.152',-3.24
'0:19.156',-3.26
'0:19.160',-3.07
'0:19.164',-3.09
'0:19.168',-3.12
'0:19.172',-2.5
'0:19.176',-1.63
'0:19.180',-1.52
'0:19.184',-1.98
'0:19.188',-2
'0:19.191',-0.87
'0:19.195',2.2
'0:19.199',6.65
'0:19.203',9.69
'0:19.207',11.05
'0:19.211',9.45
'0:19.215',5.2
'0:19.219',-0.83
'0:19.223',-6.73
'0:19.227',-10.95
'0:19.230',-12.69
'0:19.234',-12.01
'0:19.238',-10.01
'0:19.242',-7.59
'0:19.246',-5.39
'0:19.250',-3.76
'0:19.254',-2.67
'0:19.258',-1.92
'0:19.262',-1.38
'0:19.266',-0.88
'0:19.270',-0.52
'0:19.273',-0.21
'0:19.277',0.31
'0:19.281',0.73
'0:19.285',1.16
'0:19.289',1.2
'0:19.293',1
'0:19.297',1.23
'0:19.301',1.55
'0:19.305',1.77
'0:19.309',1.78
'0:19.313',1.75
'0:19.316',2.2
'0:19.320',2.73
'0:19.324',3.18
'0:19.328',3.5
'0:19.332',3.38
'0:19.336',2.94
'0:19.340',3.07
'0:19.344',4.31
'0:19.348',5.59
'0:19.352',6.02
'0:19.355',5.53
'0:19.359',5.53
'0:19.363',5.75
'0:19.367',4.9
'0:19.371',3.61
'0:19.375',2.24
'0:19.379',1.55
'0:19.383',1.46
'0:19.387',1.74
'0:19.391',2.23
'0:19.395',2.01
'0:19.398',1.23
'0:19.402',0.53
'0:19.406',-0.05
'0:19.410',-0.17
'0:19.414',0.13
'0:19.418',0.73
'0:19.422',1.13
'0:19.426',1.34
'0:19.430',1.39
'0:19.434',1.09
'0:19.438',0.71
'0:19.441',1.09
'0:19.445',1.13
'0:19.449',0.52
'0:19.453',-0.17
'0:19.457',-0.45
'0:19.461',-1.18
'0:19.465',-2.2
'0:19.469',-3.23
'0:19.473',-3.6
'0:19.477',-3.72
'0:19.480',-4.05
'0:19.484',-4.4
'0:19.488',-4.14
'0:19.492',-4.04
'0:19.496',-2.82
'0:19.500',-2.53
'0:19.504',-2.7
'0:19.508',-2.22
'0:19.512',-1.3
'0:19.516',-1.02
'0:19.520',-1.07
'0:19.523',-1.18
'0:19.527',-1.14
