'0:00.000',-9.19
'0:00.004',-6.94
'0:00.008',-4.64
'0:00.012',-2.7
'0:00.016',-1.52
'0:00.020',-0.69
'0:00.023',0.41
'0:00.027',1.12
'0:00.031',0.94
'0:00.035',0.77
'0:00.039',0.7
'0:00.043',0.79
'0:00.047',1.21
'0:00.051',1.42
'0:00.055',1.26
'0:00.059',1.44
'0:00.063',1.61
'0:00.066',1.78
'0:00.070',2.16
'0:00.074',2.49
'0:00.078',2.63
'0:00.082',2.79
'0:00.086',3.71
'0:00.090',4.62
'0:00.094',5
'0:00.098',5.29
'0:00.102',5.73
'0:00.105',5.72
'0:00.109',5.4
'0:00.113',5.31
'0:00.117',5.34
'0:00.121',5.02
'0:00.125',4.8
'0:00.129',4.8
'0:00.133',4.88
'0:00.137',4.69
'0:00.141',3.86
'0:00.145',2.84
'0:00.148',1.84
'0:00.152',1.26
'0:00.156',0.72
'0:00.160',0.13
'0:00.164',-0.07
'0:00.168',0.19
'0:00.172',0.73
'0:00.176',0.94
'0:00.180',1.31
'0:00.184',1.8
'0:00.188',1.87
'0:00.191',1.44
'0:00.195',1.2
'0:00.199',1.4
'0:00.203',1.89
'0:00.207',2.03
'0:00.211',1.7
'0:00.215',1.09
'0:00.219',0.21
'0:00.223',-0.45
'0:00.227',-0.46
'0:00.230',-0.6
'0:00.234',-1.15
'0:00.238',-1.8
'0:00.242',-2.09
'0:00.246',-1.91
'0:00.250',-1.6
'0:00.254',-1.31
'0:00.258',-1.23
'0:00.262',-1.72
'0:00.266',-2.34
'0:00.270',-2.27
'0:00.273',-1.08
'0:00.277',-0.11
'0:00.281',-0.12
'0:00.285',-0.14
'0:00.289',0.95
'0:00.293',2.59
'0:00.297',3.1
'0:00.301',4.2
'0:00.305',6.83
'0:00.309',9.44
'0:00.313',10.4
'0:00.316',8.51
'0:00.320',3.65
'0:00.324',-2.52
'0:00.328',-8
'0:00.332',-11.3
'0:00.336',-11.83
'0:00.340',-10.63
'0:00.344',-8.51
'0:00.348',-6.51
'0:00.352',-4.95
'0:00.355',-4.01
'0:00.359',-3.16
'0:00.363',-2.68
'0:00.367',-2.6
'0:00.371',-3.14
'0:00.375',-3.71
'0:00.379',-3.38
'0:00.383',-2.55
'0:00.387',-2.95
'0:00.391',-3.68
'0:00.395',-3.77
'0:00.398',-3.85
'0:00.402',-3.77
'0:00.406',-3.53
'0:00.410',-3.23
'0:00.414',-2.87
'0:00.418',-2.5
'0:00.422',-2.7
'0:00.426',-2.37
'0:00.430',-1.04
'0:00.434',-0.22
'0:00.438',0.31
'0:00.441',0.66
'0:00.445',0.55
'0:00.449',0.57
'0:00.453',1
'0:00.457',0.95
'0:00.461',0.54
'0:00.465',1.47
'0:00.469',2.25
'0:00.473',2.14
'0:00.477',1.75
'0:00.480',1.34
'0:00.484',1.08
'0:00.488',0.67
'0:00.492',0.11
'0:00.496',0.08
'0:00.500',0.03
'0:00.504',0
'0:00.508',0.23
'0:00.512',0.53
'0:00.516',0.58
'0:00.520',0.82
'0:00.523',0.78
'0:00.527',0.54
'0:00.531',0.67
'0:00.535',0.65
'0:00.539',0.04
'0:00.543',-0.61
'0:00.547',-0.84
'0:00.551',-1.43
'0:00.555',-2.55
'0:00.559',-3.21
'0:00.563',-3.42
'0:00.566',-3.63
'0:00.570',-4.07
'0:00.574',-3.94
'0:00.578',-3.53
'0:00.582',-3.09
'0:00.586',-2.76
'0:00.590',-2.56
'0:00.594',-2.74
'0:00.598',-2.82
'0:00.602',-2.5
'0:00.605',-2.11
'0:00.609',-1.57
'0:00.613',-1.13
'0:00.617',-1.06
'0:00.621',-0.39
'0:00.625',2.1
'0:00.629',4.66
'0:00.633',7.47
'0:00.637',9.92
'0:00.641',10.63
'0:00.645',8.48
'0:00.648',4.08
'0:00.652',-1.48
'0:00.656',-6.02
'0:00.660',-9.54
'0:00.664',-10.5
'0:00.668',-8.53
'0:00.672',-6.19
'0:00.676',-4.59
'0:00.680',-3.53
'0:00.684',-2.44
'0:00.688',-0.84
'0:00.691',0.65
'0:00.695',1.06
'0:00.699',0.8
'0:00.703',0.58
'0:00.707',0.79
'0:00.711',0.71
'0:00.715',1.03
'0:00.719',1.38
'0:00.723',1.71
'0:00.727',2.93
'0:00.730',3.69
'0:00.734',3.43
'0:00.738',2.86
'0:00.742',2.99
'0:00.746',3.39
'0:00.750',3.82
'0:00.754',4.06
'0:00.758',4.42
'0:00.762',4.67
'0:00.766',4.76
'0:00.770',5.2
'0:00.773',5.81
'0:00.777',5.84
'0:00.781',6.4
'0:00.785',7.45
'0:00.789',7.45
'0:00.793',6.66
'0:00.797',5.56
'0:00.801',4.76
'0:00.805',4.11
'0:00.809',3.67
'0:00.813',3.23
'0:00.816',3.49
'0:00.820',3.58
'0:00.824',2.6
'0:00.828',1.61
'0:00.832',0.99
'0:00.836',1.2
'0:00.840',1.35
'0:00.844',1.24
'0:00.848',1.43
'0:00.852',1.26
'0:00.855',0.82
'0:00.859',0.86
'0:00.863',0.97
'0:00.867',0.95
'0:00.871',1.1
'0:00.875',1.64
'0:00.879',1.56
'0:00.883',0.78
'0:00.887',0.07
'0:00.891',-1.1
'0:00.895',-2.16
'0:00.898',-2.48
'0:00.902',-2.28
'0:00.906',-1.74
'0:00.910',-1.37
'0:00.914',-0.98
'0:00.918',-0.02
'0:00.922',1.32
'0:00.926',2.77
'0:00.930',4
'0:00.934',4.71
'0:00.938',4.62
'0:00.941',4.16
'0:00.945',4.18
'0:00.949',4.54
'0:00.953',4.59
'0:00.957',4.12
'0:00.961',3.74
'0:00.965',4
'0:00.969',5.41
'0:00.973',7.57
'0:00.977',10.27
'0:00.980',12.83
'0:00.984',13.74
'0:00.988',11.34
'0:00.992',6.21
'0:00.996',0.75
'0:01.000',-3.59
'0:01.004',-6.15
'0:01.008',-6.22
'0:01.012',-4.06
'0:01.016',-1.46
'0:01.020',0.16
'0:01.023',0.91
'0:01.027',0.81
'0:01.031',0.41
'0:01.035',0.75
'0:01.039',1.26
'0:01.043',1.44
'0:01.047',1.34
'0:01.051',1.73
'0:01.055',1.74
'0:01.059',1.13
'0:01.063',0.82
'0:01.066',1.06
'0:01.070',1.08
'0:01.074',0.95
'0:01.078',0.75
'0:01.082',0.59
'0:01.086',0.9
'0:01.090',1.47
'0:01.094',1.41
'0:01.098',1.13
'0:01.102',1.64
'0:01.105',1.95
'0:01.109',2.15
'0:01.113',2.43
'0:01.117',2.72
'0:01.121',3.58
'0:01.125',3.81
'0:01.129',7.57
'0:01.133',7
'0:01.137',4.64
'0:01.141',3.75
'0:01.145',3.45
'0:01.148',2.19
'0:01.152',0.8
'0:01.156',-0.19
'0:01.160',-1.89
'0:01.164',-2.62
'0:01.168',-2.75
'0:01.172',-2.71
'0:01.176',-2.92
'0:01.180',-3.66
'0:01.184',-4.14
'0:01.188',-4.39
'0:01.191',-4.08
'0:01.195',-3.88
'0:01.199',-3.96
'0:01.203',-4.29
'0:01.207',-4.77
'0:01.211',-5.08
'0:01.215',-5.55
'0:01.219',-6.1
'0:01.223',-6.25
'0:01.227',-6.94
'0:01.230',-7.83
'0:01.234',-8.38
'0:01.238',-8.5
'0:01.242',-8.45
'0:01.246',-8.26
'0:01.250',-7.66
'0:01.254',-7.41
'0:01.258',-7.47
'0:01.262',-7.35
'0:01.266',-7.06
'0:01.270',-6.96
'0:01.273',-6.66
'0:01.277',-6.42
'0:01.281',-5.95
'0:01.285',-5.83
'0:01.289',-6.14
'0:01.293',-5.52
'0:01.297',-3.76
'0:01.301',-1.31
'0:01.305',1.42
'0:01.309',4.16
'0:01.313',6.52
'0:01.316',7.45
'0:01.320',5.03
'0:01.324',-0.26
'0:01.328',-6.2
'0:01.332',-11
'0:01.336',-13.78
'0:01.340',-14
'0:01.344',-12.15
'0:01.348',-9.55
'0:01.352',-7.24
'0:01.355',-5.52
'0:01.359',-4.6
'0:01.363',-3.62
'0:01.367',-2.45
'0:01.371',-1.94
'0:01.375',-1.38
'0:01.379',-0.72
'0:01.383',-0.54
'0:01.387',-0.28
'0:01.391',-0.12
'0:01.395',-0.1
'0:01.398',-0.01
'0:01.402',0.34
'0:01.406',1.18
'0:01.410',2.06
'0:01.414',2.51
'0:01.418',2.19
'0:01.422',2.2
'0:01.426',2.72
'0:01.430',3.16
'0:01.434',3.45
'0:01.438',3.59
'0:01.441',3.25
'0:01.445',3.5
'0:01.449',4.1
'0:01.453',4.01
'0:01.457',3.32
'0:01.461',3.1
'0:01.465',2.7
'0:01.469',2.13
'0:01.473',1.31
'0:01.477',0.51
'0:01.480',-0.61
'0:01.484',-1.44
'0:01.488',-2.58
'0:01.492',-3.8
'0:01.496',-4.36
'0:01.500',-4.51
'0:01.504',-4.14
'0:01.508',-2.91
'0:01.512',-1.82
'0:01.516',-1.43
'0:01.520',-1.98
'0:01.523',-2.62
'0:01.527',-3.29
'0:01.531',-3.09
'0:01.535',-2.59
'0:01.539',-2.47
'0:01.543',-2.12
'0:01.547',-1.99
'0:01.551',-2.47
'0:01.555',-2.73
'0:01.559',-2.32
'0:01.563',-2.46
'0:01.566',-2.84
'0:01.570',-2.37
'0:01.574',-1.3
'0:01.578',-1.18
'0:01.582',-1.57
'0:01.586',-2.17
'0:01.590',-2.15
'0:01.594',-1.56
'0:01.598',-1.23
'0:01.602',-1.23
'0:01.605',-1.32
'0:01.609',-1.36
'0:01.613',-1.5
'0:01.617',-1.51
'0:01.621',-1.45
'0:01.625',-0.34
'0:01.629',2.35
'0:01.633',5.51
'0:01.637',8.33
'0:01.641',10.85
'0:01.645',12.55
'0:01.648',13.85
'0:01.652',14.09
'0:01.656',11.64
'0:01.660',6.49
'0:01.664',0.7
'0:01.668',-4.08
'0:01.672',-7.4
'0:01.676',-8.83
'0:01.680',-7.93
'0:01.684',-5.83
'0:01.688',-3.89
'0:01.691',-1.88
'0:01.695',0.36
'0:01.699',1.63
'0:01.703',1.78
'0:01.707',1.18
'0:01.711',0.68
'0:01.715',0.67
'0:01.719',0.96
'0:01.723',1.27
'0:01.727',1.85
'0:01.730',2.35
'0:01.734',2.5
'0:01.738',2.35
'0:01.742',2.21
'0:01.746',2.59
'0:01.750',2.99
'0:01.754',3.06
'0:01.758',3.06
'0:01.762',2.79
'0:01.766',2.83
'0:01.770',3.42
'0:01.773',4.05
'0:01.777',4.44
'0:01.781',4.76
'0:01.785',4.8
'0:01.789',5
'0:01.793',5.78
'0:01.797',6.54
'0:01.801',7.07
'0:01.805',7.12
'0:01.809',6.73
'0:01.813',5.99
'0:01.816',5.04
'0:01.820',4.15
'0:01.824',3.67
'0:01.828',3.37
'0:01.832',3.05
'0:01.836',2.49
'0:01.840',1.79
'0:01.844',0.98
'0:01.848',0.49
'0:01.852',0.69
'0:01.855',1.26
'0:01.859',1.65
'0:01.863',1.33
'0:01.867',0.21
'0:01.871',-0.41
'0:01.875',0.1
'0:01.879',1.07
'0:01.883',1.03
'0:01.887',0.25
'0:01.891',-0.83
'0:01.895',-1.54
'0:01.898',-2.24
'0:01.902',-3.29
'0:01.906',-4
'0:01.910',-3.99
'0:01.914',-3.99
'0:01.918',-4.01
'0:01.922',-3.66
'0:01.926',-3.79
'0:01.930',-3.83
'0:01.934',-3.82
'0:01.938',-4.27
'0:01.941',-4.03
'0:01.945',-3.19
'0:01.949',-2.87
'0:01.953',-3.45
'0:01.957',-4.06
'0:01.961',-4.86
'0:01.965',-5.02
'0:01.969',-3.48
'0:01.973',-0.79
'0:01.977',1.91
'0:01.980',4.86
'0:01.984',6.48
'0:01.988',4.06
'0:01.992',-3.2
'0:01.996',-11.07
'0:02.000',-17.02
'0:02.004',-20.78
'0:02.008',-21.91
'0:02.012',-20.88
'0:02.016',-18.82
'0:02.020',-16.32
'0:02.023',-13.96
'0:02.027',-12
'0:02.031',-10.32
'0:02.035',-9.38
'0:02.039',-8.86
'0:02.043',-7.61
'0:02.047',-6.41
'0:02.051',-5.38
'0:02.055',-4.72
'0:02.059',-4.46
'0:02.063',-4.19
'0:02.066',-3.75
'0:02.070',-3.14
'0:02.074',-2.4
'0:02.078',-1.82
'0:02.082',-1.19
'0:02.086',-0.82
'0:02.090',-0.45
'0:02.094',0.08
'0:02.098',0.43
'0:02.102',0.85
'0:02.105',1.45
'0:02.109',2.13
'0:02.113',2.86
'0:02.117',3.37
'0:02.121',3.74
'0:02.125',3.99
'0:02.129',4.18
'0:02.133',4.35
'0:02.137',4.52
'0:02.141',4.47
'0:02.145',4.26
'0:02.148',4.05
'0:02.152',3.73
'0:02.156',3.08
'0:02.160',2.6
'0:02.164',2.34
'0:02.168',2.43
'0:02.172',2.64
'0:02.176',2.94
'0:02.180',3.25
'0:02.184',3.28
'0:02.188',2.69
'0:02.191',2.37
'0:02.195',2.5
'0:02.199',2.46
'0:02.203',1.74
'0:02.207',0.97
'0:02.211',1.15
'0:02.215',1.41
'0:02.219',1
'0:02.223',-0.26
'0:02.227',-1.18
'0:02.230',-1.56
'0:02.234',-1.43
'0:02.238',-0.91
'0:02.242',-1.17
'0:02.246',-2.22
'0:02.250',-2.99
'0:02.254',-2.35
'0:02.258',-1.25
'0:02.262',-0.85
'0:02.266',-0.26
'0:02.270',0.22
'0:02.273',-0.07
'0:02.277',-0.75
'0:02.281',-1.26
'0:02.285',-1.23
'0:02.289',-1.38
'0:02.293',-1.19
'0:02.297',0.31
'0:02.301',3.11
'0:02.305',6.02
'0:02.309',8.32
'0:02.313',10.48
'0:02.316',10.48
'0:02.320',7.26
'0:02.324',2.19
'0:02.328',-3.08
'0:02.332',-7.02
'0:02.336',-9.44
'0:02.340',-10.06
'0:02.344',-9.32
'0:02.348',-6.96
'0:02.352',-3.94
'0:02.355',-2.56
'0:02.359',-1.75
'0:02.363',-0.17
'0:02.367',0.98
'0:02.371',1.55
'0:02.375',1.55
'0:02.379',1.47
'0:02.383',1.4
'0:02.387',1.35
'0:02.391',1.82
'0:02.395',2.62
'0:02.398',3.11
'0:02.402',3
'0:02.406',3.21
'0:02.410',3.89
'0:02.414',4.01
'0:02.418',3.44
'0:02.422',3.11
'0:02.426',2.9
'0:02.430',3.32
'0:02.434',4.11
'0:02.438',4.81
'0:02.441',5.39
'0:02.445',5.57
'0:02.449',6.19
'0:02.453',7.11
'0:02.457',7.48
'0:02.461',6.61
'0:02.465',5.56
'0:02.469',5.49
'0:02.473',5.75
'0:02.477',5.55
'0:02.480',5.16
'0:02.484',4.07
'0:02.488',2.67
'0:02.492',1.56
'0:02.496',0.5
'0:02.500',0.29
'0:02.504',0.8
'0:02.508',1.22
'0:02.512',1.45
'0:02.516',1.81
'0:02.520',1.76
'0:02.523',1.08
'0:02.527',0.6
'0:02.531',0.58
'0:02.535',0.74
'0:02.539',0.64
'0:02.543',0.56
'0:02.547',0.64
'0:02.551',0.4
'0:02.555',-0.16
'0:02.559',-0.49
'0:02.563',-0.78
'0:02.566',-1.22
'0:02.570',-1.24
'0:02.574',-1.28
'0:02.578',-1.79
'0:02.582',-2.54
'0:02.586',-3.22
'0:02.590',-3.22
'0:02.594',-2.62
'0:02.598',-2.01
'0:02.602',-2.26
'0:02.605',-2.88
'0:02.609',-3.03
'0:02.613',-2.84
'0:02.617',-2.66
'0:02.621',-2.56
'0:02.625',-2.43
'0:02.629',-2.74
'0:02.633',-2.59
'0:02.637',-1.24
'0:02.641',0.66
'0:02.645',3.43
'0:02.648',6.93
'0:02.652',9.53
'0:02.656',10.64
'0:02.660',9.04
'0:02.664',4.06
'0:02.668',-2.23
'0:02.672',-6.85
'0:02.676',-10.17
'0:02.680',-12.11
'0:02.684',-12.34
'0:02.688',-10.78
'0:02.691',-8.69
'0:02.695',-5.98
'0:02.699',-2.68
'0:02.703',-1.2
'0:02.707',-2.14
'0:02.711',-1.55
'0:02.715',-0.47
'0:02.719',-0.08
'0:02.723',0.02
'0:02.727',-0.04
'0:02.730',-0.44
'0:02.734',-0.5
'0:02.738',-0.08
'0:02.742',-0.02
'0:02.746',0.16
'0:02.750',0.38
'0:02.754',0.76
'0:02.758',1.02
'0:02.762',0.92
'0:02.766',0.79
'0:02.770',0.79
'0:02.773',0.92
'0:02.777',1.02
'0:02.781',1.03
'0:02.785',1.73
'0:02.789',2.17
'0:02.793',2.41
'0:02.797',3.02
'0:02.801',3
'0:02.805',2.48
'0:02.809',2.44
'0:02.813',2.97
'0:02.816',3.36
'0:02.820',3.44
'0:02.824',3.16
'0:02.828',2.39
'0:02.832',1.64
'0:02.836',1.07
'0:02.840',0.56
'0:02.844',0.37
'0:02.848',0.37
'0:02.852',0.48
'0:02.855',0.74
'0:02.859',1.04
'0:02.863',1.1
'0:02.867',1.05
'0:02.871',0.84
'0:02.875',0.67
'0:02.879',0.45
'0:02.883',0.12
'0:02.887',-0.36
'0:02.891',-1.15
'0:02.895',-1.81
'0:02.898',-2.53
'0:02.902',-2.96
'0:02.906',-3.45
'0:02.910',-4.11
'0:02.914',-4.33
'0:02.918',-4.21
'0:02.922',-3.99
'0:02.926',-3.9
'0:02.930',-4.06
'0:02.934',-3.79
'0:02.938',-3.43
'0:02.941',-3.5
'0:02.945',-3.34
'0:02.949',-3.13
'0:02.953',-2.66
'0:02.957',-1.84
'0:02.961',-1.1
'0:02.965',-0.2
'0:02.969',1.63
'0:02.973',4.12
'0:02.977',6.8
'0:02.980',8.76
'0:02.984',9.34
'0:02.988',7.37
'0:02.992',2.89
'0:02.996',-2.1
'0:03.000',-6.56
'0:03.004',-9.6
'0:03.008',-11.35
'0:03.012',-10.94
'0:03.016',-8.63
'0:03.020',-5.94
'0:03.023',-3.78
'0:03.027',-2.38
'0:03.031',-1.79
'0:03.035',-0.71
'0:03.039',0.71
'0:03.043',1.15
'0:03.047',0.64
'0:03.051',-0.08
'0:03.055',0.36
'0:03.059',1.51
'0:03.063',1.37
'0:03.066',1.15
'0:03.070',1.9
'0:03.074',2.57
'0:03.078',2.54
'0:03.082',2.49
'0:03.086',3.09
'0:03.090',3.56
'0:03.094',4.1
'0:03.098',4.4
'0:03.102',4.6
'0:03.105',4.97
'0:03.109',5.79
'0:03.113',6.53
'0:03.117',7.27
'0:03.121',7.95
'0:03.125',7.82
'0:03.129',7.48
'0:03.133',7.36
'0:03.137',7.4
'0:03.141',7.28
'0:03.145',6.82
'0:03.148',6.02
'0:03.152',4.84
'0:03.156',3.74
'0:03.160',2.98
'0:03.164',2.3
'0:03.168',1.85
'0:03.172',1.37
'0:03.176',1.05
'0:03.180',1.26
'0:03.184',1.39
'0:03.188',1.36
'0:03.191',1.38
'0:03.195',1.79
'0:03.199',1.58
'0:03.203',1.21
'0:03.207',1.28
'0:03.211',0.9
'0:03.215',0.31
'0:03.219',0.42
'0:03.223',0.87
'0:03.227',0.56
'0:03.230',-0.61
'0:03.234',-1.69
'0:03.238',-2.36
'0:03.242',-2.53
'0:03.246',-2.41
'0:03.250',-2.64
'0:03.254',-3.12
'0:03.258',-3.22
'0:03.262',-3.14
'0:03.266',-3.16
'0:03.270',-3.23
'0:03.273',-3.63
'0:03.277',-3.83
'0:03.281',-3.31
'0:03.285',-2.97
'0:03.289',-2.89
'0:03.293',-3.06
'0:03.297',-3.31
'0:03.301',-3.34
'0:03.305',-2.76
'0:03.309',-1.38
'0:03.313',0.66
'0:03.316',3.02
'0:03.320',5.38
'0:03.324',8.06
'0:03.328',9.41
'0:03.332',7.18
'0:03.336',1.89
'0:03.340',-4.15
'0:03.344',-8.55
'0:03.348',-11.08
'0:03.352',-11.53
'0:03.355',-10.29
'0:03.359',-8.09
'0:03.363',-5.71
'0:03.367',-3.38
'0:03.371',-1.43
'0:03.375',-0.27
'0:03.379',0.37
'0:03.383',1.15
'0:03.387',2.04
'0:03.391',2.57
'0:03.395',2.82
'0:03.398',2.9
'0:03.402',3.04
'0:03.406',3.23
'0:03.410',3.52
'0:03.414',3.56
'0:03.418',3.34
'0:03.422',3.09
'0:03.426',2.66
'0:03.430',2.12
'0:03.434',2.69
'0:03.438',4.36
'0:03.441',4.86
'0:03.445',4.91
'0:03.449',5.07
'0:03.453',5.14
'0:03.457',5.46
'0:03.461',5.21
'0:03.465',4.82
'0:03.469',5.09
'0:03.473',5.53
'0:03.477',5.53
'0:03.480',5.51
'0:03.484',3.7
'0:03.488',1.92
'0:03.492',0.4
'0:03.496',-0.77
'0:03.500',-1.44
'0:03.504',-2.47
'0:03.508',-3.77
'0:03.512',-3.88
'0:03.516',-3.47
'0:03.520',-3.34
'0:03.523',-3.56
'0:03.527',-3.81
'0:03.531',-3.99
'0:03.535',-4.51
'0:03.539',-5.27
'0:03.543',-4.52
'0:03.547',-3.24
'0:03.551',-2.75
'0:03.555',-3.7
'0:03.559',-5.11
'0:03.563',-5.51
'0:03.566',-5.43
'0:03.570',-5.87
'0:03.574',-6.07
'0:03.578',-5.93
'0:03.582',-5.99
'0:03.586',-6.41
'0:03.590',-7.02
'0:03.594',-7.42
'0:03.598',-7.59
'0:03.602',-7.53
'0:03.605',-7.29
'0:03.609',-6.57
'0:03.613',-5.71
'0:03.617',-5.29
'0:03.621',-5.39
'0:03.625',-5.5
'0:03.629',-5.25
'0:03.633',-5.14
'0:03.637',-4.93
'0:03.641',-3.89
'0:03.645',-1.49
'0:03.648',1.46
'0:03.652',4.64
'0:03.656',7.61
'0:03.660',8.2
'0:03.664',5.02
'0:03.668',-0.54
'0:03.672',-6.19
'0:03.676',-9.95
'0:03.680',-11.79
'0:03.684',-12.07
'0:03.688',-10.74
'0:03.691',-8.57
'0:03.695',-6.36
'0:03.699',-4.32
'0:03.703',-2.78
'0:03.707',-1.64
'0:03.711',-0.88
'0:03.715',-0.31
'0:03.719',0.26
'0:03.723',0.28
'0:03.727',0.29
'0:03.730',0.53
'0:03.734',0.98
'0:03.738',1.26
'0:03.742',1.55
'0:03.746',2.1
'0:03.750',2.45
'0:03.754',2.72
'0:03.758',2.65
'0:03.762',3.3
'0:03.766',3.98
'0:03.770',4.16
'0:03.773',4.5
'0:03.777',5.39
'0:03.781',5.87
'0:03.785',6.04
'0:03.789',5.87
'0:03.793',6.21
'0:03.797',6.72
'0:03.801',7.05
'0:03.805',7.22
'0:03.809',6.83
'0:03.813',6.09
'0:03.816',5.58
'0:03.820',5.15
'0:03.824',5.25
'0:03.828',5.61
'0:03.832',6.03
'0:03.836',6.25
'0:03.840',5.37
'0:03.844',4.5
'0:03.848',4.41
'0:03.852',3.86
'0:03.855',2.91
'0:03.859',3.31
'0:03.863',4.47
'0:03.867',5.04
'0:03.871',4.19
'0:03.875',2.69
'0:03.879',1.66
'0:03.883',1.35
'0:03.887',1.41
'0:03.891',1.5
'0:03.895',1.61
'0:03.898',1.82
'0:03.902',1.98
'0:03.906',1.99
'0:03.910',1.89
'0:03.914',2.07
'0:03.918',3.13
'0:03.922',4.08
'0:03.926',3.61
'0:03.930',2.82
'0:03.934',2.52
'0:03.938',2.68
'0:03.941',2.57
'0:03.945',2.25
'0:03.949',2.67
'0:03.953',3.32
'0:03.957',3.23
'0:03.961',2.51
'0:03.965',2.1
'0:03.969',2.33
'0:03.973',3.3
'0:03.977',5.43
'0:03.980',6.82
'0:03.984',7.56
'0:03.988',9.77
'0:03.992',11.25
'0:03.996',9.16
'0:04.000',3.9
'0:04.004',-2.65
'0:04.008',-8.02
'0:04.012',-11.89
'0:04.016',-13.42
'0:04.020',-12.76
'0:04.023',-10.91
'0:04.027',-8.42
'0:04.031',-5.79
'0:04.035',-4.3
'0:04.039',-4.11
'0:04.043',-4.17
'0:04.047',-3.69
'0:04.051',-2.81
'0:04.055',-2.38
'0:04.059',-2.28
'0:04.063',-1.66
'0:04.066',-0.88
'0:04.070',-0.53
'0:04.074',-1.09
'0:04.078',-1.71
'0:04.082',-1.58
'0:04.086',0.21
'0:04.090',2.16
'0:04.094',2.93
'0:04.098',3.76
'0:04.102',5.16
'0:04.105',6.39
'0:04.109',7.03
'0:04.113',7.3
'0:04.117',7.6
'0:04.121',7.82
'0:04.125',7.78
'0:04.129',7.65
'0:04.133',8
'0:04.137',8.47
'0:04.141',8.79
'0:04.145',8.73
'0:04.148',7.94
'0:04.152',7
'0:04.156',6.53
'0:04.160',5.81
'0:04.164',4.91
'0:04.168',4.05
'0:04.172',3.37
'0:04.176',2.73
'0:04.180',2.11
'0:04.184',1.87
'0:04.188',2.3
'0:04.191',2.26
'0:04.195',1.91
'0:04.199',1.48
'0:04.203',0.67
'0:04.207',-0.44
'0:04.211',-1.16
'0:04.215',-1.26
'0:04.219',-1.44
'0:04.223',-1.41
'0:04.227',-1.74
'0:04.230',-2.41
'0:04.234',-3.3
'0:04.238',-3.98
'0:04.242',-4.28
'0:04.246',-4.06
'0:04.250',-4.05
'0:04.254',-4.81
'0:04.258',-5.58
'0:04.262',-6.01
'0:04.266',-6.33
'0:04.270',-7.31
'0:04.273',-7.31
'0:04.277',-6.04
'0:04.281',-5.28
'0:04.285',-4.76
'0:04.289',-4.91
'0:04.293',-5.27
'0:04.297',-5.78
'0:04.301',-6.26
'0:04.305',-7.49
'0:04.309',-8.79
'0:04.313',-9.02
'0:04.316',-8.45
'0:04.320',-7.31
'0:04.324',-5.11
'0:04.328',-2.26
'0:04.332',-2.02
'0:04.336',-5.09
'0:04.340',-10.22
'0:04.344',-15.08
'0:04.348',-19.04
'0:04.352',-21.01
'0:04.355',-20.83
'0:04.359',-18.91
'0:04.363',-15.95
'0:04.367',-13.13
'0:04.371',-10.87
'0:04.375',-9.41
'0:04.379',-8.32
'0:04.383',-7.16
'0:04.387',-6.35
'0:04.391',-5.78
'0:04.395',-5.49
'0:04.398',-5.39
'0:04.402',-4.96
'0:04.406',-4.5
'0:04.410',-4.37
'0:04.414',-3.92
'0:04.418',-3.13
'0:04.422',-2.34
'0:04.426',-1.82
'0:04.430',-0.94
'0:04.434',0.06
'0:04.438',0.86
'0:04.441',1.02
'0:04.445',1.18
'0:04.449',1.7
'0:04.453',2.44
'0:04.457',2.74
'0:04.461',3.03
'0:04.465',3.14
'0:04.469',3.33
'0:04.473',3.73
'0:04.477',4.29
'0:04.480',4.68
'0:04.484',4.88
'0:04.488',4.85
'0:04.492',4.79
'0:04.496',4.5
'0:04.500',3.85
'0:04.504',3.32
'0:04.508',2.81
'0:04.512',2.36
'0:04.516',2.05
'0:04.520',2.04
'0:04.523',2.19
'0:04.527',2.25
'0:04.531',2.17
'0:04.535',2.23
'0:04.539',2.08
'0:04.543',1.97
'0:04.547',1.98
'0:04.551',1.87
'0:04.555',1.74
'0:04.559',1.53
'0:04.563',1.07
'0:04.566',0.3
'0:04.570',-0.47
'0:04.574',-1.37
'0:04.578',-2.1
'0:04.582',-2.28
'0:04.586',-2.27
'0:04.590',-2.08
'0:04.594',-2.02
'0:04.598',-1.79
'0:04.602',-1.21
'0:04.605',-0.65
'0:04.609',-0.39
'0:04.613',-0.9
'0:04.617',-1.68
'0:04.621',-1.11
'0:04.625',-0.21
'0:04.629',1.42
'0:04.633',3.43
'0:04.637',5.16
'0:04.641',6.04
'0:04.645',6.31
'0:04.648',6.17
'0:04.652',7.34
'0:04.656',10.95
'0:04.660',13.37
'0:04.664',12.44
'0:04.668',8.41
'0:04.672',2.23
'0:04.676',-2.87
'0:04.680',-5.9
'0:04.684',-7.49
'0:04.688',-6.86
'0:04.691',-4.88
'0:04.695',-2.23
'0:04.699',0.55
'0:04.703',2.83
'0:04.707',5.44
'0:04.711',7.38
'0:04.715',8.42
'0:04.719',8.84
'0:04.723',8.87
'0:04.727',8.85
'0:04.730',8.83
'0:04.734',9.13
'0:04.738',9.59
'0:04.742',10.33
'0:04.746',10.5
'0:04.750',9.75
'0:04.754',8.91
'0:04.758',8.52
'0:04.762',8.84
'0:04.766',8.95
'0:04.770',8.34
'0:04.773',7.44
'0:04.777',6.72
'0:04.781',7.19
'0:04.785',8.3
'0:04.789',8.37
'0:04.793',7.68
'0:04.797',7.3
'0:04.801',7
'0:04.805',6.83
'0:04.809',6.51
'0:04.813',6.11
'0:04.816',5.49
'0:04.820',4.54
'0:04.824',3.71
'0:04.828',2.68
'0:04.832',1.23
'0:04.836',0.22
'0:04.840',-0.38
'0:04.844',-1.14
'0:04.848',-1.61
'0:04.852',-1.68
'0:04.855',-1.24
'0:04.859',-0.61
'0:04.863',0.16
'0:04.867',0.72
'0:04.871',0.45
'0:04.875',-0.04
'0:04.879',-0.51
'0:04.883',-1
'0:04.887',-1.34
'0:04.891',-1.9
'0:04.895',-2.11
'0:04.898',-2.02
'0:04.902',-2.19
'0:04.906',-3.46
'0:04.910',-5.28
'0:04.914',-6.26
'0:04.918',-6.76
'0:04.922',-6.77
'0:04.926',-6.56
'0:04.930',-6.29
'0:04.934',-6.33
'0:04.938',-6.68
'0:04.941',-7.03
'0:04.945',-6.93
'0:04.949',-6.49
'0:04.953',-6.18
'0:04.957',-5.85
'0:04.961',-5.66
'0:04.965',-5.02
'0:04.969',-4.55
'0:04.973',-4.79
'0:04.977',-4.83
'0:04.980',-4.77
'0:04.984',-4.77
'0:04.988',-3.9
'0:04.992',-2
'0:04.996',0.49
'0:05.000',2.84
'0:05.004',2.72
'0:05.008',-0.15
'0:05.012',-4.61
'0:05.016',-9.87
'0:05.020',-14.54
'0:05.023',-17.25
'0:05.027',-17.9
'0:05.031',-16.88
'0:05.035',-14.49
'0:05.039',-11.6
'0:05.043',-9.79
'0:05.047',-8.31
'0:05.051',-6
'0:05.055',-4.14
'0:05.059',-3.31
'0:05.063',-2.93
'0:05.066',-2.96
'0:05.070',-3.44
'0:05.074',-3.54
'0:05.078',-2.81
'0:05.082',-1.88
'0:05.086',-1.44
'0:05.090',-2.22
'0:05.094',-3.34
'0:05.098',-2.99
'0:05.102',1.05
'0:05.105',11.9
'0:05.109',10.59
'0:05.113',6.26
'0:05.117',2.17
'0:05.121',-0.2
'0:05.125',-0.89
'0:05.129',-0.25
'0:05.133',0.2
'0:05.137',0.93
'0:05.141',1.31
'0:05.145',1.84
'0:05.148',2.8
'0:05.152',2.72
'0:05.156',1.9
'0:05.160',0.75
'0:05.164',-0.07
'0:05.168',-0.59
'0:05.172',-1.03
'0:05.176',-2
'0:05.180',-3.06
'0:05.184',-3.73
'0:05.188',-4.06
'0:05.191',-3.73
'0:05.195',-2.88
'0:05.199',-2.26
'0:05.203',-2.3
'0:05.207',-2.8
'0:05.211',-2.86
'0:05.215',-2.71
'0:05.219',-2.33
'0:05.223',-1.96
'0:05.227',-1.98
'0:05.230',-2.46
'0:05.234',-2.79
'0:05.238',-3.19
'0:05.242',-3.6
'0:05.246',-3.47
'0:05.250',-3.36
'0:05.254',-3.43
'0:05.258',-3.3
'0:05.262',-2.96
'0:05.266',-2.83
'0:05.270',-2.94
'0:05.273',-3.05
'0:05.277',-2.8
'0:05.281',-2.19
'0:05.285',-1.84
'0:05.289',-1.75
'0:05.293',-1.92
'0:05.297',-1.88
'0:05.301',-1.71
'0:05.305',-1.45
'0:05.309',-0.73
'0:05.313',0.51
'0:05.316',2.57
'0:05.320',5.31
'0:05.324',7.85
'0:05.328',9.99
'0:05.332',10.8
'0:05.336',8.47
'0:05.340',3.6
'0:05.344',-1.77
'0:05.348',-5.96
'0:05.352',-8.67
'0:05.355',-9.66
'0:05.359',-8.66
'0:05.363',-6.38
'0:05.367',-3.87
'0:05.371',-1.77
'0:05.375',-0.26
'0:05.379',0.68
'0:05.383',0.5
'0:05.387',0.38
'0:05.391',1.27
'0:05.395',2.26
'0:05.398',2.38
'0:05.402',1.57
'0:05.406',1.41
'0:05.410',1.9
'0:05.414',2.93
'0:05.418',4.21
'0:05.422',4.88
'0:05.426',4.61
'0:05.430',3.85
'0:05.434',3.3
'0:05.438',3.15
'0:05.441',3.37
'0:05.445',3.93
'0:05.449',4.6
'0:05.453',5.55
'0:05.457',6.02
'0:05.461',6.65
'0:05.465',7.38
'0:05.469',7.71
'0:05.473',7.26
'0:05.477',6.72
'0:05.480',6.35
'0:05.484',6.17
'0:05.488',6.35
'0:05.492',6.02
'0:05.496',5.13
'0:05.500',4.44
'0:05.504',4.37
'0:05.508',3.93
'0:05.512',3.26
'0:05.516',2.31
'0:05.520',1.81
'0:05.523',1.67
'0:05.527',1.28
'0:05.531',1.61
'0:05.535',2.02
'0:05.539',1.63
'0:05.543',1.92
'0:05.547',3.06
'0:05.551',3.62
'0:05.555',3.41
'0:05.559',2.81
'0:05.563',1.93
'0:05.566',1.28
'0:05.570',1.33
'0:05.574',1.93
'0:05.578',1.48
'0:05.582',-0.01
'0:05.586',-1.29
'0:05.590',-1.61
'0:05.594',-2.05
'0:05.598',-2.72
'0:05.602',-3.24
'0:05.605',-3
'0:05.609',-2.85
'0:05.613',-3.05
'0:05.617',-3.47
'0:05.621',-4.02
'0:05.625',-4.08
'0:05.629',-3.56
'0:05.633',-2.89
'0:05.637',-2.51
'0:05.641',-2.23
'0:05.645',-1.89
'0:05.648',-1.37
'0:05.652',-0.1
'0:05.656',2.33
'0:05.660',5.53
'0:05.664',8.55
'0:05.668',10.93
'0:05.672',13.29
'0:05.676',14.82
'0:05.680',13.49
'0:05.684',8.66
'0:05.688',2.75
'0:05.691',-1.97
'0:05.695',-5.28
'0:05.699',-6.96
'0:05.703',-6.33
'0:05.707',-5.16
'0:05.711',-4.12
'0:05.715',-2.66
'0:05.719',-1.35
'0:05.723',-0.67
'0:05.727',-0.25
'0:05.730',0.25
'0:05.734',0.26
'0:05.738',-0.39
'0:05.742',-0.73
'0:05.746',-0.62
'0:05.750',-0.44
'0:05.754',-0.54
'0:05.758',-0.95
'0:05.762',-1.36
'0:05.766',-1.21
'0:05.770',-1.04
'0:05.773',-0.95
'0:05.777',-0.6
'0:05.781',-0.32
'0:05.785',-0.19
'0:05.789',-0.15
'0:05.793',-0.09
'0:05.797',0.04
'0:05.801',0.69
'0:05.805',1.76
'0:05.809',2.94
'0:05.813',3.35
'0:05.816',2.63
'0:05.820',1.12
'0:05.824',-0.27
'0:05.828',-1.01
'0:05.832',-0.91
'0:05.836',-0.75
'0:05.840',-1.14
'0:05.844',-2.04
'0:05.848',-2.62
'0:05.852',-3.26
'0:05.855',-3.7
'0:05.859',-3.19
'0:05.863',-2.78
'0:05.867',-2.71
'0:05.871',-3.04
'0:05.875',-3.63
'0:05.879',-4.67
'0:05.883',-3.07
'0:05.887',-0.82
'0:05.891',-1.16
'0:05.895',-1.98
'0:05.898',-2.19
'0:05.902',-1.88
'0:05.906',-1.09
'0:05.910',-1.38
'0:05.914',-2.77
'0:05.918',-3.73
'0:05.922',-4.14
'0:05.926',-4.35
'0:05.930',-4.96
'0:05.934',-5.67
'0:05.938',-5.75
'0:05.941',-5.33
'0:05.945',-4.9
'0:05.949',-4.8
'0:05.953',-4.82
'0:05.957',-4.86
'0:05.961',-4.75
'0:05.965',-4.47
'0:05.969',-4.13
'0:05.973',-4.06
'0:05.977',-4.03
'0:05.980',-3.44
'0:05.984',-2.75
'0:05.988',-2.1
'0:05.992',-0.93
'0:05.996',1.51
'0:06.000',4.64
'0:06.004',7.65
'0:06.008',9.82
'0:06.012',9.33
'0:06.016',5.47
'0:06.020',-0.21
'0:06.023',-5.67
'0:06.027',-9.75
'0:06.031',-11.61
'0:06.035',-10.99
'0:06.039',-8.68
'0:06.043',-5.93
'0:06.047',-3.81
'0:06.051',-2.29
'0:06.055',-0.95
'0:06.059',-0.04
'0:06.063',0.36
'0:06.066',0.74
'0:06.070',1.21
'0:06.074',1.29
'0:06.078',1.22
'0:06.082',1.28
'0:06.086',1.3
'0:06.090',1.5
'0:06.094',1.96
'0:06.098',2.42
'0:06.102',2.8
'0:06.105',2.71
'0:06.109',2.94
'0:06.113',3.1
'0:06.117',2.98
'0:06.121',3.44
'0:06.125',4.06
'0:06.129',4.24
'0:06.133',4.82
'0:06.137',6.36
'0:06.141',7.4
'0:06.145',7.22
'0:06.148',6.69
'0:06.152',6.62
'0:06.156',6.72
'0:06.160',6.43
'0:06.164',5.52
'0:06.168',4.85
'0:06.172',4.46
'0:06.176',3.73
'0:06.180',3.45
'0:06.184',2.86
'0:06.188',2.42
'0:06.191',2.59
'0:06.195',2.85
'0:06.199',2.83
'0:06.203',2.54
'0:06.207',2.32
'0:06.211',2.5
'0:06.215',2.95
'0:06.219',3.35
'0:06.223',3.72
'0:06.227',3.67
'0:06.230',3.09
'0:06.234',2.61
'0:06.238',2.52
'0:06.242',2.01
'0:06.246',0.75
'0:06.250',-0.01
'0:06.254',0
'0:06.258',-0.23
'0:06.262',-0.71
'0:06.266',-1.2
'0:06.270',-1.72
'0:06.273',-1.85
'0:06.277',-2.15
'0:06.281',-2.04
'0:06.285',-1.45
'0:06.289',-1.54
'0:06.293',-1.65
'0:06.297',-1.52
'0:06.301',-1.41
'0:06.305',-1.6
'0:06.309',-1.45
'0:06.313',-0.86
'0:06.316',-0.38
'0:06.320',0.11
'0:06.324',1.17
'0:06.328',3.48
'0:06.332',6.25
'0:06.336',8.38
'0:06.340',10.66
'0:06.344',13.76
'0:06.348',14.65
'0:06.352',10.79
'0:06.355',4.05
'0:06.359',-2.31
'0:06.363',-6.72
'0:06.367',-8.8
'0:06.371',-9.39
'0:06.375',-8.96
'0:06.379',-6.77
'0:06.383',-4.03
'0:06.387',-2.87
'0:06.391',-1.79
'0:06.395',-0.24
'0:06.398',0.27
'0:06.402',-0.09
'0:06.406',-1.16
'0:06.410',-1.46
'0:06.414',-0.31
'0:06.418',0.18
'0:06.422',0.26
'0:06.426',1.85
'0:06.430',3.63
'0:06.434',4.33
'0:06.438',4.41
'0:06.441',4.46
'0:06.445',5.09
'0:06.449',5.57
'0:06.453',5.43
'0:06.457',4.63
'0:06.461',4.61
'0:06.465',5.38
'0:06.469',5.84
'0:06.473',6.02
'0:06.477',6.26
'0:06.480',6.52
'0:06.484',7.04
'0:06.488',7.33
'0:06.492',6.85
'0:06.496',6.02
'0:06.500',5.43
'0:06.504',4.52
'0:06.508',3.65
'0:06.512',3.18
'0:06.516',2.63
'0:06.520',1.81
'0:06.523',1.06
'0:06.527',0.52
'0:06.531',0.13
'0:06.535',-0.07
'0:06.539',-0.19
'0:06.543',-0.15
'0:06.547',-0.33
'0:06.551',-0.81
'0:06.555',-1.28
'0:06.559',-1.43
'0:06.563',-1.42
'0:06.566',-1.38
'0:06.570',-1.29
'0:06.574',-1.47
'0:06.578',-2.18
'0:06.582',-2.98
'0:06.586',-3.16
'0:06.590',-3
'0:06.594',-3.28
'0:06.598',-5.07
'0:06.602',-7.07
'0:06.605',-8.81
'0:06.609',-9.5
'0:06.613',-8.85
'0:06.617',-8.46
'0:06.621',-8.66
'0:06.625',-9.23
'0:06.629',-9.05
'0:06.633',-7.48
'0:06.637',-6.89
'0:06.641',-7.18
'0:06.645',-7.09
'0:06.648',-6.81
'0:06.652',-6.16
'0:06.656',-5.75
'0:06.660',-6.02
'0:06.664',-6.02
'0:06.668',-3.9
'0:06.672',-0.98
'0:06.676',0.54
'0:06.680',2.04
'0:06.684',2.58
'0:06.688',0.19
'0:06.691',-5.08
'0:06.695',-10.15
'0:06.699',-13.88
'0:06.703',-17.05
'0:06.707',-18.87
'0:06.711',-17.99
'0:06.715',-15.49
'0:06.719',-12.75
'0:06.723',-10.55
'0:06.727',-8.5
'0:06.730',-7.3
'0:06.734',-6.57
'0:06.738',-5.96
'0:06.742',-5.26
'0:06.746',-4.79
'0:06.750',-4.54
'0:06.754',-4.44
'0:06.758',-4.08
'0:06.762',-3.37
'0:06.766',-2.65
'0:06.770',-2.42
'0:06.773',-2.37
'0:06.777',-2.15
'0:06.781',-1.68
'0:06.785',-1.04
'0:06.789',-0.55
'0:06.793',-0.16
'0:06.797',0.35
'0:06.801',1.05
'0:06.805',1.82
'0:06.809',2.42
'0:06.813',2.75
'0:06.816',3.14
'0:06.820',3.97
'0:06.824',4.55
'0:06.828',5.08
'0:06.832',5.45
'0:06.836',5.39
'0:06.840',5.45
'0:06.844',5.28
'0:06.848',4.79
'0:06.852',4.3
'0:06.855',3.89
'0:06.859',3.57
'0:06.863',3.31
'0:06.867',2.8
'0:06.871',2.33
'0:06.875',2.04
'0:06.879',1.85
'0:06.883',1.85
'0:06.887',1.78
'0:06.891',2.22
'0:06.895',2.69
'0:06.898',2.87
'0:06.902',2.56
'0:06.906',2.24
'0:06.910',2.7
'0:06.914',2.31
'0:06.918',1.39
'0:06.922',0.77
'0:06.926',-0.11
'0:06.930',-0.99
'0:06.934',-1.6
'0:06.938',-1.79
'0:06.941',-2.49
'0:06.945',-2.41
'0:06.949',-1.49
'0:06.953',-1.33
'0:06.957',-1.5
'0:06.961',-1.71
'0:06.965',-1.66
'0:06.969',-1.56
'0:06.973',-1.3
'0:06.977',-0.9
'0:06.980',-0.12
'0:06.984',0.36
'0:06.988',0.21
'0:06.992',0.51
'0:06.996',2.19
'0:07.000',4.55
'0:07.004',6.84
'0:07.008',8.92
'0:07.012',11.67
'0:07.016',13.08
'0:07.020',9.32
'0:07.023',2.88
'0:07.027',-3.21
'0:07.031',-7.37
'0:07.035',-9.55
'0:07.039',-10.13
'0:07.043',-9.17
'0:07.047',-6.29
'0:07.051',-2.84
'0:07.055',-0.22
'0:07.059',1.28
'0:07.063',2.01
'0:07.066',1.86
'0:07.070',1.92
'0:07.074',2.05
'0:07.078',2.48
'0:07.082',3.31
'0:07.086',4.27
'0:07.090',4.23
'0:07.094',3.59
'0:07.098',3.08
'0:07.102',2.88
'0:07.105',2.96
'0:07.109',3.32
'0:07.113',3.89
'0:07.117',3.87
'0:07.121',3.3
'0:07.125',3.52
'0:07.129',4.22
'0:07.133',4.83
'0:07.137',4.91
'0:07.141',4.89
'0:07.145',5.37
'0:07.148',5.67
'0:07.152',5.69
'0:07.156',5.75
'0:07.160',5.99
'0:07.164',5.93
'0:07.168',5.4
'0:07.172',4.96
'0:07.176',4.43
'0:07.180',3.7
'0:07.184',2.35
'0:07.188',0.55
'0:07.191',-0.35
'0:07.195',-0.49
'0:07.199',0.14
'0:07.203',0.77
'0:07.207',0.9
'0:07.211',1.42
'0:07.215',2.32
'0:07.219',2.74
'0:07.223',3.16
'0:07.227',3.73
'0:07.230',4.49
'0:07.234',4.73
'0:07.238',4.11
'0:07.242',2.87
'0:07.246',1.98
'0:07.250',1.48
'0:07.254',0.97
'0:07.258',0.08
'0:07.262',-0.61
'0:07.266',-0.68
'0:07.270',-0.91
'0:07.273',-1.99
'0:07.277',-3.7
'0:07.281',-4.77
'0:07.285',-5.2
'0:07.289',-5.34
'0:07.293',-5.52
'0:07.297',-5.72
'0:07.301',-6
'0:07.305',-6.29
'0:07.309',-6.41
'0:07.313',-6.19
'0:07.316',-6.16
'0:07.320',-6.4
'0:07.324',-6.15
'0:07.328',-5.74
'0:07.332',-5.63
'0:07.336',-5.08
'0:07.340',-3.27
'0:07.344',-0.58
'0:07.348',2.1
'0:07.352',4.81
'0:07.355',6.65
'0:07.359',5.13
'0:07.363',0.59
'0:07.367',-4.89
'0:07.371',-9.51
'0:07.375',-12.3
'0:07.379',-13.29
'0:07.383',-12.45
'0:07.387',-11.29
'0:07.391',-10.06
'0:07.395',-7.42
'0:07.398',-4.45
'0:07.402',-2.44
'0:07.406',-1.66
'0:07.410',-1.41
'0:07.414',-0.71
'0:07.418',-0.43
'0:07.422',-1.46
'0:07.426',-2.2
'0:07.430',-1.45
'0:07.434',-0.38
'0:07.438',0.36
'0:07.441',0.76
'0:07.445',1.7
'0:07.449',2.05
'0:07.453',2.18
'0:07.457',2.85
'0:07.461',2.89
'0:07.465',2.13
'0:07.469',1.57
'0:07.473',2.2
'0:07.477',3.59
'0:07.480',4.7
'0:07.484',6.06
'0:07.488',6.32
'0:07.492',5.61
'0:07.496',4.97
'0:07.500',4.73
'0:07.504',4.92
'0:07.508',5.07
'0:07.512',4.67
'0:07.516',4.68
'0:07.520',4.5
'0:07.523',3.78
'0:07.527',2.89
'0:07.531',1.87
'0:07.535',1.42
'0:07.539',1.49
'0:07.543',1.41
'0:07.547',1.41
'0:07.551',1.81
'0:07.555',2.07
'0:07.559',1.77
'0:07.563',1.23
'0:07.566',1.03
'0:07.570',0.75
'0:07.574',0.36
'0:07.578',-0.03
'0:07.582',-0.4
'0:07.586',-0.81
'0:07.590',-1.14
'0:07.594',-1.55
'0:07.598',-1.87
'0:07.602',-2.19
'0:07.605',-2.57
'0:07.609',-2.89
'0:07.613',-3.23
'0:07.617',-3.29
'0:07.621',-3.12
'0:07.625',-2.83
'0:07.629',-2.43
'0:07.633',-1.97
'0:07.637',-1.81
'0:07.641',-1.84
'0:07.645',-1.79
'0:07.648',-1.67
'0:07.652',-1.52
'0:07.656',-1.51
'0:07.660',-1.45
'0:07.664',-0.04
'0:07.668',1.88
'0:07.672',4.5
'0:07.676',6.79
'0:07.680',8.67
'0:07.684',9.2
'0:07.688',7.18
'0:07.691',2.88
'0:07.695',-2.58
'0:07.699',-7.3
'0:07.703',-10.28
'0:07.707',-11.19
'0:07.711',-10.23
'0:07.715',-8.07
'0:07.719',-5.4
'0:07.723',-3.02
'0:07.727',-1
'0:07.730',0.08
'0:07.734',0.25
'0:07.738',0.24
'0:07.742',0.72
'0:07.746',1.23
'0:07.750',1.36
'0:07.754',0.92
'0:07.758',0.8
'0:07.762',1.14
'0:07.766',1.42
'0:07.770',1.65
'0:07.773',1.91
'0:07.777',2.72
'0:07.781',3.54
'0:07.785',3.47
'0:07.789',3.15
'0:07.793',3.36
'0:07.797',3.36
'0:07.801',3.36
'0:07.805',3.12
'0:07.809',3.35
'0:07.813',3.91
'0:07.816',4.31
'0:07.820',4.56
'0:07.824',5.11
'0:07.828',5.5
'0:07.832',5.72
'0:07.836',6.04
'0:07.840',5.92
'0:07.844',5.77
'0:07.848',5.48
'0:07.852',4.49
'0:07.855',3.7
'0:07.859',3.39
'0:07.863',2.74
'0:07.867',1.62
'0:07.871',0.49
'0:07.875',-0.22
'0:07.879',-0.41
'0:07.883',-0.39
'0:07.887',0.22
'0:07.891',1.5
'0:07.895',1.84
'0:07.898',0.53
'0:07.902',-0.22
'0:07.906',0.09
'0:07.910',0.38
'0:07.914',0.7
'0:07.918',0.75
'0:07.922',0.61
'0:07.926',0.13
'0:07.930',-0.23
'0:07.934',-0.56
'0:07.938',-1.29
'0:07.941',-2.42
'0:07.945',-3.29
'0:07.949',-3.67
'0:07.953',-3.72
'0:07.957',-3.23
'0:07.961',-3.04
'0:07.965',-3.47
'0:07.969',-4.1
'0:07.973',-4.53
'0:07.977',-4.74
'0:07.980',-4.8
'0:07.984',-4.37
'0:07.988',-3.54
'0:07.992',-2.65
'0:07.996',-2.32
'0:08.000',-2.34
'0:08.004',-2.03
'0:08.008',-1.58
'0:08.012',-0.52
'0:08.016',0.98
'0:08.020',2.71
'0:08.023',4.62
'0:08.027',7
'0:08.031',8
'0:08.035',5.2
'0:08.039',-0.61
'0:08.043',-6.54
'0:08.047',-10.65
'0:08.051',-12.72
'0:08.055',-12.76
'0:08.059',-11.49
'0:08.063',-9.41
'0:08.066',-7.15
'0:08.070',-5.34
'0:08.074',-4.58
'0:08.078',-4.32
'0:08.082',-3.77
'0:08.086',-3.32
'0:08.090',-2.98
'0:08.094',-2.21
'0:08.098',-1.72
'0:08.102',-1.3
'0:08.105',-0.55
'0:08.109',-0.01
'0:08.113',0.33
'0:08.117',0.51
'0:08.121',0.72
'0:08.125',0.95
'0:08.129',1.16
'0:08.133',1.45
'0:08.137',1.46
'0:08.141',1.46
'0:08.145',1.82
'0:08.148',2.31
'0:08.152',2.96
'0:08.156',3.69
'0:08.160',4.08
'0:08.164',4.38
'0:08.168',5.03
'0:08.172',5.61
'0:08.176',5.99
'0:08.180',5.55
'0:08.184',4.86
'0:08.188',4.05
'0:08.191',3.16
'0:08.195',3.18
'0:08.199',3.41
'0:08.203',3.54
'0:08.207',2.49
'0:08.211',1.64
'0:08.215',1.32
'0:08.219',0.89
'0:08.223',0.64
'0:08.227',0.08
'0:08.230',0.47
'0:08.234',1.11
'0:08.238',0.68
'0:08.242',0.36
'0:08.246',0.94
'0:08.250',0.89
'0:08.254',0.16
'0:08.258',-0.55
'0:08.262',-0.87
'0:08.266',-1.26
'0:08.270',-1.65
'0:08.273',-1.68
'0:08.277',-2.2
'0:08.281',-2.53
'0:08.285',-2.39
'0:08.289',-2.68
'0:08.293',-3.26
'0:08.297',-2.93
'0:08.301',-2.56
'0:08.305',-2.55
'0:08.309',-3.1
'0:08.313',-3.85
'0:08.316',-4.43
'0:08.320',-4.42
'0:08.324',-4.07
'0:08.328',-4.13
'0:08.332',-4.32
'0:08.336',-3.72
'0:08.340',-2.37
'0:08.344',-0.17
'0:08.348',2.6
'0:08.352',5.08
'0:08.355',7.38
'0:08.359',8.36
'0:08.363',6.26
'0:08.367',1.41
'0:08.371',-4.12
'0:08.375',-8.09
'0:08.379',-10.31
'0:08.383',-11.05
'0:08.387',-10.25
'0:08.391',-8.28
'0:08.395',-6.25
'0:08.398',-4.61
'0:08.402',-3.29
'0:08.406',-2.05
'0:08.410',-0.89
'0:08.414',-0.06
'0:08.418',0.47
'0:08.422',0.94
'0:08.426',1.21
'0:08.430',1.67
'0:08.434',2.06
'0:08.438',2.33
'0:08.441',2.44
'0:08.445',2.39
'0:08.449',2.56
'0:08.453',2.94
'0:08.457',3.12
'0:08.461',3.09
'0:08.465',3.16
'0:08.469',3.31
'0:08.473',3.55
'0:08.477',3.92
'0:08.480',4.33
'0:08.484',4.72
'0:08.488',5.27
'0:08.492',5.83
'0:08.496',6.26
'0:08.500',6.52
'0:08.504',6.7
'0:08.508',6.65
'0:08.512',6.75
'0:08.516',6.65
'0:08.520',6.08
'0:08.523',5.36
'0:08.527',4.76
'0:08.531',4.34
'0:08.535',3.7
'0:08.539',3.01
'0:08.543',2.38
'0:08.547',1.71
'0:08.551',1.19
'0:08.555',1.14
'0:08.559',1.07
'0:08.563',1.27
'0:08.566',1.23
'0:08.570',0.98
'0:08.574',1.53
'0:08.578',2.02
'0:08.582',1.71
'0:08.586',0.69
'0:08.590',-0.31
'0:08.594',-0.53
'0:08.598',-0.77
'0:08.602',-0.78
'0:08.605',-0.73
'0:08.609',-1.38
'0:08.613',-2.35
'0:08.617',-3.04
'0:08.621',-3.31
'0:08.625',-3.59
'0:08.629',-3.53
'0:08.633',-3.55
'0:08.637',-4.17
'0:08.641',-4.67
'0:08.645',-4.25
'0:08.648',-3.29
'0:08.652',-1.62
'0:08.656',-0.4
'0:08.660',-0.26
'0:08.664',-0.34
'0:08.668',0.24
'0:08.672',0.43
'0:08.676',0.72
'0:08.680',1.36
'0:08.684',2.16
'0:08.688',4.1
'0:08.691',7.4
'0:08.695',10.79
'0:08.699',13.48
'0:08.703',14.22
'0:08.707',11.53
'0:08.711',6.5
'0:08.715',0.54
'0:08.719',-5
'0:08.723',-8.79
'0:08.727',-10.43
'0:08.730',-9.8
'0:08.734',-7.92
'0:08.738',-6.54
'0:08.742',-6.29
'0:08.746',-5.78
'0:08.750',-4.93
'0:08.754',-4.25
'0:08.758',-3.99
'0:08.762',-3.79
'0:08.766',-3.87
'0:08.770',-4.28
'0:08.773',-4.46
'0:08.777',-3.98
'0:08.781',-3.65
'0:08.785',-3.17
'0:08.789',-2.88
'0:08.793',-2.85
'0:08.797',-2.07
'0:08.801',-0.96
'0:08.805',-0.23
'0:08.809',-0.07
'0:08.813',-0.36
'0:08.816',-0.68
'0:08.820',-0.27
'0:08.824',0.55
'0:08.828',1.79
'0:08.832',2.96
'0:08.836',2.96
'0:08.840',2.6
'0:08.844',3.06
'0:08.848',3.39
'0:08.852',3.42
'0:08.855',3.11
'0:08.859',2.61
'0:08.863',1.92
'0:08.867',1.52
'0:08.871',1.71
'0:08.875',1.7
'0:08.879',0.92
'0:08.883',-0.14
'0:08.887',-0.36
'0:08.891',-0.14
'0:08.895',-0.29
'0:08.898',-0.56
'0:08.902',-0.85
'0:08.906',-0.88
'0:08.910',-0.73
'0:08.914',-0.37
'0:08.918',-0.22
'0:08.922',-0.62
'0:08.926',-1.16
'0:08.930',-1.41
'0:08.934',-1.52
'0:08.938',-1.73
'0:08.941',-2.4
'0:08.945',-3.28
'0:08.949',-3.86
'0:08.953',-4.35
'0:08.957',-4.62
'0:08.961',-4.63
'0:08.965',-4.37
'0:08.969',-4.1
'0:08.973',-4.09
'0:08.977',-3.92
'0:08.980',-3.75
'0:08.984',-3.59
'0:08.988',-3.17
'0:08.992',-2.71
'0:08.996',-2.18
'0:09.000',-1.8
'0:09.004',-1.85
'0:09.008',-2.1
'0:09.012',-2.4
'0:09.016',-1.69
'0:09.020',0.18
'0:09.023',2.56
'0:09.027',4.99
'0:09.031',7.74
'0:09.035',9.63
'0:09.039',7.67
'0:09.043',2.66
'0:09.047',-3.16
'0:09.051',-8.21
'0:09.055',-11.51
'0:09.059',-12.27
'0:09.063',-10.43
'0:09.066',-7.29
'0:09.070',-5.51
'0:09.074',-4.54
'0:09.078',-2.96
'0:09.082',-1.41
'0:09.086',-0.44
'0:09.090',0.16
'0:09.094',0.75
'0:09.098',0.87
'0:09.102',1.38
'0:09.105',2.15
'0:09.109',1.81
'0:09.113',1.25
'0:09.117',0.81
'0:09.121',0.3
'0:09.125',0.92
'0:09.129',2.01
'0:09.133',2.62
'0:09.137',2.85
'0:09.141',2.97
'0:09.145',3.05
'0:09.148',3.24
'0:09.152',3.51
'0:09.156',3.82
'0:09.160',4.06
'0:09.164',4.24
'0:09.168',4.37
'0:09.172',4.78
'0:09.176',5.44
'0:09.180',5.75
'0:09.184',5.71
'0:09.188',5.63
'0:09.191',5.24
'0:09.195',4.64
'0:09.199',3.89
'0:09.203',3.31
'0:09.207',2.98
'0:09.211',2.54
'0:09.215',2.25
'0:09.219',2.24
'0:09.223',2.05
'0:09.227',1.76
'0:09.230',1.46
'0:09.234',1.37
'0:09.238',1.73
'0:09.242',2.26
'0:09.246',2.75
'0:09.250',3
'0:09.254',2.97
'0:09.258',2.71
'0:09.262',2.27
'0:09.266',1.97
'0:09.270',1.85
'0:09.273',1.49
'0:09.277',0.92
'0:09.281',0.13
'0:09.285',-0.96
'0:09.289',-2.08
'0:09.293',-2.87
'0:09.297',-3.63
'0:09.301',-4.03
'0:09.305',-4.48
'0:09.309',-4.72
'0:09.313',-4.79
'0:09.316',-4.59
'0:09.320',-4.17
'0:09.324',-3.63
'0:09.328',-3.03
'0:09.332',-2.82
'0:09.336',-2.88
'0:09.340',-2.92
'0:09.344',-2.69
'0:09.348',-2.51
'0:09.352',-2.39
'0:09.355',-1.8
'0:09.359',-0.61
'0:09.363',1.09
'0:09.367',3.07
'0:09.371',5.4
'0:09.375',8.29
'0:09.379',9.95
'0:09.383',7.59
'0:09.387',2.1
'0:09.391',-3.7
'0:09.395',-8.38
'0:09.398',-11.99
'0:09.402',-13.26
'0:09.406',-12.06
'0:09.410',-9.77
'0:09.414',-7.58
'0:09.418',-5.11
'0:09.422',-2.96
'0:09.426',-1.76
'0:09.430',-1.46
'0:09.434',-1.34
'0:09.438',-1.18
'0:09.441',1.26
'0:09.445',1.09
'0:09.449',0.91
'0:09.453',2.05
'0:09.457',3.43
'0:09.461',4.58
'0:09.465',5.82
'0:09.469',6.51
'0:09.473',6.16
'0:09.477',4.54
'0:09.480',3.76
'0:09.484',4.17
'0:09.488',4.73
'0:09.492',4.86
'0:09.496',5.44
'0:09.500',6.04
'0:09.504',6.63
'0:09.508',7.13
'0:09.512',6.97
'0:09.516',6.82
'0:09.520',6.4
'0:09.523',5.85
'0:09.527',4.95
'0:09.531',5.26
'0:09.535',5.51
'0:09.539',4.36
'0:09.543',2.93
'0:09.547',2.01
'0:09.551',1.64
'0:09.555',1.5
'0:09.559',1.03
'0:09.563',0
'0:09.566',-0.92
'0:09.570',-0.63
'0:09.574',-0.15
'0:09.578',-0.28
'0:09.582',-0.16
'0:09.586',0.41
'0:09.590',0.2
'0:09.594',-0.7
'0:09.598',-1.55
'0:09.602',-2.17
'0:09.605',-3.11
'0:09.609',-3.75
'0:09.613',-3.68
'0:09.617',-3.49
'0:09.621',-3.63
'0:09.625',-4.19
'0:09.629',-4.61
'0:09.633',-4.7
'0:09.637',-4.7
'0:09.641',-4.96
'0:09.645',-5.43
'0:09.648',-5.6
'0:09.652',-5.67
'0:09.656',-5.27
'0:09.660',-4.8
'0:09.664',-5.33
'0:09.668',-5.23
'0:09.672',-4.58
'0:09.676',-4.58
'0:09.680',-4.9
'0:09.684',-4.84
'0:09.688',-3.73
'0:09.691',-1.68
'0:09.695',0.92
'0:09.699',3.81
'0:09.703',6.78
'0:09.707',8.02
'0:09.711',5.65
'0:09.715',0.56
'0:09.719',-5.15
'0:09.723',-9.63
'0:09.727',-12.1
'0:09.730',-12.45
'0:09.734',-11.14
'0:09.738',-8.83
'0:09.742',-6.34
'0:09.746',-4.56
'0:09.750',-3.49
'0:09.754',-2.78
'0:09.758',-2.2
'0:09.762',-1.84
'0:09.766',-1.68
'0:09.770',-1.63
'0:09.773',-1.34
'0:09.777',-0.78
'0:09.781',-0.25
'0:09.785',-0.22
'0:09.789',0.03
'0:09.793',0.39
'0:09.797',0.34
'0:09.801',-0.17
'0:09.805',-0.92
'0:09.809',-0.38
'0:09.813',1.09
'0:09.816',2.35
'0:09.820',2.93
'0:09.824',2.85
'0:09.828',2.58
'0:09.832',2.53
'0:09.836',2.54
'0:09.840',2.53
'0:09.844',2.53
'0:09.848',2.53
'0:09.852',3.26
'0:09.855',5.48
'0:09.859',4.9
'0:09.863',4.48
'0:09.867',4.24
'0:09.871',4.07
'0:09.875',4.28
'0:09.879',3.73
'0:09.883',3.26
'0:09.887',2.9
'0:09.891',2.17
'0:09.895',1.75
'0:09.898',1.37
'0:09.902',1.68
'0:09.906',2.09
'0:09.910',1.88
'0:09.914',2.1
'0:09.918',2
'0:09.922',2.02
'0:09.926',2.08
'0:09.930',1.47
'0:09.934',0.33
'0:09.938',-0.31
'0:09.941',-0.38
'0:09.945',-0.67
'0:09.949',-1.07
'0:09.953',-1.19
'0:09.957',-1.59
'0:09.961',-2.55
'0:09.965',-3.17
'0:09.969',-3.65
'0:09.973',-3.83
'0:09.977',-3.78
'0:09.980',-3.87
'0:09.984',-3.97
'0:09.988',-3.73
'0:09.992',-3.8
'0:09.996',-3.99
'0:10.000',-4.21
'0:10.004',-4.17
'0:10.008',-3.67
'0:10.012',-2.77
'0:10.016',-1.66
'0:10.020',-1.17
'0:10.023',-0.9
'0:10.027',-0.17
'0:10.031',1.31
'0:10.035',3.11
'0:10.039',4.63
'0:10.043',6.11
'0:10.047',6.07
'0:10.051',3.19
'0:10.055',-2.42
'0:10.059',-8.04
'0:10.063',-11.32
'0:10.066',-12.05
'0:10.070',-10.76
'0:10.074',-8.58
'0:10.078',-6.29
'0:10.082',-4.39
'0:10.086',-3
'0:10.090',-2.12
'0:10.094',-1.51
'0:10.098',-1.08
'0:10.102',-0.7
'0:10.105',-0.19
'0:10.109',0.22
'0:10.113',0.64
'0:10.117',0.96
'0:10.121',1.19
'0:10.125',1.49
'0:10.129',1.58
'0:10.133',1.56
'0:10.137',1.73
'0:10.141',1.95
'0:10.145',2.15
'0:10.148',2.47
'0:10.152',3.01
'0:10.156',3.48
'0:10.160',3.95
'0:10.164',4.77
'0:10.168',5.34
'0:10.172',4.95
'0:10.176',4.27
'0:10.180',3.84
'0:10.184',3.85
'0:10.188',4.44
'0:10.191',4.75
'0:10.195',4.04
'0:10.199',2.52
'0:10.203',1.66
'0:10.207',1.43
'0:10.211',1.17
'0:10.215',0.44
'0:10.219',0.35
'0:10.223',0.58
'0:10.227',0.29
'0:10.230',-0.48
'0:10.234',-0.87
'0:10.238',-0.37
'0:10.242',-0.24
'0:10.246',0.03
'0:10.250',0.9
'0:10.254',1.31
'0:10.258',1.2
'0:10.262',1.34
'0:10.266',1.84
'0:10.270',1.58
'0:10.273',1.17
'0:10.277',0.92
'0:10.281',0.13
'0:10.285',-0.6
'0:10.289',-1.02
'0:10.293',-1.97
'0:10.297',-2.84
'0:10.301',-2.9
'0:10.305',-3.02
'0:10.309',-3.18
'0:10.313',-3.41
'0:10.316',-3.82
'0:10.320',-3.55
'0:10.324',-1.96
'0:10.328',-0.68
'0:10.332',-0.83
'0:10.336',-1.46
'0:10.340',-2.26
'0:10.344',-2.9
'0:10.348',-2.85
'0:10.352',-2.7
'0:10.355',-2.25
'0:10.359',-1.46
'0:10.363',-0.09
'0:10.367',2.02
'0:10.371',4.38
'0:10.375',6.27
'0:10.379',8.76
'0:10.383',9.88
'0:10.387',6.97
'0:10.391',1.45
'0:10.395',-3.68
'0:10.398',-7.25
'0:10.402',-9.98
'0:10.406',-11.05
'0:10.410',-9.45
'0:10.414',-7.41
'0:10.418',-5.85
'0:10.422',-3.88
'0:10.426',-2.65
'0:10.430',-1.19
'0:10.434',0.39
'0:10.438',0.66
'0:10.441',0.11
'0:10.445',0.35
'0:10.449',1.2
'0:10.453',1.68
'0:10.457',1.99
'0:10.461',2.34
'0:10.465',2.62
'0:10.469',2.51
'0:10.473',2.53
'0:10.477',2.41
'0:10.480',2.08
'0:10.484',2.05
'0:10.488',2.46
'0:10.492',2.82
'0:10.496',2.58
'0:10.500',2.56
'0:10.504',3
'0:10.508',3.42
'0:10.512',3.67
'0:10.516',3.85
'0:10.520',4.14
'0:10.523',4.54
'0:10.527',4.72
'0:10.531',4.41
'0:10.535',3.71
'0:10.539',3.17
'0:10.543',2.96
'0:10.547',2.85
'0:10.551',2.68
'0:10.555',2.39
'0:10.559',1.93
'0:10.563',1.33
'0:10.566',1.22
'0:10.570',1.29
'0:10.574',1.22
'0:10.578',1.05
'0:10.582',1.26
'0:10.586',1.42
'0:10.590',1.39
'0:10.594',1.32
'0:10.598',1.05
'0:10.602',0.88
'0:10.605',0.86
'0:10.609',0.8
'0:10.613',0.33
'0:10.617',-0.41
'0:10.621',-1.21
'0:10.625',-2.02
'0:10.629',-2.68
'0:10.633',-2.87
'0:10.637',-2.77
'0:10.641',-3
'0:10.645',-3.23
'0:10.648',-3.19
'0:10.652',-3.21
'0:10.656',-2.94
'0:10.660',-3.09
'0:10.664',-3.33
'0:10.668',-3.41
'0:10.672',-3.7
'0:10.676',-3.5
'0:10.680',-2.6
'0:10.684',-1.7
'0:10.688',-1.72
'0:10.691',-1.85
'0:10.695',-0.54
'0:10.699',1.71
'0:10.703',3.68
'0:10.707',6.16
'0:10.711',14.03
'0:10.715',24.64
'0:10.719',22.2
'0:10.723',12.29
'0:10.727',2.2
'0:10.730',-4.66
'0:10.734',-9.77
'0:10.738',-12.28
'0:10.742',-12.15
'0:10.746',-10.75
'0:10.750',-9.3
'0:10.754',-7.91
'0:10.758',-6.28
'0:10.762',-5.48
'0:10.766',-5.25
'0:10.770',-3.88
'0:10.773',-2.65
'0:10.777',-2
'0:10.781',-2
'0:10.785',-1.71
'0:10.789',-1.78
'0:10.793',-1.63
'0:10.797',-0.73
'0:10.801',-0.37
'0:10.805',-0.96
'0:10.809',-0.29
'0:10.813',0.49
'0:10.816',0.37
'0:10.820',-0.09
'0:10.824',0.1
'0:10.828',0.82
'0:10.832',1.26
'0:10.836',1.4
'0:10.840',1.95
'0:10.844',2.51
'0:10.848',3.33
'0:10.852',4.26
'0:10.855',4.62
'0:10.859',4.82
'0:10.863',4.66
'0:10.867',4.46
'0:10.871',3.61
'0:10.875',2.29
'0:10.879',1.13
'0:10.883',0.46
'0:10.887',0.13
'0:10.891',-0.07
'0:10.895',-0.43
'0:10.898',-1.01
'0:10.902',-1.46
'0:10.906',-1.73
'0:10.910',-1.6
'0:10.914',-0.9
'0:10.918',-0.24
'0:10.922',0.03
'0:10.926',0.16
'0:10.930',0.3
'0:10.934',0.23
'0:10.938',-0.27
'0:10.941',-0.51
'0:10.945',-0.51
'0:10.949',-0.78
'0:10.953',-1.64
'0:10.957',-2.63
'0:10.961',-3.31
'0:10.965',-3.76
'0:10.969',-4.4
'0:10.973',-4.68
'0:10.977',-4.63
'0:10.980',-4.25
'0:10.984',-4.12
'0:10.988',-4.89
'0:10.992',-5.77
'0:10.996',-5.94
'0:11.000',-5.68
'0:11.004',-5.68
'0:11.008',-5.31
'0:11.012',-4.36
'0:11.016',-3.73
'0:11.020',-4.21
'0:11.023',-4.17
'0:11.027',-3.22
'0:11.031',-2.21
'0:11.035',0.33
'0:11.039',3.53
'0:11.043',6
'0:11.047',8.3
'0:11.051',9.28
'0:11.055',7.54
'0:11.059',3.65
'0:11.063',-2.02
'0:11.066',-7.3
'0:11.070',-10.85
'0:11.074',-12.12
'0:11.078',-11.47
'0:11.082',-9.2
'0:11.086',-6.08
'0:11.090',-3.4
'0:11.094',-1.64
'0:11.098',-1.21
'0:11.102',-1.17
'0:11.105',-0.84
'0:11.109',0.52
'0:11.113',1.46
'0:11.117',1.65
'0:11.121',1.65
'0:11.125',1.52
'0:11.129',1.51
'0:11.133',1.88
'0:11.137',1.9
'0:11.141',1.61
'0:11.145',2.06
'0:11.148',3
'0:11.152',3.72
'0:11.156',3.53
'0:11.160',3.27
'0:11.164',4.14
'0:11.168',5.2
'0:11.172',5.2
'0:11.176',5.34
'0:11.180',6.29
'0:11.184',7.33
'0:11.188',7.87
'0:11.191',7.99
'0:11.195',7.5
'0:11.199',6.99
'0:11.203',7.06
'0:11.207',6.96
'0:11.211',7.09
'0:11.215',6.95
'0:11.219',6.56
'0:11.223',6.17
'0:11.227',5.24
'0:11.230',4.24
'0:11.234',3.58
'0:11.238',3.27
'0:11.242',3.2
'0:11.246',3.36
'0:11.250',3.22
'0:11.254',3.08
'0:11.258',3.32
'0:11.262',3.46
'0:11.266',3.21
'0:11.270',2.46
'0:11.273',1.74
'0:11.277',1.44
'0:11.281',0.99
'0:11.285',-0.09
'0:11.289',-0.48
'0:11.293',-0.54
'0:11.297',-0.87
'0:11.301',-1.46
'0:11.305',-2.23
'0:11.309',-2.72
'0:11.313',-2.84
'0:11.316',-2.73
'0:11.320',-2.65
'0:11.324',-2.22
'0:11.328',-1.92
'0:11.332',-1.75
'0:11.336',-1.8
'0:11.340',-1.87
'0:11.344',-1.78
'0:11.348',-2.02
'0:11.352',-2.16
'0:11.355',-1.64
'0:11.359',-1.7
'0:11.363',-2.16
'0:11.367',-1.55
'0:11.371',0.4
'0:11.375',3.22
'0:11.379',5.77
'0:11.383',8.16
'0:11.387',9.4
'0:11.391',7.46
'0:11.395',2.88
'0:11.398',-3.13
'0:11.402',-8.64
'0:11.406',-12.29
'0:11.410',-13.07
'0:11.414',-11.71
'0:11.418',-9.64
'0:11.422',-7.77
'0:11.426',-6.12
'0:11.430',-4.41
'0:11.434',-2.82
'0:11.438',-1.51
'0:11.441',-0.44
'0:11.445',0
'0:11.449',-0.14
'0:11.453',-0.6
'0:11.457',-0.58
'0:11.461',-0.28
'0:11.465',0.15
'0:11.469',0.68
'0:11.473',0.79
'0:11.477',0.54
'0:11.480',0.35
'0:11.484',0.37
'0:11.488',0.63
'0:11.492',0.97
'0:11.496',1.1
'0:11.500',1.19
'0:11.504',1.56
'0:11.508',2.23
'0:11.512',2.8
'0:11.516',3.17
'0:11.520',3.61
'0:11.523',4.09
'0:11.527',4.46
'0:11.531',4.55
'0:11.535',4.41
'0:11.539',4.27
'0:11.543',4.1
'0:11.547',3.72
'0:11.551',3.19
'0:11.555',2.7
'0:11.559',2.24
'0:11.563',1.75
'0:11.566',1.24
'0:11.570',0.78
'0:11.574',0.56
'0:11.578',0.35
'0:11.582',0.05
'0:11.586',-0.06
'0:11.590',0.06
'0:11.594',0.35
'0:11.598',0.22
'0:11.602',-0.44
'0:11.605',-1.06
'0:11.609',-1.34
'0:11.613',-1.43
'0:11.617',-1.46
'0:11.621',-1.6
'0:11.625',-1.95
'0:11.629',-2.37
'0:11.633',-2.87
'0:11.637',-3.56
'0:11.641',-4.26
'0:11.645',-4.46
'0:11.648',-4.34
'0:11.652',-4.19
'0:11.656',-4.24
'0:11.660',-4.41
'0:11.664',-4.57
'0:11.668',-4.58
'0:11.672',-4.35
'0:11.676',-4
'0:11.680',-3.68
'0:11.684',-3.46
'0:11.688',-3.39
'0:11.691',-3.36
'0:11.695',-3.51
'0:11.699',-3.72
'0:11.703',-3.31
'0:11.707',-1.94
'0:11.711',-0.02
'0:11.715',2.19
'0:11.719',4.61
'0:11.723',7.04
'0:11.727',7.75
'0:11.730',4.96
'0:11.734',-0.41
'0:11.738',-6.35
'0:11.742',-10.95
'0:11.746',-13.67
'0:11.750',-14.14
'0:11.754',-12.77
'0:11.758',-10.54
'0:11.762',-8.22
'0:11.766',-6.17
'0:11.770',-4.68
'0:11.773',-3.88
'0:11.777',-3.48
'0:11.781',-2.87
'0:11.785',-2.07
'0:11.789',-1.37
'0:11.793',-0.98
'0:11.797',-0.56
'0:11.801',-0.24
'0:11.805',-0.08
'0:11.809',-0.09
'0:11.813',-0.26
'0:11.816',-0.12
'0:11.820',0.37
'0:11.824',0.83
'0:11.828',1.22
'0:11.832',1.68
'0:11.836',2.27
'0:11.840',2.85
'0:11.844',3.44
'0:11.848',4.03
'0:11.852',4.55
'0:11.855',5.12
'0:11.859',5.73
'0:11.863',5.92
'0:11.867',5.8
'0:11.871',5.68
'0:11.875',6.03
'0:11.879',6.65
'0:11.883',6.43
'0:11.887',5.64
'0:11.891',4.94
'0:11.895',3.75
'0:11.898',2.1
'0:11.902',1.15
'0:11.906',1.58
'0:11.910',2.43
'0:11.914',2.09
'0:11.918',1.63
'0:11.922',1.59
'0:11.926',1.24
'0:11.930',0.51
'0:11.934',0.03
'0:11.938',0.22
'0:11.941',0.56
'0:11.945',0.49
'0:11.949',-0.23
'0:11.953',-1.14
'0:11.957',-1.22
'0:11.961',-1.48
'0:11.965',-1.83
'0:11.969',-2.1
'0:11.973',-2.34
'0:11.977',-2.85
'0:11.980',-3.51
'0:11.984',-3.58
'0:11.988',-3.29
'0:11.992',-3.04
'0:11.996',-3.2
'0:12.000',-3.51
'0:12.004',-3.95
'0:12.008',-3.92
'0:12.012',-3.38
'0:12.016',-2.75
'0:12.020',-2.41
'0:12.023',-2.55
'0:12.027',-2.38
'0:12.031',-1.53
'0:12.035',0.5
'0:12.039',3.2
'0:12.043',5.87
'0:12.047',8.28
'0:12.051',9.46
'0:12.055',7.64
'0:12.059',2.92
'0:12.063',-2.16
'0:12.066',-5.95
'0:12.070',-8.74
'0:12.074',-10.05
'0:12.078',-9.29
'0:12.082',-7.26
'0:12.086',-5.55
'0:12.090',-3.74
'0:12.094',-1.83
'0:12.098',-0.46
'0:12.102',0.01
'0:12.105',0.28
'0:12.109',0.93
'0:12.113',1.36
'0:12.117',1.07
'0:12.121',1.42
'0:12.125',2.47
'0:12.129',2.9
'0:12.133',2.83
'0:12.137',2.87
'0:12.141',2.53
'0:12.145',1.56
'0:12.148',1.51
'0:12.152',2.03
'0:12.156',2.64
'0:12.160',3.14
'0:12.164',3.39
'0:12.168',3.73
'0:12.172',4.2
'0:12.176',4.73
'0:12.180',5.65
'0:12.184',6.5
'0:12.188',6.55
'0:12.191',6.09
'0:12.195',5.83
'0:12.199',6.11
'0:12.203',6.95
'0:12.207',7.28
'0:12.211',6.49
'0:12.215',5.55
'0:12.219',4.73
'0:12.223',3.98
'0:12.227',3.34
'0:12.230',3.08
'0:12.234',2.9
'0:12.238',2.36
'0:12.242',1.58
'0:12.246',1.03
'0:12.250',0.85
'0:12.254',0.91
'0:12.258',1.09
'0:12.262',1.46
'0:12.266',1.97
'0:12.270',2.38
'0:12.273',2.85
'0:12.277',2.61
'0:12.281',2.26
'0:12.285',2.19
'0:12.289',2
'0:12.293',1.72
'0:12.297',1
'0:12.301',0.07
'0:12.305',-0.56
'0:12.309',-1.1
'0:12.313',-1.56
'0:12.316',-1.92
'0:12.320',-2.28
'0:12.324',-2.62
'0:12.328',-2.6
'0:12.332',-2.73
'0:12.336',-3.08
'0:12.340',-2.78
'0:12.344',-2.41
'0:12.348',-2.34
'0:12.352',-2.32
'0:12.355',-2.27
'0:12.359',-2.31
'0:12.363',-2.22
'0:12.367',-1.95
'0:12.371',-1.85
'0:12.375',-1.92
'0:12.379',-1.4
'0:12.383',0.2
'0:12.387',2.37
'0:12.391',4.68
'0:12.395',7.19
'0:12.398',9.47
'0:12.402',9.72
'0:12.406',6.25
'0:12.410',0.25
'0:12.414',-5.58
'0:12.418',-9.86
'0:12.422',-12.07
'0:12.426',-12.15
'0:12.430',-10.64
'0:12.434',-8.53
'0:12.438',-6.43
'0:12.441',-4.78
'0:12.445',-3.58
'0:12.449',-2.7
'0:12.453',-2.15
'0:12.457',-1.77
'0:12.461',-1.44
'0:12.465',-1.17
'0:12.469',-0.95
'0:12.473',-0.67
'0:12.477',-0.41
'0:12.480',-0.23
'0:12.484',0.05
'0:12.488',0.27
'0:12.492',0.44
'0:12.496',0.47
'0:12.500',0.42
'0:12.504',0.57
'0:12.508',1.04
'0:12.512',1.47
'0:12.516',1.74
'0:12.520',2.02
'0:12.523',2.56
'0:12.527',3.1
'0:12.531',3.47
'0:12.535',3.78
'0:12.539',4.05
'0:12.543',4.24
'0:12.547',4.31
'0:12.551',4.21
'0:12.555',4
'0:12.559',3.72
'0:12.563',3.24
'0:12.566',2.73
'0:12.570',2.2
'0:12.574',1.75
'0:12.578',1.27
'0:12.582',0.74
'0:12.586',0.49
'0:12.590',0.43
'0:12.594',0.29
'0:12.598',0.2
'0:12.602',0.22
'0:12.605',0.36
'0:12.609',0.49
'0:12.613',0.61
'0:12.617',0.63
'0:12.621',0.44
'0:12.625',0.2
'0:12.629',-0.22
'0:12.633',-0.66
'0:12.637',-1.22
'0:12.641',-1.84
'0:12.645',-2.31
'0:12.648',-2.66
'0:12.652',-2.75
'0:12.656',-2.92
'0:12.660',-3.31
'0:12.664',-3.55
'0:12.668',-3.41
'0:12.672',-3.31
'0:12.676',-3.56
'0:12.680',-3.85
'0:12.684',-3.83
'0:12.688',-3.58
'0:12.691',-3.21
'0:12.695',-2.58
'0:12.699',-2.12
'0:12.703',-2.24
'0:12.707',-2.82
'0:12.711',-2.91
'0:12.715',-2.28
'0:12.719',-0.65
'0:12.723',1.53
'0:12.727',3.59
'0:12.730',5.66
'0:12.734',7.32
'0:12.738',6.74
'0:12.742',4.27
'0:12.746',-0.13
'0:12.750',-5.28
'0:12.754',-9.23
'0:12.758',-11.36
'0:12.762',-11.27
'0:12.766',-9.61
'0:12.770',-7.4
'0:12.773',-5.45
'0:12.777',-3.85
'0:12.781',-2.52
'0:12.785',-1.45
'0:12.789',-0.83
'0:12.793',-0.43
'0:12.797',-0.27
'0:12.801',-0.23
'0:12.805',-0.11
'0:12.809',0.35
'0:12.813',0.76
'0:12.816',1.05
'0:12.820',1.17
'0:12.824',1.2
'0:12.828',1.2
'0:12.832',1.41
'0:12.836',1.62
'0:12.840',1.78
'0:12.844',1.81
'0:12.848',1.93
'0:12.852',2.29
'0:12.855',2.8
'0:12.859',3.31
'0:12.863',3.85
'0:12.867',4.39
'0:12.871',4.77
'0:12.875',5.14
'0:12.879',5.43
'0:12.883',5.41
'0:12.887',5.14
'0:12.891',4.75
'0:12.895',4.36
'0:12.898',4.01
'0:12.902',3.49
'0:12.906',2.8
'0:12.910',2.04
'0:12.914',1.05
'0:12.918',0.35
'0:12.922',0.1
'0:12.926',-0.29
'0:12.930',-0.73
'0:12.934',-0.78
'0:12.938',-0.68
'0:12.941',-0.41
'0:12.945',0.08
'0:12.949',0.52
'0:12.953',0.41
'0:12.957',-0.24
'0:12.961',-0.94
'0:12.965',-1.51
'0:12.969',-1.67
'0:12.973',-1.49
'0:12.977',-1.59
'0:12.980',-2.2
'0:12.984',-3.05
'0:12.988',-3.68
'0:12.992',-4.09
'0:12.996',-4.39
'0:13.000',-4.44
'0:13.004',-4.41
'0:13.008',-4.37
'0:13.012',-4.23
'0:13.016',-3.97
'0:13.020',-3.73
'0:13.023',-3.56
'0:13.027',-3.36
'0:13.031',-3.17
'0:13.035',-3.09
'0:13.039',-2.98
'0:13.043',-2.75
'0:13.047',-2.63
'0:13.051',-2.55
'0:13.055',-1.99
'0:13.059',-0.7
'0:13.063',1.37
'0:13.066',3.81
'0:13.070',6.32
'0:13.074',8.67
'0:13.078',9.19
'0:13.082',6.47
'0:13.086',1.18
'0:13.090',-4.39
'0:13.094',-8.67
'0:13.098',-11.3
'0:13.102',-11.9
'0:13.105',-10.44
'0:13.109',-7.67
'0:13.113',-5.19
'0:13.117',-3.58
'0:13.121',-2.51
'0:13.125',-1.39
'0:13.129',-0.51
'0:13.133',-0.28
'0:13.137',0.05
'0:13.141',0.41
'0:13.145',0.47
'0:13.148',0.68
'0:13.152',1.1
'0:13.156',1.62
'0:13.160',2.03
'0:13.164',2.35
'0:13.168',2.37
'0:13.172',2.25
'0:13.176',2.57
'0:13.180',3.15
'0:13.184',3.53
'0:13.188',3.78
'0:13.191',3.8
'0:13.195',4.24
'0:13.199',4.95
'0:13.203',4.84
'0:13.207',4.71
'0:13.211',4.9
'0:13.215',5.68
'0:13.219',6.11
'0:13.223',5.6
'0:13.227',5.29
'0:13.230',5.46
'0:13.234',5.1
'0:13.238',4.41
'0:13.242',3.82
'0:13.246',2.87
'0:13.250',2.11
'0:13.254',1.68
'0:13.258',1.03
'0:13.262',0.28
'0:13.266',0.01
'0:13.270',0.02
'0:13.273',-0.19
'0:13.277',-0.46
'0:13.281',-0.26
'0:13.285',0.66
'0:13.289',1.09
'0:13.293',0.7
'0:13.297',0.39
'0:13.301',0.12
'0:13.305',0.03
'0:13.309',-0.17
'0:13.313',-0.7
'0:13.316',-1.32
'0:13.320',-1.97
'0:13.324',-2.68
'0:13.328',-3.48
'0:13.332',-4.36
'0:13.336',-5.17
'0:13.340',-5.75
'0:13.344',-5.79
'0:13.348',-5.33
'0:13.352',-4.89
'0:13.355',-4.65
'0:13.359',-4.56
'0:13.363',-4.56
'0:13.367',-4.48
'0:13.371',-4.18
'0:13.375',-3.77
'0:13.379',-3.58
'0:13.383',-3.7
'0:13.387',-3.87
'0:13.391',-3.31
'0:13.395',-2.48
'0:13.398',-1.43
'0:13.402',0.7
'0:13.406',3.28
'0:13.410',5.73
'0:13.414',8.14
'0:13.418',8.82
'0:13.422',5.78
'0:13.426',0.38
'0:13.430',-4.91
'0:13.434',-8.92
'0:13.438',-11.3
'0:13.441',-11.88
'0:13.445',-10.61
'0:13.449',-8.13
'0:13.453',-5.79
'0:13.457',-3.87
'0:13.461',-2.19
'0:13.465',-1.34
'0:13.469',-0.99
'0:13.473',-0.52
'0:13.477',0.17
'0:13.480',0.66
'0:13.484',0.65
'0:13.488',0.4
'0:13.492',0.42
'0:13.496',0.73
'0:13.500',0.83
'0:13.504',0.92
'0:13.508',1.09
'0:13.512',1.22
'0:13.516',1.61
'0:13.520',2.35
'0:13.523',3.01
'0:13.527',3.46
'0:13.531',3.78
'0:13.535',4.05
'0:13.539',4.53
'0:13.543',4.92
'0:13.547',5.38
'0:13.551',5.63
'0:13.555',5.8
'0:13.559',6.27
'0:13.563',6.87
'0:13.566',6.87
'0:13.570',5.77
'0:13.574',4.68
'0:13.578',4.22
'0:13.582',4.06
'0:13.586',3.8
'0:13.590',2.87
'0:13.594',2.08
'0:13.598',1.85
'0:13.602',1.64
'0:13.605',1.37
'0:13.609',1.14
'0:13.613',1.08
'0:13.617',1.44
'0:13.621',1.46
'0:13.625',1.14
'0:13.629',0.78
'0:13.633',0.68
'0:13.637',0.58
'0:13.641',0.37
'0:13.645',0.07
'0:13.648',-0.49
'0:13.652',-1.42
'0:13.656',-2.21
'0:13.660',-2.68
'0:13.664',-2.94
'0:13.668',-2.87
'0:13.672',-2.82
'0:13.676',-3.42
'0:13.680',-3.97
'0:13.684',-3.87
'0:13.688',-3.41
'0:13.691',-3.03
'0:13.695',-3.07
'0:13.699',-2.94
'0:13.703',-2.63
'0:13.707',-2.27
'0:13.711',-2.29
'0:13.715',-2.77
'0:13.719',-3.02
'0:13.723',-2.64
'0:13.727',-1.9
'0:13.730',-0.86
'0:13.734',1.11
'0:13.738',3.7
'0:13.742',6.42
'0:13.746',8.2
'0:13.750',6.96
'0:13.754',2.66
'0:13.758',-2.99
'0:13.762',-7.94
'0:13.766',-11.14
'0:13.770',-12.17
'0:13.773',-11.18
'0:13.777',-8.77
'0:13.781',-6.05
'0:13.785',-4.18
'0:13.789',-3.16
'0:13.793',-2.52
'0:13.797',-2
'0:13.801',-1.58
'0:13.805',-1.19
'0:13.809',-0.78
'0:13.813',-0.46
'0:13.816',-0.09
'0:13.820',0.2
'0:13.824',0.39
'0:13.828',0.54
'0:13.832',0.94
'0:13.836',1.36
'0:13.840',1.46
'0:13.844',1.42
'0:13.848',1.46
'0:13.852',1.69
'0:13.855',2.18
'0:13.859',2.74
'0:13.863',3.37
'0:13.867',4.05
'0:13.871',4.66
'0:13.875',5.11
'0:13.879',5.48
'0:13.883',5.61
'0:13.887',5.68
'0:13.891',5.82
'0:13.895',5.83
'0:13.898',5.62
'0:13.902',5.36
'0:13.906',4.99
'0:13.910',4.43
'0:13.914',3.67
'0:13.918',3.02
'0:13.922',2.32
'0:13.926',1.51
'0:13.930',0.85
'0:13.934',0.57
'0:13.938',0.49
'0:13.941',0.58
'0:13.945',0.63
'0:13.949',0.78
'0:13.953',0.95
'0:13.957',1.05
'0:13.961',1.14
'0:13.965',1.21
'0:13.969',1.17
'0:13.973',1.37
'0:13.977',1.46
'0:13.980',1.19
'0:13.984',0.9
'0:13.988',0.75
'0:13.992',0.35
'0:13.996',-0.25
'0:14.000',-1.03
'0:14.004',-1.94
'0:14.008',-2.93
'0:14.012',-3.49
'0:14.016',-3.32
'0:14.020',-3.13
'0:14.023',-3.38
'0:14.027',-3.38
'0:14.031',-3.08
'0:14.035',-2.85
'0:14.039',-2.68
'0:14.043',-2.78
'0:14.047',-2.7
'0:14.051',-2.38
'0:14.055',-1.85
'0:14.059',-1.93
'0:14.063',-1.74
'0:14.066',-1.19
'0:14.070',-0.56
'0:14.074',1.01
'0:14.078',3.27
'0:14.082',5.83
'0:14.086',8.8
'0:14.090',10.74
'0:14.094',9.82
'0:14.098',5.45
'0:14.102',-0.71
'0:14.105',-6.51
'0:14.109',-10.65
'0:14.113',-12.32
'0:14.117',-11.62
'0:14.121',-9.78
'0:14.125',-7.23
'0:14.129',-4.75
'0:14.133',-3.26
'0:14.137',-2.62
'0:14.141',-2.01
'0:14.145',-1.33
'0:14.148',-0.65
'0:14.152',-0.04
'0:14.156',0.61
'0:14.160',0.81
'0:14.164',0.71
'0:14.168',1.25
'0:14.172',1.64
'0:14.176',1.55
'0:14.180',1.21
'0:14.184',1.17
'0:14.188',1.2
'0:14.191',0.91
'0:14.195',1.51
'0:14.199',2.69
'0:14.203',3.24
'0:14.207',3.12
'0:14.211',3.07
'0:14.215',3.4
'0:14.219',3.83
'0:14.223',3.93
'0:14.227',4.1
'0:14.230',4.42
'0:14.234',4.63
'0:14.238',4.55
'0:14.242',4.46
'0:14.246',4.11
'0:14.250',3.23
'0:14.254',2.32
'0:14.258',1.39
'0:14.262',0.6
'0:14.266',0.24
'0:14.270',-0.12
'0:14.273',-0.58
'0:14.277',-0.88
'0:14.281',-0.9
'0:14.285',-0.6
'0:14.289',-0.26
'0:14.293',-0.08
'0:14.297',0.08
'0:14.301',0.34
'0:14.305',0.51
'0:14.309',0.41
'0:14.313',0.16
'0:14.316',-0.13
'0:14.320',-0.41
'0:14.324',-0.56
'0:14.328',-0.76
'0:14.332',-1.12
'0:14.336',-1.72
'0:14.340',-2.4
'0:14.344',-3.03
'0:14.348',-3.47
'0:14.352',-3.73
'0:14.355',-4.14
'0:14.359',-4.44
'0:14.363',-4.53
'0:14.367',-4.36
'0:14.371',-4.1
'0:14.375',-3.85
'0:14.379',-3.48
'0:14.383',-3.15
'0:14.387',-3.01
'0:14.391',-2.82
'0:14.395',-2.49
'0:14.398',-2.33
'0:14.402',-2.51
'0:14.406',-2.56
'0:14.410',-1.98
'0:14.414',-0.5
'0:14.418',1.73
'0:14.422',4.19
'0:14.426',6.77
'0:14.430',8.76
'0:14.434',8.3
'0:14.438',4.33
'0:14.441',-1.56
'0:14.445',-6.84
'0:14.449',-10.37
'0:14.453',-12.01
'0:14.457',-11.69
'0:14.461',-9.92
'0:14.465',-7.6
'0:14.469',-5.45
'0:14.473',-3.64
'0:14.477',-2.28
'0:14.480',-1.53
'0:14.484',-1.26
'0:14.488',-0.87
'0:14.492',-0.51
'0:14.496',-0.22
'0:14.500',0.13
'0:14.504',0.29
'0:14.508',0.37
'0:14.512',0.49
'0:14.516',0.69
'0:14.520',0.88
'0:14.523',1.01
'0:14.527',1.26
'0:14.531',1.65
'0:14.535',2.13
'0:14.539',2.52
'0:14.543',2.86
'0:14.547',3.36
'0:14.551',3.96
'0:14.555',4.48
'0:14.559',4.91
'0:14.563',5.34
'0:14.566',5.63
'0:14.570',5.77
'0:14.574',5.78
'0:14.578',5.78
'0:14.582',5.69
'0:14.586',5.5
'0:14.590',5.3
'0:14.594',4.89
'0:14.598',4.25
'0:14.602',3.54
'0:14.605',2.81
'0:14.609',2.11
'0:14.613',1.66
'0:14.617',1.48
'0:14.621',1.31
'0:14.625',1.16
'0:14.629',0.96
'0:14.633',0.82
'0:14.637',0.73
'0:14.641',0.82
'0:14.645',0.73
'0:14.648',0.49
'0:14.652',0.29
'0:14.656',-0.04
'0:14.660',-0.6
'0:14.664',-1.22
'0:14.668',-1.94
'0:14.672',-2.52
'0:14.676',-3.03
'0:14.680',-3.48
'0:14.684',-3.74
'0:14.688',-3.99
'0:14.691',-4.13
'0:14.695',-4.09
'0:14.699',-4
'0:14.703',-3.87
'0:14.707',-3.64
'0:14.711',-3.27
'0:14.715',-2.96
'0:14.719',-2.74
'0:14.723',-2.67
'0:14.727',-2.58
'0:14.730',-2.51
'0:14.734',-2.58
'0:14.738',-2.4
'0:14.742',-1.46
'0:14.746',0.38
'0:14.750',2.92
'0:14.754',5.49
'0:14.758',7.82
'0:14.762',8.68
'0:14.766',8.13
'0:14.770',8.14
'0:14.773',8.13
'0:14.777',8.14
'0:14.781',-11.28
'0:14.785',-11.93
'0:14.789',-10.4
'0:14.793',-7.76
'0:14.797',-5.37
'0:14.801',-3.66
'0:14.805',-2.46
'0:14.809',-1.54
'0:14.813',-0.86
'0:14.816',-0.34
'0:14.820',0.09
'0:14.824',0.5
'0:14.828',0.72
'0:14.832',0.85
'0:14.836',0.85
'0:14.840',0.86
'0:14.844',1.73
'0:14.848',2.17
'0:14.852',2.29
'0:14.855',2.26
'0:14.859',2.32
'0:14.863',2.55
'0:14.867',2.87
'0:14.871',3.25
'0:14.875',3.77
'0:14.879',4.28
'0:14.883',4.91
'0:14.887',5.5
'0:14.891',6.05
'0:14.895',6.43
'0:14.898',6.55
'0:14.902',6.32
'0:14.906',6.11
'0:14.910',6.09
'0:14.914',5.94
'0:14.918',5.37
'0:14.922',4.47
'0:14.926',3.39
'0:14.930',2.32
'0:14.934',1.65
'0:14.938',1.36
'0:14.941',0.86
'0:14.945',0.31
'0:14.949',0.29
'0:14.953',0.4
'0:14.957',0.67
'0:14.961',0.98
'0:14.965',0.99
'0:14.969',0.81
'0:14.973',0.84
'0:14.977',1.11
'0:14.980',1.28
'0:14.984',1.04
'0:14.988',0.73
'0:14.992',0.56
'0:14.996',0.43
'0:15.000',0.11
'0:15.004',-0.31
'0:15.008',-0.94
'0:15.012',-1.52
'0:15.016',-1.88
'0:15.020',-2.2
'0:15.023',-2.33
'0:15.027',-2.61
'0:15.031',-2.87
'0:15.035',-3.16
'0:15.039',-3.21
'0:15.043',-3.06
'0:15.047',-2.8
'0:15.051',-2.55
'0:15.055',-2.2
'0:15.059',-1.67
'0:15.063',-1.46
'0:15.066',-1.55
'0:15.070',-1.75
'0:15.074',-1.97
'0:15.078',-1.64
'0:15.082',-0.95
'0:15.086',0.58
'0:15.090',2.89
'0:15.094',5.42
'0:15.098',7.76
'0:15.102',9.78
'0:15.105',10.11
'0:15.109',6.36
'0:15.113',0.14
'0:15.117',-5.83
'0:15.121',-9.7
'0:15.125',-11.52
'0:15.129',-11.43
'0:15.133',-9.86
'0:15.137',-7.51
'0:15.141',-5.21
'0:15.145',-3.58
'0:15.148',-2.52
'0:15.152',-2.15
'0:15.156',-1.86
'0:15.160',-1.08
'0:15.164',0.04
'0:15.168',0.39
'0:15.172',0.08
'0:15.176',0.04
'0:15.180',0.08
'0:15.184',0.15
'0:15.188',0.55
'0:15.191',0.91
'0:15.195',0.98
'0:15.199',0.96
'0:15.203',1.05
'0:15.207',1.32
'0:15.211',1.66
'0:15.215',2.19
'0:15.219',2.85
'0:15.223',3.52
'0:15.227',3.98
'0:15.230',4.36
'0:15.234',4.61
'0:15.238',4.71
'0:15.242',4.82
'0:15.246',4.9
'0:15.250',4.87
'0:15.254',4.66
'0:15.258',4.31
'0:15.262',3.75
'0:15.266',3.03
'0:15.270',2.24
'0:15.273',1.43
'0:15.277',0.76
'0:15.281',0.4
'0:15.285',0.09
'0:15.289',-0.19
'0:15.293',-0.32
'0:15.297',-0.14
'0:15.301',0.16
'0:15.305',0.32
'0:15.309',0.39
'0:15.313',0.6
'0:15.316',0.96
'0:15.320',1.39
'0:15.324',1.26
'0:15.328',0.63
'0:15.332',0.23
'0:15.336',-0.18
'0:15.340',-1.05
'0:15.344',-1.91
'0:15.348',-2.31
'0:15.352',-2.69
'0:15.355',-3.34
'0:15.359',-3.84
'0:15.363',-4.03
'0:15.367',-4.08
'0:15.371',-4.09
'0:15.375',-4.09
'0:15.379',-4.14
'0:15.383',-4.21
'0:15.387',-4.27
'0:15.391',-4.03
'0:15.395',-3.59
'0:15.398',-3.18
'0:15.402',-2.95
'0:15.406',-3.08
'0:15.410',-3.06
'0:15.414',-2.95
'0:15.418',-2.74
'0:15.422',-2.27
'0:15.426',-1.2
'0:15.430',0.83
'0:15.434',3
'0:15.438',4.56
'0:15.441',6.97
'0:15.445',8.6
'0:15.449',7.32
'0:15.453',2.75
'0:15.457',-3.36
'0:15.461',-8.52
'0:15.465',-11.45
'0:15.469',-11.99
'0:15.473',-10.84
'0:15.477',-8.79
'0:15.480',-6.67
'0:15.484',-4.66
'0:15.488',-3.07
'0:15.492',-2.08
'0:15.496',-1.45
'0:15.500',-1.04
'0:15.504',-0.71
'0:15.508',-0.16
'0:15.512',0.31
'0:15.516',0.37
'0:15.520',0.34
'0:15.523',0.43
'0:15.527',0.61
'0:15.531',0.94
'0:15.535',1.37
'0:15.539',1.64
'0:15.543',1.61
'0:15.547',1.73
'0:15.551',2.24
'0:15.555',2.96
'0:15.559',3.62
'0:15.563',4.11
'0:15.566',4.44
'0:15.570',4.63
'0:15.574',5.09
'0:15.578',5.74
'0:15.582',6.04
'0:15.586',5.73
'0:15.590',5.16
'0:15.594',4.82
'0:15.598',4.78
'0:15.602',4.46
'0:15.605',3.84
'0:15.609',3.21
'0:15.613',2.5
'0:15.617',1.93
'0:15.621',1.5
'0:15.625',1.12
'0:15.629',0.82
'0:15.633',0.3
'0:15.637',-0.15
'0:15.641',-0.2
'0:15.645',0.23
'0:15.648',0.53
'0:15.652',0.54
'0:15.656',0.41
'0:15.660',0.09
'0:15.664',-0.23
'0:15.668',-0.51
'0:15.672',-0.81
'0:15.676',-1.33
'0:15.680',-1.92
'0:15.684',-2.39
'0:15.688',-2.92
'0:15.691',-3.27
'0:15.695',-3.7
'0:15.699',-4.02
'0:15.703',-4.14
'0:15.707',-4.16
'0:15.711',-4.21
'0:15.715',-4.1
'0:15.719',-3.92
'0:15.723',-3.79
'0:15.727',-3.65
'0:15.730',-3.61
'0:15.734',-3.51
'0:15.738',-3.58
'0:15.742',-3.3
'0:15.746',-2.89
'0:15.750',-3
'0:15.754',-3.24
'0:15.758',-2.54
'0:15.762',-0.77
'0:15.766',1.59
'0:15.770',4.01
'0:15.773',6.42
'0:15.777',7.98
'0:15.781',6.91
'0:15.785',2.87
'0:15.789',-2.68
'0:15.793',-7.73
'0:15.797',-11.11
'0:15.801',-12.47
'0:15.805',-11.67
'0:15.809',-9.46
'0:15.813',-6.76
'0:15.816',-4.52
'0:15.820',-3.1
'0:15.824',-2.04
'0:15.828',-1.27
'0:15.832',-0.96
'0:15.836',-0.7
'0:15.840',-0.23
'0:15.844',0.19
'0:15.848',0.69
'0:15.852',0.95
'0:15.855',0.82
'0:15.859',0.69
'0:15.863',0.98
'0:15.867',1.25
'0:15.871',1.34
'0:15.875',1.5
'0:15.879',2.06
'0:15.883',2.7
'0:15.887',3.2
'0:15.891',3.64
'0:15.895',3.98
'0:15.898',4.37
'0:15.902',4.83
'0:15.906',5.36
'0:15.910',5.86
'0:15.914',5.91
'0:15.918',5.72
'0:15.922',5.75
'0:15.926',5.8
'0:15.930',5.65
'0:15.934',5.35
'0:15.938',4.98
'0:15.941',4.62
'0:15.945',4
'0:15.949',3.32
'0:15.953',2.43
'0:15.957',1.44
'0:15.961',0.91
'0:15.965',0.87
'0:15.969',0.98
'0:15.973',0.8
'0:15.977',0.5
'0:15.980',0.37
'0:15.984',0.62
'0:15.988',0.86
'0:15.992',1
'0:15.996',1.37
'0:16.000',1.51
'0:16.004',1.48
'0:16.008',1.39
'0:16.012',1.3
'0:16.016',1.05
'0:16.020',0.54
'0:16.023',-0.45
'0:16.027',-1.25
'0:16.031',-1.73
'0:16.035',-2
'0:16.039',-2.31
'0:16.043',-2.62
'0:16.047',-3
'0:16.051',-2.95
'0:16.055',-3.07
'0:16.059',-3.12
'0:16.063',-3.25
'0:16.066',-3.35
'0:16.070',-3.18
'0:16.074',-3.11
'0:16.078',-3.31
'0:16.082',-3.21
'0:16.086',-2.38
'0:16.090',-1.6
'0:16.094',-1.66
'0:16.098',-2.05
'0:16.102',-1.68
'0:16.105',-0.36
'0:16.109',1.45
'0:16.113',3.71
'0:16.117',6.33
'0:16.121',8.76
'0:16.125',9.22
'0:16.129',5.86
'0:16.133',-0.11
'0:16.137',-5.76
'0:16.141',-9.71
'0:16.145',-11.8
'0:16.148',-11.96
'0:16.152',-10.49
'0:16.156',-8.05
'0:16.160',-5.65
'0:16.164',-3.99
'0:16.168',-3.22
'0:16.172',-2.71
'0:16.176',-2.08
'0:16.180',-1.44
'0:16.184',-0.99
'0:16.188',-0.7
'0:16.191',-0.4
'0:16.195',-0.01
'0:16.199',0.35
'0:16.203',0.51
'0:16.207',0.51
'0:16.211',0.61
'0:16.215',0.7
'0:16.219',0.93
'0:16.223',1.21
'0:16.227',1.52
'0:16.230',1.98
'0:16.234',2.64
'0:16.238',3.28
'0:16.242',3.79
'0:16.246',4.46
'0:16.250',5.13
'0:16.254',5.14
'0:16.258',4.74
'0:16.262',4.53
'0:16.266',4.7
'0:16.270',4.9
'0:16.273',4.95
'0:16.277',4.69
'0:16.281',4.17
'0:16.285',3.59
'0:16.289',2.65
'0:16.293',1.64
'0:16.297',0.88
'0:16.301',0.2
'0:16.305',-0.27
'0:16.309',-0.48
'0:16.313',-0.38
'0:16.316',-0.08
'0:16.320',0.18
'0:16.324',0.23
'0:16.328',0.33
'0:16.332',0.74
'0:16.336',1.08
'0:16.340',1
'0:16.344',0.65
'0:16.348',0.21
'0:16.352',-0.25
'0:16.355',-0.74
'0:16.359',-1.2
'0:16.363',-1.64
'0:16.367',-2.06
'0:16.371',-2.47
'0:16.375',-2.84
'0:16.379',-3.19
'0:16.383',-3.47
'0:16.387',-3.68
'0:16.391',-3.73
'0:16.395',-3.75
'0:16.398',-3.62
'0:16.402',-3.34
'0:16.406',-3.24
'0:16.410',-3.21
'0:16.414',-2.94
'0:16.418',-2.75
'0:16.422',-2.75
'0:16.426',-2.75
'0:16.430',-1.86
'0:16.434',-2.43
'0:16.438',-3.1
'0:16.441',-2.89
'0:16.445',-1.5
'0:16.449',0.73
'0:16.453',3.39
'0:16.457',5.89
'0:16.461',8.31
'0:16.465',9.21
'0:16.469',6.72
'0:16.473',1.6
'0:16.477',-4.08
'0:16.480',-8.26
'0:16.484',-10.56
'0:16.488',-11.31
'0:16.492',-10.5
'0:16.496',-8.36
'0:16.500',-5.76
'0:16.504',-3.91
'0:16.508',-2.93
'0:16.512',-2.08
'0:16.516',-1.28
'0:16.520',-0.91
'0:16.523',-0.74
'0:16.527',-0.11
'0:16.531',0.71
'0:16.535',0.97
'0:16.539',0.91
'0:16.543',0.94
'0:16.547',1.08
'0:16.551',1.3
'0:16.555',1.52
'0:16.559',1.74
'0:16.563',2.29
'0:16.566',2.83
'0:16.570',2.98
'0:16.574',3.18
'0:16.578',3.44
'0:16.582',3.72
'0:16.586',4.26
'0:16.590',4.91
'0:16.594',5.47
'0:16.598',5.79
'0:16.602',6.1
'0:16.605',6.06
'0:16.609',5.79
'0:16.613',5.77
'0:16.617',5.75
'0:16.621',5.44
'0:16.625',4.73
'0:16.629',3.99
'0:16.633',3.34
'0:16.637',2.62
'0:16.641',2.01
'0:16.645',1.67
'0:16.648',1.15
'0:16.652',0.68
'0:16.656',0.6
'0:16.660',0.83
'0:16.664',1.26
'0:16.668',1.84
'0:16.672',1.73
'0:16.676',0.95
'0:16.680',0.58
'0:16.684',0.46
'0:16.688',0.24
'0:16.691',0.17
'0:16.695',0.07
'0:16.699',-0.31
'0:16.703',-0.74
'0:16.707',-1.21
'0:16.711',-1.8
'0:16.715',-2.53
'0:16.719',-3.06
'0:16.723',-3.34
'0:16.727',-3.48
'0:16.730',-3.36
'0:16.734',-3.31
'0:16.738',-3.37
'0:16.742',-3.33
'0:16.746',-3.16
'0:16.750',-2.94
'0:16.754',-2.5
'0:16.758',-2.09
'0:16.762',-1.95
'0:16.766',-2.04
'0:16.770',-2.12
'0:16.773',-2.17
'0:16.777',-2.06
'0:16.781',-1.79
'0:16.785',-0.96
'0:16.789',0.79
'0:16.793',3.23
'0:16.797',6
'0:16.801',8.78
'0:16.805',10.4
'0:16.809',8.94
'0:16.813',3.97
'0:16.816',-2.57
'0:16.820',-7.89
'0:16.824',-11.03
'0:16.828',-12.03
'0:16.832',-11.22
'0:16.836',-9.15
'0:16.840',-6.66
'0:16.844',-4.6
'0:16.848',-3.04
'0:16.852',-2
'0:16.855',-1.05
'0:16.859',-0.19
'0:16.863',0.35
'0:16.867',0.4
'0:16.871',0.26
'0:16.875',0.55
'0:16.879',1.19
'0:16.883',1.77
'0:16.887',2
'0:16.891',1.85
'0:16.895',1.86
'0:16.898',2.15
'0:16.902',2.52
'0:16.906',3.04
'0:16.910',3.67
'0:16.914',4.2
'0:16.918',4.44
'0:16.922',4.52
'0:16.926',4.78
'0:16.930',5.05
'0:16.934',5.27
'0:16.938',5.46
'0:16.941',5.51
'0:16.945',5.91
'0:16.949',6.21
'0:16.953',6.09
'0:16.957',5.69
'0:16.961',5.21
'0:16.965',4.55
'0:16.969',3.78
'0:16.973',3
'0:16.977',2.29
'0:16.980',1.68
'0:16.984',1.21
'0:16.988',0.89
'0:16.992',0.55
'0:16.996',0.29
'0:17.000',0.2
'0:17.004',0.2
'0:17.008',0.45
'0:17.012',0.86
'0:17.016',1.28
'0:17.020',1.52
'0:17.023',1.56
'0:17.027',1.18
'0:17.031',0.58
'0:17.035',0.22
'0:17.039',0.4
'0:17.043',0.45
'0:17.047',-0.42
'0:17.051',-1.71
'0:17.055',-2.4
'0:17.059',-3.24
'0:17.063',-4.08
'0:17.066',-4.52
'0:17.070',-4.75
'0:17.074',-4.78
'0:17.078',-4.62
'0:17.082',-4.55
'0:17.086',-4.5
'0:17.090',-4.41
'0:17.094',-4.24
'0:17.098',-3.84
'0:17.102',-3.55
'0:17.105',-3.58
'0:17.109',-3.7
'0:17.113',-3.66
'0:17.117',-3.6
'0:17.121',-3.72
'0:17.125',-3.55
'0:17.129',-2.64
'0:17.133',-0.98
'0:17.137',1.42
'0:17.141',4.18
'0:17.145',6.96
'0:17.148',8.5
'0:17.152',7.11
'0:17.156',2.61
'0:17.160',-3.04
'0:17.164',-7.95
'0:17.168',-11.56
'0:17.172',-12.91
'0:17.176',-12.24
'0:17.180',-10.28
'0:17.184',-8.1
'0:17.188',-6.22
'0:17.191',-4.68
'0:17.195',-3
'0:17.199',-1.91
'0:17.203',-1.4
'0:17.207',-1.12
'0:17.211',-0.89
'0:17.215',-0.51
'0:17.219',-0.24
'0:17.223',-0.23
'0:17.227',-0.27
'0:17.230',-0.08
'0:17.234',0.24
'0:17.238',0.43
'0:17.242',0.5
'0:17.246',0.65
'0:17.250',0.94
'0:17.254',1.43
'0:17.258',2.15
'0:17.262',2.99
'0:17.266',3.55
'0:17.270',3.79
'0:17.273',4.29
'0:17.277',4.84
'0:17.281',5.08
'0:17.285',5
'0:17.289',4.85
'0:17.293',4.9
'0:17.297',4.87
'0:17.301',4.5
'0:17.305',4.11
'0:17.309',3.59
'0:17.313',3.13
'0:17.316',2.67
'0:17.320',2.04
'0:17.324',1.38
'0:17.328',0.79
'0:17.332',0.47
'0:17.336',0.37
'0:17.340',0.47
'0:17.344',0.75
'0:17.348',0.95
'0:17.352',1.12
'0:17.355',1.16
'0:17.359',0.71
'0:17.363',0.17
'0:17.367',-0.16
'0:17.371',-0.25
'0:17.375',-0.44
'0:17.379',-0.83
'0:17.383',-1.51
'0:17.387',-2.21
'0:17.391',-2.71
'0:17.395',-3.19
'0:17.398',-3.68
'0:17.402',-3.74
'0:17.406',-3.98
'0:17.410',-4.13
'0:17.414',-4.34
'0:17.418',-4.25
'0:17.422',-3.62
'0:17.426',-2.93
'0:17.430',-2.45
'0:17.434',-2.56
'0:17.438',-2.81
'0:17.441',-3
'0:17.445',-3
'0:17.449',-2.92
'0:17.453',-3.25
'0:17.457',-3.38
'0:17.461',-2.58
'0:17.465',-0.75
'0:17.469',1.75
'0:17.473',4.24
'0:17.477',6.65
'0:17.480',8.62
'0:17.484',8.15
'0:17.488',4.4
'0:17.492',-1.34
'0:17.496',-6.73
'0:17.500',-10.39
'0:17.504',-12.04
'0:17.508',-11.54
'0:17.512',-9.47
'0:17.516',-6.97
'0:17.520',-4.71
'0:17.523',-3.04
'0:17.527',-2.25
'0:17.531',-1.68
'0:17.535',-1.03
'0:17.539',-0.49
'0:17.543',-0.11
'0:17.547',-0.19
'0:17.551',-0.05
'0:17.555',0.73
'0:17.559',1.33
'0:17.563',1.35
'0:17.566',1.12
'0:17.570',1.08
'0:17.574',1.22
'0:17.578',1.57
'0:17.582',2.01
'0:17.586',2.41
'0:17.590',2.71
'0:17.594',3.03
'0:17.598',3.48
'0:17.602',4.07
'0:17.605',4.62
'0:17.609',5.36
'0:17.613',6
'0:17.617',5.91
'0:17.621',5.85
'0:17.625',5.99
'0:17.629',5.97
'0:17.633',5.64
'0:17.637',5.26
'0:17.641',4.66
'0:17.645',3.92
'0:17.648',3.14
'0:17.652',2.45
'0:17.656',1.78
'0:17.660',1.34
'0:17.664',0.49
'0:17.668',-0.36
'0:17.672',-0.6
'0:17.676',-0.7
'0:17.680',-0.57
'0:17.684',-0.13
'0:17.688',-0.01
'0:17.691',0.09
'0:17.695',0.52
'0:17.699',1.07
'0:17.703',1.34
'0:17.707',1.08
'0:17.711',0.81
'0:17.715',0.58
'0:17.719',0.41
'0:17.723',0.32
'0:17.727',0.18
'0:17.730',-0.21
'0:17.734',-0.88
'0:17.738',-1.59
'0:17.742',-2.23
'0:17.746',-2.77
'0:17.750',-3.38
'0:17.754',-3.8
'0:17.758',-3.85
'0:17.762',-3.74
'0:17.766',-3.62
'0:17.770',-3.53
'0:17.773',-3.48
'0:17.777',-3.22
'0:17.781',-2.74
'0:17.785',-2.39
'0:17.789',-2.23
'0:17.793',-2.08
'0:17.797',-1.97
'0:17.801',-1.93
'0:17.805',-1.8
'0:17.809',-1.42
'0:17.813',-0.2
'0:17.816',1.84
'0:17.820',4.07
'0:17.824',6.3
'0:17.828',9.04
'0:17.832',10.03
'0:17.836',7.25
'0:17.840',1.25
'0:17.844',-5.22
'0:17.848',-10.13
'0:17.852',-12.84
'0:17.855',-13.27
'0:17.859',-11.9
'0:17.863',-9.38
'0:17.867',-6.62
'0:17.871',-4.29
'0:17.875',-2.78
'0:17.879',-2.01
'0:17.883',-1.3
'0:17.887',-0.64
'0:17.891',-0.6
'0:17.895',-0.56
'0:17.898',-0.12
'0:17.902',0.31
'0:17.906',0.08
'0:17.910',-0.42
'0:17.914',-0.52
'0:17.918',-0.22
'0:17.922',0.32
'0:17.926',0.87
'0:17.930',1.26
'0:17.934',1.62
'0:17.938',2.14
'0:17.941',2.73
'0:17.945',3.18
'0:17.949',3.56
'0:17.953',3.94
'0:17.957',4.37
'0:17.961',4.74
'0:17.965',5.06
'0:17.969',5.32
'0:17.973',5.49
'0:17.977',5.52
'0:17.980',5.27
'0:17.984',4.9
'0:17.988',4.33
'0:17.992',3.53
'0:17.996',2.77
'0:18.000',2.02
'0:18.004',1.26
'0:18.008',0.65
'0:18.012',0.26
'0:18.016',0
'0:18.020',-0.14
'0:18.023',-0.14
'0:18.027',-0.13
'0:18.031',-0.05
'0:18.035',0.14
'0:18.039',0.51
'0:18.043',1.05
'0:18.047',1.26
'0:18.051',0.84
'0:18.055',0.23
'0:18.059',-0.07
'0:18.063',-0.06
'0:18.066',0.02
'0:18.070',-0.35
'0:18.074',-1.19
'0:18.078',-1.86
'0:18.082',-2.08
'0:18.086',-2.66
'0:18.090',-3.72
'0:18.094',-4.6
'0:18.098',-4.93
'0:18.102',-4.86
'0:18.105',-4.59
'0:18.109',-4.2
'0:18.113',-3.74
'0:18.117',-3.39
'0:18.121',-3.22
'0:18.125',-3.13
'0:18.129',-2.99
'0:18.133',-2.66
'0:18.137',-2.42
'0:18.141',-2.48
'0:18.145',-2.82
'0:18.148',-2.83
'0:18.152',-2.07
'0:18.156',-0.4
'0:18.160',2.06
'0:18.164',4.81
'0:18.168',7.59
'0:18.172',9.63
'0:18.176',8.88
'0:18.180',4.91
'0:18.184',-0.92
'0:18.188',-6.41
'0:18.191',-10.26
'0:18.195',-11.79
'0:18.199',-11.1
'0:18.203',-9.16
'0:18.207',-6.8
'0:18.211',-4.63
'0:18.215',-3.09
'0:18.219',-2.19
'0:18.223',-1.58
'0:18.227',-1.02
'0:18.230',-0.5
'0:18.234',-0.05
'0:18.238',0.29
'0:18.242',0.66
'0:18.246',0.99
'0:18.250',1.25
'0:18.254',1.49
'0:18.258',1.66
'0:18.262',1.69
'0:18.266',1.76
'0:18.270',2.09
'0:18.273',2.53
'0:18.277',3.11
'0:18.281',3.34
'0:18.285',3.31
'0:18.289',3.52
'0:18.293',4.02
'0:18.297',4.71
'0:18.301',5.36
'0:18.305',6.01
'0:18.309',6.13
'0:18.313',5.72
'0:18.316',5.56
'0:18.320',5.58
'0:18.324',5.5
'0:18.328',5.02
'0:18.332',4.5
'0:18.336',3.95
'0:18.340',3.27
'0:18.344',2.63
'0:18.348',2.17
'0:18.352',1.75
'0:18.355',1.59
'0:18.359',1.55
'0:18.363',1.56
'0:18.367',1.43
'0:18.371',1.34
'0:18.375',1.37
'0:18.379',1.31
'0:18.383',1.28
'0:18.387',1.14
'0:18.391',1
'0:18.395',0.74
'0:18.398',0.29
'0:18.402',0.02
'0:18.406',-0.2
'0:18.410',-0.59
'0:18.414',-1.14
'0:18.418',-1.95
'0:18.422',-2.77
'0:18.426',-3.29
'0:18.430',-3.49
'0:18.434',-3.66
'0:18.438',-3.94
'0:18.441',-4.06
'0:18.445',-4.13
'0:18.449',-4.03
'0:18.453',-3.53
'0:18.457',-3.05
'0:18.461',-2.95
'0:18.465',-3.04
'0:18.469',-3.02
'0:18.473',-3.04
'0:18.477',-3.07
'0:18.480',-3.07
'0:18.484',-2.99
'0:18.488',-2.6
'0:18.492',-1.69
'0:18.496',0.12
'0:18.500',2.55
'0:18.504',5.06
'0:18.508',7.35
'0:18.512',8.76
'0:18.516',7.62
'0:18.520',3.64
'0:18.523',-1.94
'0:18.527',-7.27
'0:18.531',-10.96
'0:18.535',-12.59
'0:18.539',-12.05
'0:18.543',-9.86
'0:18.547',-6.91
'0:18.551',-4.23
'0:18.555',-2.29
'0:18.559',-1.21
'0:18.563',-0.66
'0:18.566',-0.29
'0:18.570',0.09
'0:18.574',0.48
'0:18.578',0.72
'0:18.582',0.74
'0:18.586',0.9
'0:18.590',1.19
'0:18.594',1.34
'0:18.598',1.56
'0:18.602',1.82
'0:18.605',2.24
'0:18.609',2.63
'0:18.613',2.99
'0:18.617',3.33
'0:18.621',3.62
'0:18.625',3.74
'0:18.629',4.03
'0:18.633',4.64
'0:18.637',5.25
'0:18.641',5.75
'0:18.645',6.42
'0:18.648',7.26
'0:18.652',7.58
'0:18.656',7.34
'0:18.660',7.03
'0:18.664',6.51
'0:18.668',5.25
'0:18.672',4.24
'0:18.676',3.63
'0:18.680',2.95
'0:18.684',2.16
'0:18.688',1.34
'0:18.691',1.05
'0:18.695',0.92
'0:18.699',0.79
'0:18.703',1.08
'0:18.707',1.81
'0:18.711',1.31
'0:18.715',0.41
'0:18.719',0.56
'0:18.723',0.73
'0:18.727',0.83
'0:18.730',1.06
'0:18.734',0.91
'0:18.738',0.43
'0:18.742',-0.23
'0:18.746',-0.28
'0:18.750',-0.1
'0:18.754',-0.18
'0:18.758',-1.16
'0:18.762',-2.52
'0:18.766',-3.46
'0:18.770',-3.95
'0:18.773',-3.89
'0:18.777',-3.91
'0:18.781',-4.34
'0:18.785',-4.86
'0:18.789',-5.11
'0:18.793',-4.65
'0:18.797',-4.04
'0:18.801',-3.64
'0:18.805',-3.74
'0:18.809',-4.03
'0:18.813',-4.15
'0:18.816',-3.98
'0:18.820',-3.6
'0:18.824',-3.57
'0:18.828',-3.66
'0:18.832',-3.57
'0:18.836',-3.02
'0:18.840',-1.71
'0:18.844',0.29
'0:18.848',2.68
'0:18.852',5.3
'0:18.855',7.86
'0:18.859',8.82
'0:18.863',6.06
'0:18.867',0.32
'0:18.871',-5.67
'0:18.875',-10.08
'0:18.879',-12.47
'0:18.883',-12.56
'0:18.887',-10.99
'0:18.891',-8.78
'0:18.895',-6.65
'0:18.898',-4.95
'0:18.902',-3.65
'0:18.906',-2.51
'0:18.910',-1.73
'0:18.914',-1.38
'0:18.918',-1.18
'0:18.922',-1.06
'0:18.926',-0.78
'0:18.930',-0.5
'0:18.934',-0.33
'0:18.938',0
'0:18.941',0.4
'0:18.945',0.59
'0:18.949',0.79
'0:18.953',1.01
'0:18.957',1.38
'0:18.961',2.04
'0:18.965',2.76
'0:18.969',3.35
'0:18.973',3.8
'0:18.977',4.26
'0:18.980',4.57
'0:18.984',4.83
'0:18.988',5.06
'0:18.992',5.08
'0:18.996',5.42
'0:19.000',5.54
'0:19.004',5.25
'0:19.008',4.81
'0:19.012',4.39
'0:19.016',4.01
'0:19.020',3.53
'0:19.023',2.94
'0:19.027',2.29
'0:19.031',1.84
'0:19.035',1.63
'0:19.039',1.27
'0:19.043',1.1
'0:19.047',1.17
'0:19.051',1.18
'0:19.055',1.2
'0:19.059',1.07
'0:19.063',1.04
'0:19.066',1.13
'0:19.070',1.54
'0:19.074',1.55
'0:19.078',1.24
'0:19.082',0.97
'0:19.086',0.64
'0:19.090',0.18
'0:19.094',-0.23
'0:19.098',-0.71
'0:19.102',-1.35
'0:19.105',-1.91
'0:19.109',-2.23
'0:19.113',-2.3
'0:19.117',-2.58
'0:19.121',-3.18
'0:19.125',-3.36
'0:19.129',-3.14
'0:19.133',-2.85
'0:19.137',-2.51
'0:19.141',-2.1
'0:19.145',-1.75
'0:19.148',-1.58
'0:19.152',-1.39
'0:19.156',-1.64
'0:19.160',-2.08
'0:19.164',-2.24
'0:19.168',-2.55
'0:19.172',-2.69
'0:19.176',-2
'0:19.180',-0.16
'0:19.184',2.63
'0:19.188',5.41
'0:19.191',8.09
'0:19.195',10.24
'0:19.199',10.05
'0:19.203',6.44
'0:19.207',0.56
'0:19.211',-5.1
'0:19.215',-9.19
'0:19.219',-10.93
'0:19.223',-10.32
'0:19.227',-8.4
'0:19.230',-5.96
'0:19.234',-4.11
'0:19.238',-2.93
'0:19.242',-1.8
'0:19.246',-0.94
'0:19.250',-0.4
'0:19.254',0.09
'0:19.258',0.22
'0:19.262',0.24
'0:19.266',0.47
'0:19.270',0.74
'0:19.273',0.97
'0:19.277',1.33
'0:19.281',1.53
'0:19.285',1.9
'0:19.289',2.22
'0:19.293',2.47
'0:19.297',2.73
'0:19.301',3.07
'0:19.305',3.46
'0:19.309',3.82
'0:19.313',4.25
'0:19.316',4.98
'0:19.320',5.71
'0:19.324',5.65
'0:19.328',5.49
'0:19.332',5.55
'0:19.336',5.65
'0:19.340',5.76
'0:19.344',5.96
'0:19.348',5.83
'0:19.352',5.19
'0:19.355',4.39
'0:19.359',3.88
'0:19.363',3.16
'0:19.367',2.14
'0:19.371',1.47
'0:19.375',1
'0:19.379',0.7
'0:19.383',0.45
'0:19.387',0.2
'0:19.391',0.23
'0:19.395',0.46
'0:19.398',0.38
'0:19.402',0.15
'0:19.406',0.18
'0:19.410',0.32
'0:19.414',0.32
'0:19.418',0.34
'0:19.422',0.21
'0:19.426',-0.2
'0:19.430',-0.49
'0:19.434',-0.69
'0:19.438',-1.02
'0:19.441',-1.43
'0:19.445',-1.89
'0:19.449',-2.4
'0:19.453',-3.07
'0:19.457',-3.59
'0:19.461',-3.72
'0:19.465',-4.04
'0:19.469',-4.38
'0:19.473',-4.59
'0:19.477',-4.54
'0:19.480',-4.3
'0:19.484',-3.74
'0:19.488',-3.37
'0:19.492',-3.42
'0:19.496',-3.78
'0:19.500',-3.92
'0:19.504',-3.74
'0:19.508',-3.43
'0:19.512',-3.13
'0:19.516',-3.01
'0:19.520',-2.63
'0:19.523',-1.52
'0:19.527',0.27
