'0:00.000',14.16898667
'0:00.004',3.89307621
'0:00.008',-9.0536656
'0:00.012',-27.88529006
'0:00.016',-33.54383106
'0:00.020',-50.56472239
'0:00.023',-45.67574297
'0:00.027',-58.07926484
'0:00.031',-59.70892465
'0:00.035',-65.09585568
'0:00.039',-51.3795523
'0:00.043',-47.84862271
'0:00.047',-42.73330165
'0:00.051',-42.73330165
'0:00.055',-31.68782961
'0:00.059',-35.17349087
'0:00.063',-31.95943958
'0:00.066',-11.18127702
'0:00.070',-11.18127702
'0:00.074',-14.7122066
'0:00.078',-17.11142799
'0:00.082',0.13580498
'0:00.086',2.85190466
'0:00.090',4.43629615
'0:00.094',2.85190466
'0:00.098',0.13580498
'0:00.102',-15.25542654
'0:00.105',-12.53932686
'0:00.109',-27.38733845
'0:00.113',-44.63457142
'0:00.117',-46.76218284
'0:00.121',-32.50265951
'0:00.125',-31.41621964
'0:00.129',-28.42850999
'0:00.133',-27.61368009
'0:00.137',-14.16898667
'0:00.141',-1.49385482
'0:00.145',-15.75337815
'0:00.148',-10.90966705
'0:00.152',-10.09483715
'0:00.156',-13.8973767
'0:00.160',-17.11142799
'0:00.164',-15.75337815
'0:00.168',-11.99610692
'0:00.172',-10.63805708
'0:00.176',-13.35415676
'0:00.180',-31.68782961
'0:00.184',-30.60138974
'0:00.188',-28.42850999
'0:00.191',-27.88529006
'0:00.195',-29.51494987
'0:00.199',-31.14460967
'0:00.203',-14.98381657
'0:00.207',-13.62576673
'0:00.211',3.34985627
'0:00.215',-12.81093683
'0:00.219',-13.0825468
'0:00.223',-13.8973767
'0:00.227',-13.8973767
'0:00.230',2.03707476
'0:00.234',2.03707476
'0:00.238',2.85190466
'0:00.242',3.34985627
'0:00.246',64.55263575
'0:00.250',200.9913764
'0:00.254',324.1664969
'0:00.258',395.3735769
'0:00.262',316.6519545
'0:00.266',231.4569611
'0:00.270',218.2386094
'0:00.273',164.3240307
'0:00.277',239.5147235
'0:00.281',223.6255404
'0:00.285',10.36644712
'0:00.289',-188.3162445
'0:00.293',-232.271791
'0:00.297',-174.8262828
'0:00.301',-51.60589394
'0:00.305',46.76218284
'0:00.309',93.70543899
'0:00.313',85.05918834
'0:00.316',51.33428397
'0:00.320',37.61798058
'0:00.324',75.10015618
'0:00.328',116.8828229
'0:00.332',114.4383332
'0:00.336',105.022521
'0:00.340',90.71772934
'0:00.344',120.6400942
'0:00.348',143.0026482
'0:00.352',160.2951495
'0:00.355',140.3318168
'0:00.359',142.1878183
'0:00.363',166.7232521
'0:00.367',200.9913764
'0:00.371',220.9094407
'0:00.375',222.2674906
'0:00.379',225.2552002
'0:00.383',245.7164845
'0:00.387',261.107716
'0:00.391',282.6554401
'0:00.395',287.2728096
'0:00.398',290.2152509
'0:00.402',323.6685453
'0:00.406',352.2328603
'0:00.410',375.1386343
'0:00.414',368.6652634
'0:00.418',373.2373645
'0:00.422',387.2705462
'0:00.426',411.80598
'0:00.430',419.3657907
'0:00.434',416.649691
'0:00.438',407.2338788
'0:00.441',403.1597293
'0:00.445',393.2006971
'0:00.449',400.4888979
'0:00.453',398.3160182
'0:00.457',389.7150359
'0:00.461',370.2949232
'0:00.465',375.4102442
'0:00.469',365.4512121
'0:00.473',364.0931622
'0:00.477',356.5333514
'0:00.480',337.1132387
'0:00.484',341.4589982
'0:00.488',346.3027093
'0:00.492',329.5986963
'0:00.496',324.1664969
'0:00.500',305.0632625
'0:00.504',276.4536792
'0:00.508',280.7994387
'0:00.512',278.6265589
'0:00.516',257.5767864
'0:00.520',240.3295534
'0:00.523',227.9260316
'0:00.527',214.9792897
'0:00.531',212.5800684
'0:00.535',207.4647473
'0:00.539',190.4891243
'0:00.543',194.5180055
'0:00.547',196.9172269
'0:00.551',194.7896155
'0:00.555',190.7154659
'0:00.559',174.5546728
'0:00.563',162.4227609
'0:00.566',164.3240307
'0:00.570',161.0647111
'0:00.574',156.7642199
'0:00.578',141.6898667
'0:00.582',130.3275164
'0:00.586',131.9571762
'0:00.590',127.656685
'0:00.594',107.9649623
'0:00.598',109.3230122
'0:00.602',112.8086734
'0:00.605',113.6235033
'0:00.609',110.952672
'0:00.613',92.61899912
'0:00.617',93.93178063
'0:00.621',111.2242819
'0:00.625',126.2986352
'0:00.629',124.9405853
'0:00.633',125.4838053
'0:00.637',126.8418551
'0:00.641',111.7675019
'0:00.645',110.952672
'0:00.648',108.7797922
'0:00.652',92.61899912
'0:00.656',78.8574274
'0:00.660',64.28102578
'0:00.664',62.42502433
'0:00.668',43.54813155
'0:00.672',28.15690002
'0:00.676',14.98381657
'0:00.680',15.48176818
'0:00.684',-2.5802947
'0:00.688',-4.70790611
'0:00.691',-4.70790611
'0:00.695',-2.85190466
'0:00.699',-1.49385482
'0:00.703',-2.5802947
'0:00.707',11.18127702
'0:00.711',10.36644712
'0:00.715',12.81093683
'0:00.719',-0.40741495
'0:00.723',14.7122066
'0:00.727',10.63805708
'0:00.730',9.82322718
'0:00.734',12.81093683
'0:00.738',15.48176818
'0:00.742',14.7122066
'0:00.746',42.19008171
'0:00.750',148.1632376
'0:00.754',288.0423712
'0:00.758',356.8049614
'0:00.762',323.1253254
'0:00.766',284.01349
'0:00.770',336.2984088
'0:00.773',302.0755528
'0:00.777',365.4512121
'0:00.781',380.2539553
'0:00.785',192.3451257
'0:00.789',-85.87401824
'0:00.793',-183.2009235
'0:00.797',-138.4305471
'0:00.801',-25.48606867
'0:00.805',47.03379281
'0:00.809',81.79986872
'0:00.813',83.97274847
'0:00.816',52.96394378
'0:00.820',31.14460967
'0:00.824',45.17779136
'0:00.828',89.90289944
'0:00.832',110.681062
'0:00.836',88.00162966
'0:00.840',84.78757837
'0:00.844',93.16221905
'0:00.848',116.8828229
'0:00.852',124.3973654
'0:00.855',122.5413639
'0:00.859',104.2076911
'0:00.863',124.3973654
'0:00.867',144.0890881
'0:00.871',168.6245219
'0:00.875',155.94939
'0:00.879',140.3318168
'0:00.883',157.0358299
'0:00.887',187.2298047
'0:00.891',211.4936285
'0:00.895',219.5966592
'0:00.898',222.8107105
'0:00.902',237.3871121
'0:00.906',264.3217673
'0:00.910',288.3139811
'0:00.914',283.74188
'0:00.918',273.7828478
'0:00.922',286.7295896
'0:00.926',293.2029606
'0:00.930',316.3803445
'0:00.934',329.5986963
'0:00.938',321.7672755
'0:00.941',319.3227858
'0:00.945',324.7097169
'0:00.949',329.8250379
'0:00.953',312.5778049
'0:00.957',306.376044
'0:00.961',287.2728096
'0:00.965',275.1408977
'0:00.969',264.0501573
'0:00.973',262.7373758
'0:00.977',240.8727734
'0:00.980',237.930332
'0:00.984',225.2552002
'0:00.988',214.2097282
'0:00.992',213.6665082
'0:00.996',192.0735158
'0:01.000',173.7398429
'0:01.004',160.5214911
'0:01.008',133.043616
'0:01.012',117.1544329
'0:01.016',96.10466037
'0:01.020',92.07577918
'0:01.023',77.77098753
'0:01.027',67.26873543
'0:01.031',68.3551753
'0:01.035',47.84862271
'0:01.039',43.81974152
'0:01.043',44.63457142
'0:01.047',48.93506258
'0:01.051',50.56472239
'0:01.055',48.12023268
'0:01.059',44.63457142
'0:01.063',44.63457142
'0:01.066',47.84862271
'0:01.070',65.09585568
'0:01.074',62.96824427
'0:01.078',60.79536452
'0:01.082',61.61019443
'0:01.086',63.73780584
'0:01.090',64.55263575
'0:01.094',62.96824427
'0:01.098',76.41293769
'0:01.102',76.41293769
'0:01.105',79.12903737
'0:01.109',80.75869718
'0:01.113',94.74661053
'0:01.117',122.5413639
'0:01.121',121.998144
'0:01.125',111.4958919
'0:01.129',115.5247731
'0:01.133',111.9938435
'0:01.137',106.0636925
'0:01.141',105.294131
'0:01.145',94.74661053
'0:01.148',83.42952853
'0:01.152',65.36746565
'0:01.156',43.54813155
'0:01.160',25.48606867
'0:01.164',13.35415676
'0:01.168',1.76546479
'0:01.172',-15.25542654
'0:01.176',-51.3795523
'0:01.180',-68.89839524
'0:01.184',-83.15791856
'0:01.188',-80.75869718
'0:01.191',-81.57352708
'0:01.195',-84.24435843
'0:01.199',-85.05918834
'0:01.203',-82.88630859
'0:01.207',-81.03030715
'0:01.211',-81.30191711
'0:01.215',-83.42952853
'0:01.219',-84.24435843
'0:01.223',-82.88630859
'0:01.227',-81.03030715
'0:01.230',-65.63907562
'0:01.234',-67.5403454
'0:01.238',-67.5403454
'0:01.242',26.84411851
'0:01.246',133.586836
'0:01.250',243.3172631
'0:01.254',266.494647
'0:01.258',138.702157
'0:01.262',128.1999049
'0:01.266',172.1554514
'0:01.270',168.3529119
'0:01.273',269.2107467
'0:01.277',213.3948983
'0:01.281',-17.92625789
'0:01.285',-227.6544216
'0:01.289',-261.9225459
'0:01.293',-182.9293135
'0:01.297',-65.09585568
'0:01.301',4.70790611
'0:01.305',28.70011996
'0:01.309',10.36644712
'0:01.313',-23.04157896
'0:01.316',-28.15690002
'0:01.320',-0.40741495
'0:01.324',37.61798058
'0:01.328',26.30089858
'0:01.332',-0.67902492
'0:01.336',7.69561576
'0:01.340',27.61368009
'0:01.344',48.12023268
'0:01.348',27.34207012
'0:01.352',21.14030918
'0:01.355',25.48606867
'0:01.359',54.59360359
'0:01.363',89.90289944
'0:01.367',75.37176614
'0:01.371',74.55693624
'0:01.375',61.61019443
'0:01.379',84.5159684
'0:01.383',116.339603
'0:01.387',136.0313257
'0:01.391',139.7885969
'0:01.395',144.360698
'0:01.398',164.3240307
'0:01.402',208.5511872
'0:01.406',228.7408615
'0:01.410',236.5722822
'0:01.414',243.3172631
'0:01.418',260.5644961
'0:01.422',269.9803083
'0:01.426',291.0300808
'0:01.430',300.445893
'0:01.434',291.8449107
'0:01.438',277.2685091
'0:01.441',301.2607229
'0:01.445',288.5855911
'0:01.449',283.74188
'0:01.453',276.4536792
'0:01.457',260.5644961
'0:01.461',266.766257
'0:01.465',254.3627351
'0:01.469',235.2142324
'0:01.473',229.0124714
'0:01.477',226.88486
'0:01.480',230.9137412
'0:01.484',219.8682692
'0:01.488',219.0534393
'0:01.492',197.4604468
'0:01.496',179.126774
'0:01.500',166.2253005
'0:01.504',154.3197302
'0:01.508',137.6157172
'0:01.512',132.7720061
'0:01.516',113.8951133
'0:01.520',116.339603
'0:01.523',104.4793011
'0:01.527',104.750911
'0:01.531',100.1335416
'0:01.535',96.91949028
'0:01.539',83.42952853
'0:01.543',88.00162966
'0:01.547',87.73001969
'0:01.551',83.42952853
'0:01.555',65.09585568
'0:01.559',67.81195537
'0:01.563',70.75439669
'0:01.566',54.59360359
'0:01.570',51.8775039
'0:01.574',49.47828252
'0:01.578',34.9018809
'0:01.582',38.16120052
'0:01.586',22.49835902
'0:01.590',4.70790611
'0:01.594',2.30868473
'0:01.598',-29.2433399
'0:01.602',-26.30089858
'0:01.605',-26.57250854
'0:01.609',-13.62576673
'0:01.613',-31.14460967
'0:01.617',-28.15690002
'0:01.621',-10.36644712
'0:01.625',-11.72449696
'0:01.629',-13.62576673
'0:01.633',-13.62576673
'0:01.637',-27.38733845
'0:01.641',-41.10364184
'0:01.645',-42.46169168
'0:01.648',-45.94735293
'0:01.652',-62.42502433
'0:01.656',-59.16570471
'0:01.660',-72.92727643
'0:01.664',-89.63128947
'0:01.668',-108.2365723
'0:01.672',-125.2121953
'0:01.676',-123.8994138
'0:01.680',-138.1589371
'0:01.684',-153.5501686
'0:01.688',-154.8629501
'0:01.691',-188.0446346
'0:01.695',-202.3494262
'0:01.699',-201.5345963
'0:01.703',-202.8926462
'0:01.707',-204.2054277
'0:01.711',-219.3250492
'0:01.715',-216.8805595
'0:01.719',-216.6089496
'0:01.723',-218.5102193
'0:01.727',-234.9426224
'0:01.730',-233.3129626
'0:01.734',-124.1710237
'0:01.738',11.18127702
'0:01.742',120.6400942
'0:01.746',163.7808108
'0:01.750',69.66795681
'0:01.754',57.53604491
'0:01.758',38.43281048
'0:01.762',52.69233381
'0:01.766',89.63128947
'0:01.770',-13.35415676
'0:01.773',-277.2685091
'0:01.777',-413.1640298
'0:01.781',-405.332609
'0:01.785',-321.7672755
'0:01.789',-223.3539304
'0:01.793',-149.7476291
'0:01.797',-136.0313257
'0:01.801',-164.0524207
'0:01.805',-178.855164
'0:01.809',-173.196623
'0:01.813',-140.0602069
'0:01.816',-123.6278038
'0:01.820',-143.5458681
'0:01.824',-155.67778
'0:01.828',-155.67778
'0:01.832',-128.7431249
'0:01.836',-95.56144044
'0:01.840',-93.97704896
'0:01.844',-118.1956045
'0:01.848',-119.8252643
'0:01.852',-98.27754012
'0:01.855',-67.5403454
'0:01.859',-62.15341436
'0:01.863',-97.46271021
'0:01.867',-83.7011385
'0:01.871',-68.08356533
'0:01.875',-39.745592
'0:01.879',-45.94735293
'0:01.883',-45.44940133
'0:01.887',-34.08705099
'0:01.891',-22.22674906
'0:01.895',5.79434599
'0:01.898',18.19786786
'0:01.902',36.25993074
'0:01.906',31.14460967
'0:01.910',57.30970327
'0:01.914',84.24435843
'0:01.918',82.07147869
'0:01.922',71.56922659
'0:01.926',66.45390552
'0:01.930',72.92727643
'0:01.934',66.18229556
'0:01.938',66.18229556
'0:01.941',41.37525181
'0:01.945',20.37074761
'0:01.949',8.78205563
'0:01.953',16.02498812
'0:01.957',0.13580498
'0:01.961',-6.06595595
'0:01.965',-26.57250854
'0:01.969',-38.97603042
'0:01.973',-48.66345262
'0:01.977',-48.39184265
'0:01.980',-70.21117675
'0:01.984',-89.3596795
'0:01.988',-102.0348113
'0:01.992',-113.0802834
'0:01.996',-128.7431249
'0:02.000',-133.586836
'0:02.004',-153.0069487
'0:02.008',-165.9536905
'0:02.012',-161.0647111
'0:02.016',-161.336321
'0:02.020',-181.2996537
'0:02.023',-183.2009235
'0:02.027',-196.9172269
'0:02.031',-193.1599556
'0:02.035',-193.4315656
'0:02.039',-196.6908852
'0:02.043',-198.2752767
'0:02.047',-196.1476653
'0:02.051',-192.8883457
'0:02.055',-192.8883457
'0:02.059',-195.3328354
'0:02.063',-196.9172269
'0:02.066',-195.3328354
'0:02.070',-208.0079672
'0:02.074',-191.5302958
'0:02.078',-194.7896155
'0:02.082',-196.4192753
'0:02.086',-209.5923587
'0:02.090',-206.1066975
'0:02.094',-206.6499174
'0:02.098',-179.3983839
'0:02.102',-181.5712637
'0:02.105',-192.6167357
'0:02.109',-186.9581947
'0:02.113',-172.925013
'0:02.117',-163.7808108
'0:02.121',-165.6820805
'0:02.125',-159.4803196
'0:02.129',-153.8217786
'0:02.133',-155.4061701
'0:02.137',-161.607931
'0:02.141',-148.4348476
'0:02.145',-159.7519296
'0:02.148',-153.2785587
'0:02.152',-153.8217786
'0:02.156',-175.3695027
'0:02.160',-178.3572124
'0:02.164',-175.3695027
'0:02.168',-170.7974016
'0:02.172',-170.2541817
'0:02.176',-173.7398429
'0:02.180',-176.4559426
'0:02.184',-190.2175143
'0:02.188',-185.8717548
'0:02.191',-185.6001449
'0:02.195',-189.4026844
'0:02.199',-206.9215274
'0:02.203',-204.4770376
'0:02.207',-217.1521695
'0:02.211',-216.8805595
'0:02.215',-220.4114891
'0:02.219',-237.930332
'0:02.223',-142.7310382
'0:02.227',-3.89307621
'0:02.230',105.5657409
'0:02.234',145.1755279
'0:02.238',33.81544103
'0:02.242',-53.50716371
'0:02.246',-114.7099432
'0:02.250',-119.8252643
'0:02.254',-61.61019443
'0:02.258',-122.269754
'0:02.262',-348.4303207
'0:02.266',-487.8115027
'0:02.270',-476.2228107
'0:02.273',-402.1185578
'0:02.277',-297.7750617
'0:02.281',-190.9870759
'0:02.285',-151.3772889
'0:02.289',-187.7730246
'0:02.293',-206.3783074
'0:02.297',-210.6787986
'0:02.301',-180.2132138
'0:02.305',-141.4182567
'0:02.309',-138.702157
'0:02.313',-167.809692
'0:02.316',-157.8506598
'0:02.320',-134.9448858
'0:02.324',-98.27754012
'0:02.328',-105.8373509
'0:02.332',-113.3518934
'0:02.336',-121.726534
'0:02.340',-104.4793011
'0:02.344',-69.93956678
'0:02.348',-74.0137163
'0:02.352',-77.22776759
'0:02.355',-86.14562821
'0:02.359',-57.80765487
'0:02.363',-26.30089858
'0:02.367',-26.84411851
'0:02.371',-25.48606867
'0:02.375',-18.7410878
'0:02.379',4.43629615
'0:02.383',18.7410878
'0:02.387',21.68352912
'0:02.391',26.02928861
'0:02.395',15.75337815
'0:02.398',35.7167108
'0:02.402',47.84862271
'0:02.406',52.69233381
'0:02.410',44.36296145
'0:02.414',34.63027093
'0:02.418',35.98832077
'0:02.422',45.67574297
'0:02.426',50.83633236
'0:02.430',44.90618139
'0:02.434',21.14030918
'0:02.438',5.79434599
'0:02.441',13.0825468
'0:02.445',16.02498812
'0:02.449',-3.89307621
'0:02.453',-24.67123877
'0:02.457',-24.67123877
'0:02.461',-21.18557751
'0:02.465',-33.81544103
'0:02.469',-35.17349087
'0:02.473',-55.13682352
'0:02.477',-71.56922659
'0:02.480',-69.17000521
'0:02.484',-82.88630859
'0:02.488',-83.7011385
'0:02.492',-102.3064213
'0:02.496',-118.4672144
'0:02.500',-116.611213
'0:02.504',-116.067993
'0:02.508',-132.5003961
'0:02.512',-117.6976528
'0:02.516',-118.7388244
'0:02.520',-117.4260429
'0:02.523',-130.8707363
'0:02.527',-130.1011747
'0:02.531',-132.7720061
'0:02.535',-134.6732758
'0:02.539',-133.586836
'0:02.543',-130.5991263
'0:02.547',-129.8295648
'0:02.551',-131.6855662
'0:02.555',-117.9692628
'0:02.559',-117.6976528
'0:02.563',-114.7099432
'0:02.566',-112.5370634
'0:02.570',-114.1667233
'0:02.574',-116.8828229
'0:02.578',-116.8828229
'0:02.582',-114.4383332
'0:02.586',-112.5370634
'0:02.590',-98.00593015
'0:02.594',-85.33079831
'0:02.598',-69.71322514
'0:02.602',-51.10794233
'0:02.605',-32.50265951
'0:02.609',-17.38303796
'0:02.613',-19.5559177
'0:02.617',-34.9018809
'0:02.621',-32.23104955
'0:02.625',-47.30540277
'0:02.629',-64.55263575
'0:02.633',-66.45390552
'0:02.637',-82.88630859
'0:02.641',-96.64788031
'0:02.645',-110.681062
'0:02.648',-127.656685
'0:02.652',-130.3275164
'0:02.656',-147.3484077
'0:02.660',-160.5667595
'0:02.664',-173.7398429
'0:02.668',-174.8262828
'0:02.672',-178.6288223
'0:02.676',-195.3328354
'0:02.680',-191.8019058
'0:02.684',-189.6742944
'0:02.688',-190.9870759
'0:02.691',-193.7031756
'0:02.695',-193.9747855
'0:02.699',-191.5302958
'0:02.703',-204.7486476
'0:02.707',-220.4114891
'0:02.711',-238.745162
'0:02.715',-163.5092008
'0:02.719',-57.30970327
'0:02.723',39.20237206
'0:02.727',49.47828252
'0:02.730',-32.77426948
'0:02.734',-17.65464793
'0:02.738',-50.56472239
'0:02.742',-44.36296145
'0:02.746',10.36644712
'0:02.750',-114.4383332
'0:02.754',-383.5132749
'0:02.758',-532.5818791
'0:02.762',-533.9399289
'0:02.766',-448.7449356
'0:02.770',-340.9157783
'0:02.773',-288.0423712
'0:02.777',-270.7951382
'0:02.781',-292.3881306
'0:02.785',-321.7672755
'0:02.789',-320.6808357
'0:02.793',-276.9968991
'0:02.797',-259.7496662
'0:02.801',-273.2396279
'0:02.805',-281.8406102
'0:02.809',-285.3715398
'0:02.813',-248.1609742
'0:02.816',-231.1853512
'0:02.820',-223.0823205
'0:02.824',-228.1976415
'0:02.828',-233.5845726
'0:02.832',-201.2629864
'0:02.836',-185.3285349
'0:02.840',-174.0114529
'0:02.844',-175.9127227
'0:02.848',-182.3860936
'0:02.852',-153.8217786
'0:02.855',-124.1710237
'0:02.859',-110.409452
'0:02.863',-108.5081823
'0:02.867',-114.4383332
'0:02.871',-89.3596795
'0:02.875',-62.15341436
'0:02.879',-47.30540277
'0:02.883',-57.58131323
'0:02.887',-47.03379281
'0:02.891',-40.83203187
'0:02.895',-16.02498812
'0:02.898',-15.75337815
'0:02.902',-7.69561576
'0:02.906',-28.42850999
'0:02.910',-23.5847989
'0:02.914',-16.56820805
'0:02.918',-31.95943958
'0:02.922',-38.16120052
'0:02.926',-58.62248478
'0:02.930',-55.68004346
'0:02.934',-65.91068559
'0:02.938',-79.94386727
'0:02.941',-84.78757837
'0:02.945',-105.5657409
'0:02.949',-119.5536543
'0:02.953',-114.4383332
'0:02.957',-144.0890881
'0:02.961',-162.6943709
'0:02.965',-182.9293135
'0:02.969',-199.0901066
'0:02.973',-211.2220185
'0:02.977',-208.8227971
'0:02.980',-242.2308232
'0:02.984',-260.2928861
'0:02.988',-276.9968991
'0:02.992',-291.0300808
'0:02.996',-289.672031
'0:03.000',-306.104434
'0:03.004',-307.4624839
'0:03.008',-323.3969353
'0:03.012',-306.376044
'0:03.016',-306.104434
'0:03.020',-305.8780924
'0:03.023',-305.3348725
'0:03.027',-305.0632625
'0:03.031',-320.4092257
'0:03.035',-304.2484326
'0:03.039',-305.0632625
'0:03.043',-304.7916525
'0:03.047',-303.4336027
'0:03.051',-302.3471628
'0:03.055',-302.6187728
'0:03.059',-303.4336027
'0:03.063',-303.1619927
'0:03.066',-302.0755528
'0:03.070',-300.989113
'0:03.074',-300.989113
'0:03.078',-301.5323329
'0:03.082',-301.5323329
'0:03.086',-269.7086983
'0:03.090',-269.7086983
'0:03.094',-267.8526969
'0:03.098',-250.8770739
'0:03.102',-251.6466354
'0:03.105',-236.8438922
'0:03.109',-236.3006722
'0:03.113',-234.1277925
'0:03.117',-248.1609742
'0:03.121',-248.7041941
'0:03.125',-251.1486838
'0:03.129',-251.9182454
'0:03.133',-249.790634
'0:03.137',-263.0089858
'0:03.141',-262.4657658
'0:03.145',-280.7994387
'0:03.148',-282.1122202
'0:03.152',-296.6886218
'0:03.156',-278.6265589
'0:03.160',-278.8981689
'0:03.164',-279.9846088
'0:03.168',-279.9846088
'0:03.172',-278.8981689
'0:03.176',-262.1941559
'0:03.180',-247.0745343
'0:03.184',-263.0089858
'0:03.188',-260.836106
'0:03.191',-244.403703
'0:03.195',-245.9880944
'0:03.199',-230.9137412
'0:03.203',-214.2097282
'0:03.207',-196.6908852
'0:03.211',-102.8496413
'0:03.215',2.85190466
'0:03.219',128.1999049
'0:03.223',105.5657409
'0:03.227',-50.02150246
'0:03.230',-107.9649623
'0:03.234',-145.7187479
'0:03.238',-183.2009235
'0:03.242',-100.4051515
'0:03.246',-172.1554514
'0:03.250',-401.8469478
'0:03.254',-580.0230869
'0:03.258',-569.2492248
'0:03.262',-490.5276024
'0:03.266',-367.3072135
'0:03.270',-293.4745705
'0:03.273',-256.2640049
'0:03.277',-279.1697789
'0:03.281',-297.2318417
'0:03.285',-282.1122202
'0:03.289',-235.2142324
'0:03.293',-213.1232883
'0:03.297',-210.9504086
'0:03.301',-224.7119803
'0:03.305',-230.0989113
'0:03.309',-189.9459044
'0:03.313',-169.1677418
'0:03.316',-161.607931
'0:03.320',-170.5257916
'0:03.324',-178.0856024
'0:03.328',-143.5458681
'0:03.332',-109.0514022
'0:03.336',-98.00593015
'0:03.340',-102.0348113
'0:03.344',-78.8574274
'0:03.348',-65.36746565
'0:03.352',-16.29659809
'0:03.355',-17.65464793
'0:03.359',-17.38303796
'0:03.363',-10.90966705
'0:03.367',13.62576673
'0:03.371',43.81974152
'0:03.375',45.94735293
'0:03.379',34.63027093
'0:03.383',40.83203187
'0:03.387',75.59810778
'0:03.391',86.96045812
'0:03.395',108.5081823
'0:03.398',101.4915914
'0:03.402',107.9649623
'0:03.406',123.3561938
'0:03.410',132.2287861
'0:03.414',123.8994138
'0:03.418',135.4881058
'0:03.422',125.2121953
'0:03.426',122.8129739
'0:03.430',115.2531631
'0:03.434',122.8129739
'0:03.438',103.6644712
'0:03.441',79.12903737
'0:03.445',75.59810778
'0:03.449',65.09585568
'0:03.453',71.84083656
'0:03.457',54.86521355
'0:03.461',48.12023268
'0:03.465',28.42850999
'0:03.469',16.83981802
'0:03.473',22.49835902
'0:03.477',21.14030918
'0:03.480',-0.13580498
'0:03.484',-2.5802947
'0:03.488',15.75337815
'0:03.492',19.28430773
'0:03.496',4.70790611
'0:03.500',17.92625789
'0:03.504',13.8973767
'0:03.508',30.0581698
'0:03.512',33.81544103
'0:03.516',51.8775039
'0:03.520',65.36746565
'0:03.523',77.77098753
'0:03.527',93.70543899
'0:03.531',97.46271021
'0:03.535',100.6767615
'0:03.539',99.09237002
'0:03.543',95.0182205
'0:03.547',93.70543899
'0:03.551',96.64788031
'0:03.555',99.36397999
'0:03.559',98.54915009
'0:03.563',79.67225731
'0:03.566',78.58581743
'0:03.570',79.67225731
'0:03.574',81.30191711
'0:03.578',81.30191711
'0:03.582',110.409452
'0:03.586',124.1257554
'0:03.590',126.0270252
'0:03.594',161.0647111
'0:03.598',176.4559426
'0:03.602',189.6742944
'0:03.605',188.8594645
'0:03.609',191.5302958
'0:03.613',178.0856024
'0:03.617',161.879541
'0:03.621',158.3938797
'0:03.625',155.4061701
'0:03.629',156.7642199
'0:03.633',159.7519296
'0:03.637',145.1755279
'0:03.641',143.0026482
'0:03.645',139.5169869
'0:03.648',123.6278038
'0:03.652',126.8418551
'0:03.656',112.5370634
'0:03.660',110.409452
'0:03.664',106.8785224
'0:03.668',106.0636925
'0:03.672',93.43382902
'0:03.676',111.7675019
'0:03.680',93.70543899
'0:03.684',90.98933931
'0:03.688',74.82854621
'0:03.691',77.22776759
'0:03.695',62.6966343
'0:03.699',30.60138974
'0:03.703',28.42850999
'0:03.707',102.8496413
'0:03.711',224.4403703
'0:03.715',320.6808357
'0:03.719',347.1175392
'0:03.723',372.9657545
'0:03.727',493.243702
'0:03.730',494.2848736
'0:03.734',543.0841312
'0:03.738',603.2004708
'0:03.742',395.9167968
'0:03.746',73.1988864
'0:03.750',-96.37627034
'0:03.754',-82.88630859
'0:03.758',-10.63805708
'0:03.762',69.17000521
'0:03.766',105.294131
'0:03.770',101.2199814
'0:03.773',75.59810778
'0:03.777',47.30540277
'0:03.781',52.42072384
'0:03.785',81.79986872
'0:03.789',111.4958919
'0:03.793',92.89060909
'0:03.797',84.5159684
'0:03.801',85.60240828
'0:03.805',124.6689754
'0:03.809',154.0933886
'0:03.813',141.6898667
'0:03.816',137.6157172
'0:03.820',150.8340689
'0:03.824',183.7441434
'0:03.828',212.8516783
'0:03.832',221.7242706
'0:03.836',220.6830991
'0:03.840',232.271791
'0:03.844',260.836106
'0:03.848',288.5855911
'0:03.852',300.717503
'0:03.855',318.2363459
'0:03.859',312.5778049
'0:03.863',354.3604717
'0:03.867',380.5255653
'0:03.871',394.558747
'0:03.875',399.4024581
'0:03.879',409.6331002
'0:03.883',431.7693126
'0:03.887',456.5763564
'0:03.891',472.1939295
'0:03.895',463.8192888
'0:03.898',458.9755777
'0:03.902',462.7781173
'0:03.906',469.2062199
'0:03.910',469.2062199
'0:03.914',462.7781173
'0:03.918',442.5431747
'0:03.922',429.8680428
'0:03.926',434.7117539
'0:03.930',433.3537041
'0:03.934',427.6951631
'0:03.938',409.0898803
'0:03.941',412.0775899
'0:03.945',399.945678
'0:03.949',383.7848849
'0:03.953',363.2783323
'0:03.957',344.4014395
'0:03.961',329.8250379
'0:03.965',317.1951744
'0:03.969',301.2607229
'0:03.973',282.1122202
'0:03.977',263.2353274
'0:03.980',263.5069374
'0:03.984',265.1365972
'0:03.988',250.3338539
'0:03.992',249.2474141
'0:03.996',246.2597044
'0:04.000',229.8273013
'0:04.004',231.7285711
'0:04.008',232.543401
'0:04.012',230.9137412
'0:04.016',229.0124714
'0:04.020',244.403703
'0:04.023',245.1732645
'0:04.027',247.0745343
'0:04.031',246.8029243
'0:04.035',244.9469229
'0:04.039',243.3172631
'0:04.043',244.132093
'0:04.047',230.0989113
'0:04.051',230.3705213
'0:04.055',243.3172631
'0:04.059',225.2552002
'0:04.063',227.1112017
'0:04.066',244.6753129
'0:04.070',274.5976777
'0:04.074',287.2728096
'0:04.078',288.3139811
'0:04.082',292.1165207
'0:04.086',308.8205337
'0:04.090',320.6808357
'0:04.094',333.0843575
'0:04.098',334.7140173
'0:04.102',323.8948869
'0:04.105',325.5245468
'0:04.109',320.6808357
'0:04.113',300.1742831
'0:04.117',285.9147597
'0:04.121',290.2152509
'0:04.125',274.8692877
'0:04.129',270.7951382
'0:04.133',251.3750255
'0:04.137',252.4614653
'0:04.141',255.449175
'0:04.145',255.9923949
'0:04.148',253.2762952
'0:04.152',250.8770739
'0:04.156',251.1034155
'0:04.160',253.5479052
'0:04.164',254.3627351
'0:04.168',252.4614653
'0:04.172',265.4082072
'0:04.176',265.1365972
'0:04.180',267.8526969
'0:04.184',285.0999298
'0:04.188',282.9270501
'0:04.191',311.5366334
'0:04.195',449.8313755
'0:04.199',619.1349223
'0:04.203',779.5206084
'0:04.207',776.8497771
'0:04.211',636.6537652
'0:04.215',559.0185827
'0:04.219',457.8891379
'0:04.223',422.579842
'0:04.227',425.5675517
'0:04.230',289.9436409
'0:04.234',71.29761662
'0:04.238',-20.64235757
'0:04.242',34.08705099
'0:04.246',153.5501686
'0:04.250',287.2728096
'0:04.254',360.2906227
'0:04.258',371.381363
'0:04.262',341.4589982
'0:04.266',327.1542066
'0:04.270',334.4424074
'0:04.273',367.3072135
'0:04.277',381.6120052
'0:04.281',359.7926711
'0:04.285',332.2695276
'0:04.289',334.1707974
'0:04.293',360.064281
'0:04.297',374.8670243
'0:04.301',375.4102442
'0:04.305',351.4180304
'0:04.309',350.0599805
'0:04.313',386.7273262
'0:04.316',415.8348611
'0:04.320',420.9501822
'0:04.324',402.1185578
'0:04.328',415.2916412
'0:04.332',445.757226
'0:04.336',457.8891379
'0:04.340',467.8934384
'0:04.344',467.6218284
'0:04.348',478.1240805
'0:04.352',505.104004
'0:04.355',532.5818791
'0:04.359',545.5286209
'0:04.363',532.5818791
'0:04.367',542.8125212
'0:04.371',550.100722
'0:04.375',575.4509857
'0:04.379',574.0929359
'0:04.383',564.6771237
'0:04.387',559.0185827
'0:04.391',563.3190738
'0:04.395',570.6072746
'0:04.398',555.2160431
'0:04.402',532.8534891
'0:04.406',526.6517281
'0:04.410',527.466558
'0:04.414',517.2359159
'0:04.418',504.5607841
'0:04.422',499.6718046
'0:04.426',477.0376406
'0:04.430',461.1484575
'0:04.434',450.6462054
'0:04.438',453.0454268
'0:04.441',432.5841425
'0:04.445',427.1519431
'0:04.449',410.99115
'0:04.453',399.945678
'0:04.457',386.7273262
'0:04.461',367.3072135
'0:04.465',346.0310993
'0:04.469',344.6730495
'0:04.473',331.9979177
'0:04.477',319.5943958
'0:04.480',317.964736
'0:04.484',296.9602318
'0:04.488',294.787352
'0:04.492',297.2318417
'0:04.496',284.8283199
'0:04.500',299.9026731
'0:04.504',295.058962
'0:04.508',292.9313506
'0:04.512',295.6021819
'0:04.516',299.1331115
'0:04.520',313.6642448
'0:04.523',309.3637537
'0:04.527',308.0057038
'0:04.531',310.7218035
'0:04.535',313.3926348
'0:04.539',296.6886218
'0:04.543',293.7009122
'0:04.547',291.0300808
'0:04.551',307.4624839
'0:04.555',324.9813268
'0:04.559',325.7961567
'0:04.563',325.2529368
'0:04.566',323.6685453
'0:04.570',322.8537154
'0:04.574',338.7428985
'0:04.578',339.0145085
'0:04.582',324.1664969
'0:04.586',324.1664969
'0:04.590',306.647654
'0:04.594',305.3348725
'0:04.598',289.128811
'0:04.602',290.2152509
'0:04.605',274.3260678
'0:04.609',257.8483964
'0:04.613',240.8727734
'0:04.617',239.7863335
'0:04.621',223.6255404
'0:04.625',224.1687603
'0:04.629',223.8971504
'0:04.633',207.4647473
'0:04.637',207.1931373
'0:04.641',190.9870759
'0:04.645',206.3783074
'0:04.648',205.0202576
'0:04.652',205.2918675
'0:04.656',190.9870759
'0:04.660',191.5302958
'0:04.664',189.6742944
'0:04.668',156.49261
'0:04.672',111.2242819
'0:04.676',112.5370634
'0:04.680',201.2629864
'0:04.684',302.8903827
'0:04.688',398.8592381
'0:04.691',458.9755777
'0:04.695',578.1218171
'0:04.699',757.9728843
'0:04.703',746.9274122
'0:04.707',866.0736516
'0:04.711',849.0980286
'0:04.715',578.1218171
'0:04.719',157.3074399
'0:04.723',-16.83981802
'0:04.727',-8.51044567
'0:04.730',64.28102578
'0:04.734',118.4672144
'0:04.738',158.1222698
'0:04.742',149.2044091
'0:04.746',101.4915914
'0:04.750',74.0137163
'0:04.754',68.89839524
'0:04.758',116.8828229
'0:04.762',126.5702451
'0:04.766',103.9360811
'0:04.770',95.56144044
'0:04.773',100.6767615
'0:04.777',142.1878183
'0:04.781',153.8217786
'0:04.785',153.8217786
'0:04.789',132.5003961
'0:04.793',118.4672144
'0:04.797',154.8629501
'0:04.801',165.1388606
'0:04.805',169.1677418
'0:04.809',151.3772889
'0:04.813',166.994862
'0:04.816',198.2752767
'0:04.820',224.1687603
'0:04.824',232.543401
'0:04.828',234.1277925
'0:04.832',232.271791
'0:04.836',260.2928861
'0:04.840',284.5567099
'0:04.844',294.787352
'0:04.848',299.1331115
'0:04.852',312.5778049
'0:04.855',337.3848487
'0:04.859',345.7594894
'0:04.863',358.7062312
'0:04.867',348.4303207
'0:04.871',344.9446595
'0:04.875',351.6896403
'0:04.879',358.7062312
'0:04.883',341.1873882
'0:04.887',333.3559675
'0:04.891',328.5122564
'0:04.895',331.9979177
'0:04.898',323.1253254
'0:04.902',323.8948869
'0:04.906',301.5323329
'0:04.910',296.1454019
'0:04.914',297.7750617
'0:04.918',287.7707612
'0:04.922',274.5976777
'0:04.926',269.7086983
'0:04.930',247.6177542
'0:04.934',232.271791
'0:04.938',221.9958806
'0:04.941',224.1687603
'0:04.945',219.3250492
'0:04.949',213.9381182
'0:04.953',199.3617166
'0:04.957',220.1398791
'0:04.961',221.1810507
'0:04.965',248.4325841
'0:04.969',228.7408615
'0:04.973',185.6001449
'0:04.977',175.9127227
'0:04.980',173.196623
'0:04.984',164.8672506
'0:04.988',161.607931
'0:04.992',182.3860936
'0:04.996',188.3162445
'0:05.000',188.0446346
'0:05.004',197.7320568
'0:05.008',193.4315656
'0:05.012',197.1888368
'0:05.016',202.8473778
'0:05.020',218.7818293
'0:05.023',212.8516783
'0:05.027',209.5923587
'0:05.031',228.1976415
'0:05.035',247.8893642
'0:05.039',263.7785473
'0:05.043',260.5644961
'0:05.047',274.3260678
'0:05.051',275.6388493
'0:05.055',293.9725221
'0:05.059',309.6353636
'0:05.063',307.1908739
'0:05.066',291.0300808
'0:05.070',308.2773138
'0:05.074',308.0057038
'0:05.078',291.5733007
'0:05.082',291.3016908
'0:05.086',290.2152509
'0:05.090',289.672031
'0:05.094',305.0632625
'0:05.098',305.0632625
'0:05.102',290.2152509
'0:05.105',290.7584708
'0:05.109',304.5200426
'0:05.113',286.4579797
'0:05.117',287.7707612
'0:05.121',289.400421
'0:05.125',288.8572011
'0:05.129',302.0755528
'0:05.133',300.445893
'0:05.137',302.0755528
'0:05.141',304.5200426
'0:05.145',303.9768226
'0:05.148',316.6519545
'0:05.152',298.8615016
'0:05.156',301.2607229
'0:05.160',395.9167968
'0:05.164',561.689414
'0:05.168',729.1369593
'0:05.172',831.8507956
'0:05.176',788.710079
'0:05.180',737.7379417
'0:05.184',677.0783821
'0:05.188',607.0030103
'0:05.191',617.2336525
'0:05.195',507.2316154
'0:05.199',231.7285711
'0:05.203',89.3596795
'0:05.207',128.4715149
'0:05.211',201.8062063
'0:05.215',325.5245468
'0:05.219',434.440144
'0:05.223',472.4655395
'0:05.227',447.3868858
'0:05.230',426.6539915
'0:05.234',440.3702949
'0:05.238',488.6263326
'0:05.242',526.9233381
'0:05.246',526.9233381
'0:05.250',511.8037165
'0:05.254',506.1451755
'0:05.258',546.6150608
'0:05.262',567.076345
'0:05.266',573.006496
'0:05.270',546.8866707
'0:05.273',554.6728232
'0:05.277',588.1261176
'0:05.281',622.3489735
'0:05.285',617.7768724
'0:05.289',629.0939544
'0:05.293',634.2092755
'0:05.297',662.2756389
'0:05.301',680.0660918
'0:05.305',680.0660918
'0:05.309',678.436432
'0:05.313',681.3788733
'0:05.316',704.6015255
'0:05.320',736.1082818
'0:05.324',754.9851746
'0:05.328',757.4296643
'0:05.332',761.1869356
'0:05.336',780.8786583
'0:05.340',809.7145832
'0:05.344',814.0603427
'0:05.348',820.4884453
'0:05.352',824.2909848
'0:05.355',825.1058147
'0:05.359',820.7600552
'0:05.363',826.6902062
'0:05.367',802.6979924
'0:05.371',790.8376904
'0:05.375',773.5904574
'0:05.379',767.3886965
'0:05.383',788.438469
'0:05.387',781.1502682
'0:05.391',756.0716145
'0:05.395',755.8000045
'0:05.398',762.5449854
'0:05.402',766.0306467
'0:05.406',745.8409724
'0:05.410',723.43315
'0:05.414',706.185917
'0:05.418',709.7168466
'0:05.422',696.2268849
'0:05.426',678.164822
'0:05.430',657.6582694
'0:05.434',655.259048
'0:05.438',640.6826464
'0:05.441',643.1271361
'0:05.445',641.7690863
'0:05.449',622.6205835
'0:05.453',620.7193137
'0:05.457',621.2625337
'0:05.461',622.3489735
'0:05.465',621.8057536
'0:05.469',619.6781422
'0:05.473',633.3944456
'0:05.477',633.1228356
'0:05.480',634.7524954
'0:05.484',650.9132885
'0:05.488',633.1228356
'0:05.492',647.1560173
'0:05.496',646.0695774
'0:05.500',646.8844073
'0:05.504',663.3168104
'0:05.508',646.0695774
'0:05.512',645.2547475
'0:05.516',674.9055024
'0:05.520',688.6670741
'0:05.523',690.0251239
'0:05.527',692.4696136
'0:05.531',707.5439669
'0:05.535',719.1326588
'0:05.539',717.0050474
'0:05.543',734.7955003
'0:05.547',736.9231117
'0:05.551',736.6515018
'0:05.555',733.1658405
'0:05.559',715.1037776
'0:05.563',715.9186076
'0:05.566',716.7334375
'0:05.570',715.6469976
'0:05.574',697.8565447
'0:05.578',696.7701048
'0:05.582',696.2268849
'0:05.586',680.6093117
'0:05.590',695.9552749
'0:05.594',693.5107852
'0:05.598',692.4696136
'0:05.602',693.0128336
'0:05.605',693.5107852
'0:05.609',692.4696136
'0:05.613',690.2967339
'0:05.617',689.210294
'0:05.621',689.481904
'0:05.625',689.753514
'0:05.629',688.9386841
'0:05.633',671.6914511
'0:05.637',655.530658
'0:05.641',670.3334012
'0:05.645',807.0437518
'0:05.648',941.5359544
'0:05.652',1054.797311
'0:05.656',1084.448066
'0:05.660',1033.747539
'0:05.664',1045.064621
'0:05.668',1025.418166
'0:05.672',1078.246305
'0:05.676',1041.307349
'0:05.680',813.5171228
'0:05.684',541.2281297
'0:05.688',468.1650483
'0:05.691',501.5730744
'0:05.695',584.0972364
'0:05.699',682.4653131
'0:05.703',735.8366719
'0:05.707',714.5605577
'0:05.711',692.1980037
'0:05.715',670.3334012
'0:05.719',691.6547837
'0:05.723',724.5195899
'0:05.727',709.7168466
'0:05.730',679.5228718
'0:05.734',657.1150495
'0:05.738',669.7901813
'0:05.742',697.5849347
'0:05.746',703.2434757
'0:05.750',680.3377017
'0:05.754',659.5595392
'0:05.758',681.6504832
'0:05.762',703.7866956
'0:05.766',712.387678
'0:05.770',696.4984948
'0:05.773',693.0128336
'0:05.777',709.4452366
'0:05.781',742.8532627
'0:05.785',753.6271248
'0:05.789',759.3309341
'0:05.793',757.4296643
'0:05.797',770.3764062
'0:05.801',799.755551
'0:05.805',811.072633
'0:05.809',821.0316652
'0:05.813',805.685702
'0:05.816',816.4595641
'0:05.820',841.5382178
'0:05.824',851.7688599
'0:05.828',849.9128585
'0:05.832',822.389715
'0:05.836',815.9163441
'0:05.840',805.1424821
'0:05.844',813.5171228
'0:05.848',796.7678414
'0:05.852',787.8952491
'0:05.855',765.5326951
'0:05.859',753.1291732
'0:05.863',744.4829225
'0:05.867',744.2113126
'0:05.871',720.2190987
'0:05.875',714.5605577
'0:05.879',716.4618275
'0:05.883',706.729137
'0:05.887',692.7412236
'0:05.891',671.1482311
'0:05.895',648.7856771
'0:05.898',632.8512256
'0:05.902',621.8057536
'0:05.906',608.0894502
'0:05.910',588.1261176
'0:05.914',566.8047351
'0:05.918',565.4919536
'0:05.922',552.8168217
'0:05.926',540.1416899
'0:05.930',537.6972002
'0:05.934',531.7670492
'0:05.938',529.6394378
'0:05.941',532.8534891
'0:05.945',520.9931871
'0:05.949',519.9067472
'0:05.953',514.2482062
'0:05.957',510.762545
'0:05.961',512.8901564
'0:05.965',517.2359159
'0:05.969',516.9643059
'0:05.973',497.0009733
'0:05.977',494.0132636
'0:05.980',494.2848736
'0:05.984',512.0753265
'0:05.988',512.3469365
'0:05.992',495.3713135
'0:05.996',494.0132636
'0:06.000',492.7004821
'0:06.004',508.0464453
'0:06.008',507.7748353
'0:06.012',493.243702
'0:06.016',508.8612752
'0:06.020',506.1451755
'0:06.023',504.5607841
'0:06.027',505.6019556
'0:06.031',491.6140422
'0:06.035',475.9512007
'0:06.039',457.6175279
'0:06.043',454.6750866
'0:06.047',437.9710735
'0:06.051',424.4811118
'0:06.055',425.5675517
'0:06.059',407.2338788
'0:06.063',404.2461692
'0:06.066',388.0853761
'0:06.070',374.3238044
'0:06.074',359.7926711
'0:06.078',372.6941445
'0:06.082',368.1220434
'0:06.086',368.3936534
'0:06.090',356.8049614
'0:06.094',358.9778412
'0:06.098',355.1753016
'0:06.102',334.9856273
'0:06.105',335.2572373
'0:06.109',322.8537154
'0:06.113',324.4381069
'0:06.117',321.2240556
'0:06.121',332.5411376
'0:06.125',409.0898803
'0:06.129',565.4919536
'0:06.133',738.2811616
'0:06.137',837.7809466
'0:06.141',725.8776397
'0:06.145',567.076345
'0:06.148',418.5509608
'0:06.152',330.3682579
'0:06.156',327.6974265
'0:06.160',257.5767864
'0:06.164',50.29311242
'0:06.168',-79.40064734
'0:06.172',-63.73780584
'0:06.176',3.62146624
'0:06.180',145.1755279
'0:06.184',250.8770739
'0:06.188',316.3803445
'0:06.191',302.3471628
'0:06.195',263.0089858
'0:06.199',265.9514271
'0:06.203',293.2029606
'0:06.207',338.4712886
'0:06.211',331.9979177
'0:06.215',300.989113
'0:06.219',286.4579797
'0:06.223',320.6808357
'0:06.227',345.4878794
'0:06.230',360.2906227
'0:06.234',336.5700188
'0:06.238',322.3104955
'0:06.242',334.7140173
'0:06.246',370.8381431
'0:06.250',371.924583
'0:06.254',369.7517032
'0:06.258',371.924583
'0:06.262',379.7107354
'0:06.266',413.4356398
'0:06.270',432.3125325
'0:06.273',418.0077409
'0:06.277',437.1562436
'0:06.281',441.4567348
'0:06.285',456.5763564
'0:06.289',477.5808606
'0:06.293',481.6097417
'0:06.297',469.2062199
'0:06.301',472.4655395
'0:06.305',485.4122813
'0:06.309',489.9843824
'0:06.313',480.5685702
'0:06.316',469.4778298
'0:06.320',454.9466965
'0:06.324',465.7205586
'0:06.328',454.4034766
'0:06.332',431.7693126
'0:06.336',406.4190489
'0:06.340',374.3238044
'0:06.344',366.4923836
'0:06.348',354.6320817
'0:06.352',317.7383943
'0:06.355',294.5157421
'0:06.359',276.9968991
'0:06.363',266.494647
'0:06.367',254.6343451
'0:06.371',236.0290623
'0:06.375',214.2097282
'0:06.379',180.7564338
'0:06.383',169.1677418
'0:06.387',156.221
'0:06.391',137.8873271
'0:06.395',117.4260429
'0:06.398',100.4051515
'0:06.402',87.73001969
'0:06.406',74.55693624
'0:06.410',72.65566646
'0:06.414',52.42072384
'0:06.418',51.60589394
'0:06.422',54.05038365
'0:06.426',40.83203187
'0:06.430',40.5604219
'0:06.434',21.41191915
'0:06.438',19.82752767
'0:06.441',20.91396754
'0:06.445',23.04157896
'0:06.449',7.96722573
'0:06.453',6.60917589
'0:06.457',4.16468618
'0:06.461',-11.45288699
'0:06.465',-9.0536656
'0:06.469',-8.51044567
'0:06.473',-10.09483715
'0:06.477',-27.38733845
'0:06.480',-26.57250854
'0:06.484',-25.48606867
'0:06.488',-10.09483715
'0:06.492',-11.45288699
'0:06.496',-26.57250854
'0:06.500',-9.0536656
'0:06.504',-9.82322718
'0:06.508',-10.90966705
'0:06.512',-26.30089858
'0:06.516',-24.94284874
'0:06.520',-25.2144587
'0:06.523',-26.57250854
'0:06.527',-42.73330165
'0:06.531',-41.37525181
'0:06.535',-56.49487336
'0:06.539',-72.38405649
'0:06.543',-73.74210634
'0:06.547',-90.71772934
'0:06.551',-105.294131
'0:06.555',-119.5536543
'0:06.559',-120.0968742
'0:06.563',-138.1589371
'0:06.566',-138.702157
'0:06.570',-137.6157172
'0:06.574',-136.5292773
'0:06.578',-136.3029357
'0:06.582',-152.7353387
'0:06.586',-152.7353387
'0:06.590',-153.0069487
'0:06.594',-153.0069487
'0:06.598',-167.809692
'0:06.602',-166.994862
'0:06.605',-167.809692
'0:06.609',-184.5589733
'0:06.613',-91.26094928
'0:06.617',14.7122066
'0:06.621',109.8662321
'0:06.625',134.6732758
'0:06.629',68.08356533
'0:06.633',115.7963831
'0:06.637',114.7099432
'0:06.641',167.809692
'0:06.645',253.5479052
'0:06.648',161.879541
'0:06.652',-135.4881058
'0:06.656',-343.8582196
'0:06.660',-362.4635024
'0:06.664',-300.717503
'0:06.668',-228.1976415
'0:06.672',-171.6122315
'0:06.676',-165.6820805
'0:06.680',-187.7730246
'0:06.684',-222.8107105
'0:06.688',-224.9835902
'0:06.691',-193.7031756
'0:06.695',-186.6865847
'0:06.699',-184.785315
'0:06.703',-215.7941196
'0:06.707',-221.7242706
'0:06.711',-196.6908852
'0:06.715',-174.8262828
'0:06.719',-183.4725334
'0:06.723',-208.8227971
'0:06.727',-217.1521695
'0:06.730',-198.8184966
'0:06.734',-179.126774
'0:06.738',-183.2009235
'0:06.742',-203.3905978
'0:06.746',-197.4604468
'0:06.750',-169.4393518
'0:06.754',-151.6488989
'0:06.758',-150.290849
'0:06.762',-165.6820805
'0:06.766',-176.4559426
'0:06.770',-169.1677418
'0:06.773',-154.3649985
'0:06.777',-151.1056789
'0:06.781',-147.0767977
'0:06.785',-157.8506598
'0:06.789',-152.7353387
'0:06.793',-139.245377
'0:06.797',-150.8340689
'0:06.801',-159.7519296
'0:06.805',-170.2541817
'0:06.809',-184.0157534
'0:06.813',-188.0446346
'0:06.816',-182.6577035
'0:06.820',-206.3783074
'0:06.824',-231.1853512
'0:06.828',-245.7164845
'0:06.832',-252.4614653
'0:06.836',-263.5069374
'0:06.840',-269.2107467
'0:06.844',-308.5489238
'0:06.848',-323.1253254
'0:06.852',-331.7263077
'0:06.855',-343.8582196
'0:06.859',-363.8215523
'0:06.863',-385.6408864
'0:06.867',-416.649691
'0:06.871',-426.3823816
'0:06.875',-439.2838551
'0:06.879',-474.0951993
'0:06.883',-494.2848736
'0:06.887',-510.490935
'0:06.891',-522.079627
'0:06.895',-519.3635273
'0:06.898',-536.8823703
'0:06.902',-539.5984699
'0:06.906',-540.1416899
'0:06.910',-537.1539802
'0:06.914',-549.5575021
'0:06.918',-549.0142822
'0:06.922',-552.2736018
'0:06.926',-569.5208348
'0:06.930',-566.2615151
'0:06.934',-563.3190738
'0:06.938',-563.5906838
'0:06.941',-565.7635635
'0:06.945',-566.2615151
'0:06.949',-563.8622938
'0:06.953',-576.5374256
'0:06.957',-575.7225957
'0:06.961',-593.7846586
'0:06.965',-594.8710984
'0:06.969',-609.1306218
'0:06.973',-606.1881804
'0:06.977',-605.9165705
'0:06.980',-592.1549988
'0:06.984',-593.2414386
'0:06.988',-590.525339
'0:06.992',-571.4221045
'0:06.996',-571.4221045
'0:07.000',-572.4632761
'0:07.004',-572.734886
'0:07.008',-586.4964578
'0:07.012',-583.8256264
'0:07.016',-584.3688463
'0:07.020',-601.8876893
'0:07.023',-601.3444693
'0:07.027',-615.0607727
'0:07.031',-644.213576
'0:07.035',-659.5595392
'0:07.039',-677.6216021
'0:07.043',-679.5228718
'0:07.047',-694.0540051
'0:07.051',-690.2967339
'0:07.055',-704.6015255
'0:07.059',-705.9143071
'0:07.063',-708.0871868
'0:07.066',-707.5439669
'0:07.070',-719.6758788
'0:07.074',-716.7334375
'0:07.078',-718.3178289
'0:07.082',-736.3798918
'0:07.086',-735.3387203
'0:07.090',-747.9685838
'0:07.094',-730.1781309
'0:07.098',-747.4706322
'0:07.102',-732.8942306
'0:07.105',-624.2502433
'0:07.109',-500.7582445
'0:07.113',-356.2617415
'0:07.117',-392.6574772
'0:07.121',-517.5075259
'0:07.125',-532.3102691
'0:07.129',-601.0728594
'0:07.133',-630.7236142
'0:07.137',-606.4597904
'0:07.141',-742.5816528
'0:07.145',-979.5613499
'0:07.148',-1086.892556
'0:07.152',-1044.023449
'0:07.156',-937.2354632
'0:07.160',-804.5992621
'0:07.164',-718.8610489
'0:07.168',-692.4696136
'0:07.172',-748.5118037
'0:07.176',-787.0804192
'0:07.180',-780.0638283
'0:07.184',-739.0959915
'0:07.188',-728.3221294
'0:07.191',-727.5072995
'0:07.195',-746.1125823
'0:07.199',-742.8532627
'0:07.203',-706.729137
'0:07.207',-696.2268849
'0:07.211',-690.8399538
'0:07.215',-706.457527
'0:07.219',-690.0251239
'0:07.223',-674.4075508
'0:07.227',-647.6992372
'0:07.230',-639.0529866
'0:07.234',-651.9997284
'0:07.238',-636.6537652
'0:07.242',-609.1306218
'0:07.246',-584.0972364
'0:07.250',-571.9653245
'0:07.254',-581.6527467
'0:07.258',-567.347955
'0:07.262',-543.3557412
'0:07.266',-519.9067472
'0:07.270',-505.6472239
'0:07.273',-512.3469365
'0:07.277',-482.6961816
'0:07.281',-462.5065073
'0:07.285',-455.2183065
'0:07.289',-453.5886467
'0:07.293',-458.4323578
'0:07.297',-462.5065073
'0:07.301',-460.0620176
'0:07.305',-454.1318666
'0:07.309',-467.3502184
'0:07.313',-470.2926597
'0:07.316',-490.5276024
'0:07.320',-489.7127725
'0:07.324',-500.7582445
'0:07.328',-497.8158032
'0:07.332',-515.8778661
'0:07.336',-534.4831489
'0:07.340',-549.8291121
'0:07.344',-577.8954754
'0:07.348',-591.0685589
'0:07.352',-608.8590118
'0:07.355',-643.670356
'0:07.359',-643.3987461
'0:07.363',-687.5806342
'0:07.367',-715.3753876
'0:07.371',-747.9685838
'0:07.375',-783.5947579
'0:07.379',-800.8419909
'0:07.383',-829.6779159
'0:07.387',-841.2666078
'0:07.391',-841.8098278
'0:07.395',-845.567099
'0:07.398',-846.6535389
'0:07.402',-858.2422308
'0:07.406',-853.1269098
'0:07.410',-853.6701297
'0:07.414',-857.4274009
'0:07.418',-858.5138408
'0:07.422',-854.4849596
'0:07.426',-834.5216269
'0:07.430',-834.5216269
'0:07.434',-836.4228967
'0:07.438',-836.6945067
'0:07.441',-833.706797
'0:07.445',-830.7643557
'0:07.449',-845.838709
'0:07.453',-846.9251488
'0:07.457',-848.0115887
'0:07.461',-862.3163803
'0:07.465',-858.7854508
'0:07.469',-857.6990109
'0:07.473',-843.9827075
'0:07.477',-845.023879
'0:07.480',-842.0814377
'0:07.484',-822.661325
'0:07.488',-822.1181051
'0:07.492',-823.2045449
'0:07.496',-823.2045449
'0:07.500',-821.3032752
'0:07.504',-818.9040538
'0:07.508',-833.4351871
'0:07.512',-833.706797
'0:07.516',-834.7932369
'0:07.520',-849.6412485
'0:07.523',-846.9251488
'0:07.527',-861.2299405
'0:07.531',-861.5015504
'0:07.535',-878.2055635
'0:07.539',-877.3907336
'0:07.543',-875.4894638
'0:07.547',-889.5226455
'0:07.551',-888.7078156
'0:07.555',-889.5226455
'0:07.559',-889.7942555
'0:07.563',-872.5470225
'0:07.566',-870.3741427
'0:07.570',-868.5181413
'0:07.574',-883.5924945
'0:07.578',-867.9749214
'0:07.582',-869.0160929
'0:07.586',-867.4317014
'0:07.590',-879.5636133
'0:07.594',-846.9251488
'0:07.598',-725.8776397
'0:07.602',-590.525339
'0:07.605',-490.7992123
'0:07.609',-520.4499672
'0:07.613',-583.8256264
'0:07.617',-560.3313642
'0:07.621',-568.7060048
'0:07.625',-481.8813517
'0:07.629',-449.0165456
'0:07.633',-594.5994885
'0:07.637',-866.3452615
'0:07.641',-966.6146081
'0:07.645',-944.2520541
'0:07.648',-846.6535389
'0:07.652',-752.5859532
'0:07.656',-714.0173378
'0:07.660',-713.2025079
'0:07.664',-747.1990222
'0:07.668',-769.0183563
'0:07.672',-750.9562934
'0:07.676',-718.046219
'0:07.680',-697.3133247
'0:07.684',-707.8155768
'0:07.688',-728.3221294
'0:07.691',-699.7125461
'0:07.695',-671.963061
'0:07.699',-664.1316403
'0:07.703',-668.2057898
'0:07.707',-672.234671
'0:07.711',-649.872117
'0:07.715',-625.6082932
'0:07.719',-599.1715896
'0:07.723',-613.7479912
'0:07.727',-616.1472126
'0:07.730',-598.3567597
'0:07.734',-578.665037
'0:07.738',-566.5331251
'0:07.742',-560.1050225
'0:07.746',-561.689414
'0:07.750',-547.4298907
'0:07.754',-515.3346461
'0:07.758',-487.0419411
'0:07.762',-492.1572622
'0:07.766',-490.5276024
'0:07.770',-494.0132636
'0:07.773',-482.1529617
'0:07.777',-454.9466965
'0:07.781',-458.1607478
'0:07.785',-469.2514882
'0:07.789',-488.3547226
'0:07.793',-479.4821303
'0:07.797',-486.2271112
'0:07.801',-503.4743442
'0:07.805',-528.009778
'0:07.809',-563.3190738
'0:07.813',-557.6605328
'0:07.816',-551.4587719
'0:07.820',-583.0107965
'0:07.824',-587.3112877
'0:07.828',-607.0030103
'0:07.832',-604.0153007
'0:07.836',-614.5628211
'0:07.840',-628.0075145
'0:07.844',-646.8844073
'0:07.848',-650.9585569
'0:07.852',-681.3788733
'0:07.855',-691.3831738
'0:07.859',-704.6015255
'0:07.863',-708.0871868
'0:07.867',-728.3221294
'0:07.871',-726.6924696
'0:07.875',-737.1947217
'0:07.879',-749.3266336
'0:07.883',-767.1170865
'0:07.887',-771.462846
'0:07.891',-772.2324076
'0:07.895',-767.9319164
'0:07.898',-763.3598153
'0:07.902',-778.9773885
'0:07.906',-781.6934882
'0:07.910',-768.2035264
'0:07.914',-766.3022566
'0:07.918',-761.1869356
'0:07.922',-743.1248727
'0:07.926',-745.8409724
'0:07.930',-747.7422421
'0:07.934',-745.5693624
'0:07.938',-741.5404812
'0:07.941',-755.2567846
'0:07.945',-741.2688712
'0:07.949',-744.2113126
'0:07.953',-742.8532627
'0:07.957',-753.4007831
'0:07.961',-735.0671103
'0:07.965',-722.6635884
'0:07.969',-710.2600665
'0:07.973',-707.8155768
'0:07.977',-685.7246328
'0:07.980',-683.2801431
'0:07.984',-685.7246328
'0:07.988',-673.0495009
'0:07.992',-672.506281
'0:07.996',-667.11935
'0:08.000',-678.9796519
'0:08.004',-680.3377017
'0:08.008',-684.6381929
'0:08.012',-685.4530228
'0:08.016',-681.1525316
'0:08.020',-692.1980037
'0:08.023',-691.9263937
'0:08.027',-696.2268849
'0:08.031',-713.7457278
'0:08.035',-709.7168466
'0:08.039',-705.6426971
'0:08.043',-721.0339286
'0:08.047',-708.3587968
'0:08.051',-710.5316765
'0:08.055',-707.5439669
'0:08.059',-702.7002558
'0:08.063',-701.3422059
'0:08.066',-704.0583056
'0:08.070',-706.185917
'0:08.074',-704.0583056
'0:08.078',-684.3665829
'0:08.082',-683.2801431
'0:08.086',-699.7125461
'0:08.090',-622.8921935
'0:08.094',-470.5642697
'0:08.098',-345.4878794
'0:08.102',-286.7295896
'0:08.105',-379.4391254
'0:08.109',-466.5353885
'0:08.113',-528.8246079
'0:08.117',-564.9487336
'0:08.121',-520.1783572
'0:08.125',-596.2291483
'0:08.129',-824.2909848
'0:08.133',-950.453815
'0:08.137',-938.3219031
'0:08.141',-874.9915122
'0:08.145',-736.9231117
'0:08.148',-649.0572871
'0:08.152',-610.7602816
'0:08.156',-630.4520043
'0:08.160',-646.6127974
'0:08.164',-648.5140671
'0:08.168',-603.2004708
'0:08.172',-581.9243566
'0:08.176',-577.8954754
'0:08.180',-604.8301306
'0:08.184',-594.3278785
'0:08.188',-572.2369344
'0:08.191',-536.0675404
'0:08.195',-542.8125212
'0:08.199',-548.7426722
'0:08.203',-556.302483
'0:08.207',-523.9356284
'0:08.211',-490.5276024
'0:08.215',-492.9720921
'0:08.219',-493.7416537
'0:08.223',-501.8446844
'0:08.227',-459.5187977
'0:08.230',-444.7160544
'0:08.234',-427.4235531
'0:08.238',-424.2095018
'0:08.242',-417.192911
'0:08.246',-394.287137
'0:08.250',-365.4512121
'0:08.254',-346.5743193
'0:08.258',-355.7185215
'0:08.262',-347.6607592
'0:08.266',-328.5122564
'0:08.270',-302.6187728
'0:08.273',-298.0466717
'0:08.277',-303.1619927
'0:08.281',-310.1785836
'0:08.285',-324.9813268
'0:08.289',-317.4667844
'0:08.293',-313.9358548
'0:08.297',-317.964736
'0:08.301',-323.6685453
'0:08.305',-338.4712886
'0:08.309',-363.0067224
'0:08.313',-359.2494511
'0:08.316',-364.9079921
'0:08.320',-371.381363
'0:08.324',-385.3692764
'0:08.328',-392.9290872
'0:08.332',-389.7150359
'0:08.336',-395.3735769
'0:08.340',-416.921301
'0:08.344',-415.0200312
'0:08.348',-423.9378919
'0:08.352',-436.0698038
'0:08.355',-455.7615265
'0:08.359',-461.4200675
'0:08.363',-477.5808606
'0:08.367',-471.6507096
'0:08.371',-483.2394016
'0:08.375',-500.4866345
'0:08.379',-505.6472239
'0:08.383',-523.1660669
'0:08.387',-518.5486974
'0:08.391',-529.8657794
'0:08.395',-530.1373894
'0:08.398',-534.7547588
'0:08.402',-521.2647971
'0:08.406',-533.668319
'0:08.410',-527.466558
'0:08.414',-526.9233381
'0:08.418',-546.8866707
'0:08.422',-549.2858921
'0:08.426',-547.1582807
'0:08.430',-558.2037527
'0:08.434',-556.302483
'0:08.438',-544.1705711
'0:08.441',-547.7015007
'0:08.445',-545.2570109
'0:08.449',-539.5984699
'0:08.453',-537.4255902
'0:08.457',-509.9477151
'0:08.461',-498.6306331
'0:08.465',-495.6429234
'0:08.469',-488.0831127
'0:08.473',-485.1406713
'0:08.477',-474.3668093
'0:08.480',-479.7537403
'0:08.484',-477.0376406
'0:08.488',-469.7494398
'0:08.492',-467.0786085
'0:08.496',-471.1074896
'0:08.500',-475.9512007
'0:08.504',-474.6384192
'0:08.508',-484.0542315
'0:08.512',-480.5685702
'0:08.516',-499.6718046
'0:08.520',-504.2891741
'0:08.523',-504.5607841
'0:08.527',-499.6718046
'0:08.531',-495.9145334
'0:08.535',-497.0009733
'0:08.539',-516.421086
'0:08.543',-501.0298545
'0:08.547',-498.6306331
'0:08.551',-495.0997035
'0:08.555',-494.2848736
'0:08.559',-496.4577533
'0:08.563',-498.0874131
'0:08.566',-496.4577533
'0:08.570',-493.243702
'0:08.574',-492.1572622
'0:08.578',-493.7416537
'0:08.582',-402.3901677
'0:08.586',-295.8737919
'0:08.590',-182.6577035
'0:08.594',-172.1554514
'0:08.598',-269.2107467
'0:08.602',-284.2850999
'0:08.605',-301.5323329
'0:08.609',-283.47027
'0:08.613',-183.4725334
'0:08.617',-228.4692515
'0:08.621',-462.2348974
'0:08.625',-620.9909237
'0:08.629',-635.2957154
'0:08.633',-554.1296032
'0:08.637',-452.5022068
'0:08.641',-384.3281048
'0:08.645',-361.6486725
'0:08.648',-362.7351124
'0:08.652',-394.558747
'0:08.656',-382.698445
'0:08.660',-340.1009484
'0:08.664',-318.2363459
'0:08.668',-327.1542066
'0:08.672',-337.3848487
'0:08.676',-330.3682579
'0:08.680',-310.7218035
'0:08.684',-273.5112379
'0:08.688',-261.9225459
'0:08.691',-283.47027
'0:08.695',-292.1165207
'0:08.699',-262.1941559
'0:08.703',-229.5556914
'0:08.707',-230.6421312
'0:08.711',-230.0989113
'0:08.715',-239.2883819
'0:08.719',-214.2097282
'0:08.723',-184.2873634
'0:08.727',-182.9293135
'0:08.730',-178.3572124
'0:08.734',-171.3406215
'0:08.738',-150.562459
'0:08.742',-122.5413639
'0:08.746',-103.1212512
'0:08.750',-95.83305041
'0:08.754',-103.6644712
'0:08.758',-99.90719993
'0:08.762',-90.44611937
'0:08.766',-71.84083656
'0:08.770',-79.12903737
'0:08.773',-85.33079831
'0:08.777',-66.99712546
'0:08.781',-59.98053462
'0:08.785',-56.49487336
'0:08.789',-60.79536452
'0:08.793',-82.07147869
'0:08.797',-81.30191711
'0:08.801',-92.07577918
'0:08.805',-89.08806953
'0:08.809',-108.2365723
'0:08.813',-127.928295
'0:08.816',-143.8174781
'0:08.820',-140.3318168
'0:08.824',-169.9825717
'0:08.828',-186.4149748
'0:08.832',-205.5634775
'0:08.836',-238.473552
'0:08.840',-251.6466354
'0:08.844',-265.6798171
'0:08.848',-298.0466717
'0:08.852',-315.8371246
'0:08.855',-333.0843575
'0:08.859',-347.9323691
'0:08.863',-346.3027093
'0:08.867',-361.9202825
'0:08.871',-362.7351124
'0:08.875',-379.1675155
'0:08.879',-378.1263439
'0:08.883',-392.9290872
'0:08.887',-392.3858672
'0:08.891',-393.4723071
'0:08.895',-409.6331002
'0:08.898',-408.0487087
'0:08.902',-422.579842
'0:08.906',-422.3082321
'0:08.910',-423.9378919
'0:08.914',-424.4811118
'0:08.918',-438.2426835
'0:08.922',-435.7981938
'0:08.926',-436.3414137
'0:08.930',-438.2426835
'0:08.934',-438.5142935
'0:08.938',-436.3414137
'0:08.941',-449.5597655
'0:08.945',-464.6341187
'0:08.949',-451.1894253
'0:08.953',-438.5142935
'0:08.957',-421.4934021
'0:08.961',-416.921301
'0:08.965',-413.1640298
'0:08.969',-399.4024581
'0:08.973',-388.356986
'0:08.977',-388.0853761
'0:08.980',-382.4268351
'0:08.984',-378.3979539
'0:08.988',-380.5255653
'0:08.992',-385.0976664
'0:08.996',-385.6408864
'0:09.000',-381.3403952
'0:09.004',-377.583124
'0:09.008',-378.6242955
'0:09.012',-382.4268351
'0:09.016',-398.5876282
'0:09.020',-394.8303569
'0:09.023',-392.3858672
'0:09.027',-393.7439171
'0:09.031',-396.4600168
'0:09.035',-396.4600168
'0:09.039',-393.4723071
'0:09.043',-391.0278174
'0:09.047',-391.5710373
'0:09.051',-393.7439171
'0:09.055',-378.6242955
'0:09.059',-376.7682941
'0:09.063',-373.5089745
'0:09.066',-372.6941445
'0:09.070',-374.5954143
'0:09.074',-360.8338426
'0:09.078',-267.5810869
'0:09.082',-143.0026482
'0:09.086',-46.2189629
'0:09.090',-68.08356533
'0:09.094',-134.9448858
'0:09.098',-105.8373509
'0:09.102',-107.9649623
'0:09.105',-84.5159684
'0:09.109',-10.90966705
'0:09.113',-119.0104344
'0:09.117',-389.4434259
'0:09.121',-539.5984699
'0:09.125',-525.0220683
'0:09.129',-454.1318666
'0:09.133',-344.6730495
'0:09.137',-292.9313506
'0:09.141',-277.811729
'0:09.145',-299.6763315
'0:09.148',-312.034585
'0:09.152',-294.5157421
'0:09.156',-266.2230371
'0:09.160',-248.4325841
'0:09.164',-247.0745343
'0:09.168',-272.696408
'0:09.172',-259.4780562
'0:09.176',-237.1155021
'0:09.180',-203.9338177
'0:09.184',-197.7320568
'0:09.188',-218.7818293
'0:09.191',-191.8019058
'0:09.195',-175.3695027
'0:09.199',-143.0026482
'0:09.203',-132.2287861
'0:09.207',-134.1300559
'0:09.211',-124.9405853
'0:09.215',-111.7675019
'0:09.219',-81.03030715
'0:09.223',-67.81195537
'0:09.227',-67.26873543
'0:09.230',-73.74210634
'0:09.234',-32.23104955
'0:09.238',-4.70790611
'0:09.242',10.90966705
'0:09.246',16.02498812
'0:09.250',25.48606867
'0:09.254',47.30540277
'0:09.258',57.80765487
'0:09.262',75.10015618
'0:09.266',66.18229556
'0:09.270',59.70892465
'0:09.273',63.73780584
'0:09.277',72.11244653
'0:09.281',73.74210634
'0:09.285',51.60589394
'0:09.289',30.60138974
'0:09.293',32.50265951
'0:09.297',37.34637061
'0:09.301',23.5847989
'0:09.305',20.37074761
'0:09.309',15.75337815
'0:09.313',0.13580498
'0:09.316',4.70790611
'0:09.320',6.60917589
'0:09.324',-11.72449696
'0:09.328',-45.94735293
'0:09.332',-61.06697449
'0:09.336',-59.70892465
'0:09.340',-60.52375456
'0:09.344',-77.22776759
'0:09.348',-92.61899912
'0:09.352',-107.4217424
'0:09.355',-107.6933524
'0:09.359',-109.5946221
'0:09.363',-110.409452
'0:09.367',-109.0514022
'0:09.371',-107.1501324
'0:09.375',-107.1501324
'0:09.379',-108.7797922
'0:09.383',-109.5946221
'0:09.387',-93.16221905
'0:09.391',-92.07577918
'0:09.395',-75.37176614
'0:09.398',-91.53255924
'0:09.402',-91.26094928
'0:09.406',-76.14132772
'0:09.410',-76.95615762
'0:09.414',-60.52375456
'0:09.418',-59.16570471
'0:09.422',-73.74210634
'0:09.426',-89.08806953
'0:09.430',-106.0636925
'0:09.434',-123.3561938
'0:09.438',-138.973767
'0:09.441',-138.1589371
'0:09.445',-138.4305471
'0:09.449',-123.6278038
'0:09.453',-124.1710237
'0:09.457',-122.5413639
'0:09.461',-105.294131
'0:09.465',-106.0636925
'0:09.469',-106.8785224
'0:09.473',-90.98933931
'0:09.477',-90.44611937
'0:09.480',-89.08806953
'0:09.484',-88.5448496
'0:09.488',-89.3596795
'0:09.492',-105.8373509
'0:09.496',-105.022521
'0:09.500',-120.0968742
'0:09.504',-120.0968742
'0:09.508',-121.4549241
'0:09.512',-137.6157172
'0:09.516',-136.3029357
'0:09.520',-135.7597157
'0:09.523',-136.5292773
'0:09.527',-137.3441072
'0:09.531',-136.8008873
'0:09.535',-135.7597157
'0:09.539',-135.2164958
'0:09.543',-135.7597157
'0:09.547',-136.3029357
'0:09.551',-120.6400942
'0:09.555',-120.0968742
'0:09.559',-118.7388244
'0:09.563',-118.1956045
'0:09.566',-134.4016659
'0:09.570',-57.80765487
'0:09.574',47.57701274
'0:09.578',172.6534031
'0:09.582',196.9172269
'0:09.586',102.0348113
'0:09.590',106.6069125
'0:09.594',103.9360811
'0:09.598',103.1212512
'0:09.602',202.6210362
'0:09.605',143.0026482
'0:09.609',-104.750911
'0:09.613',-295.6021819
'0:09.617',-313.1210249
'0:09.621',-250.8770739
'0:09.625',-133.315226
'0:09.629',-79.12903737
'0:09.633',-39.24764039
'0:09.637',-58.07926484
'0:09.641',-91.53255924
'0:09.645',-95.83305041
'0:09.648',-67.5403454
'0:09.652',-29.78655983
'0:09.656',-26.30089858
'0:09.660',-38.43281048
'0:09.664',-44.36296145
'0:09.668',-6.06595595
'0:09.672',29.2433399
'0:09.676',21.68352912
'0:09.680',-0.13580498
'0:09.684',8.2388357
'0:09.688',38.43281048
'0:09.691',71.02600665
'0:09.695',84.5159684
'0:09.699',99.09237002
'0:09.703',90.44611937
'0:09.707',133.315226
'0:09.711',163.2375908
'0:09.715',178.855164
'0:09.719',166.2253005
'0:09.723',174.2830629
'0:09.727',195.8760553
'0:09.730',222.8107105
'0:09.734',240.3295534
'0:09.738',247.0745343
'0:09.742',255.720785
'0:09.746',259.4780562
'0:09.750',284.5567099
'0:09.754',286.7295896
'0:09.758',279.9846088
'0:09.762',288.5855911
'0:09.766',274.3260678
'0:09.770',298.0466717
'0:09.773',284.8283199
'0:09.777',279.9846088
'0:09.781',273.2396279
'0:09.785',257.5767864
'0:09.789',248.1609742
'0:09.793',251.3750255
'0:09.797',230.6421312
'0:09.801',224.7119803
'0:09.805',208.5511872
'0:09.809',213.9381182
'0:09.813',216.3373396
'0:09.816',197.4604468
'0:09.820',177.5423825
'0:09.824',161.336321
'0:09.828',148.6611892
'0:09.832',134.6732758
'0:09.836',116.611213
'0:09.840',97.19110025
'0:09.844',96.10466037
'0:09.848',82.34308866
'0:09.852',69.17000521
'0:09.855',52.96394378
'0:09.859',34.08705099
'0:09.863',31.68782961
'0:09.867',16.56820805
'0:09.871',3.89307621
'0:09.875',4.70790611
'0:09.879',-14.16898667
'0:09.883',-16.56820805
'0:09.887',-16.02498812
'0:09.891',-28.97172993
'0:09.895',-27.38733845
'0:09.898',-45.17779136
'0:09.902',-63.23985424
'0:09.906',-63.5114642
'0:09.910',-62.42502433
'0:09.914',-61.33858446
'0:09.918',-61.61019443
'0:09.922',-78.0425975
'0:09.926',-78.0425975
'0:09.930',-62.6966343
'0:09.934',-47.84862271
'0:09.938',-47.03379281
'0:09.941',-44.90618139
'0:09.945',-44.09135149
'0:09.949',-30.0581698
'0:09.953',-47.57701274
'0:09.957',-45.94735293
'0:09.961',-59.70892465
'0:09.965',-59.43731468
'0:09.969',-62.15341436
'0:09.973',-79.40064734
'0:09.977',-77.49937756
'0:09.980',-91.26094928
'0:09.984',-91.26094928
'0:09.988',-109.3230122
'0:09.992',-110.681062
'0:09.996',-125.2121953
'0:10.000',-123.3561938
'0:10.004',-123.6278038
'0:10.008',-125.4838053
'0:10.012',-126.2986352
'0:10.016',-124.9405853
'0:10.020',-123.0845839
'0:10.023',-107.6933524
'0:10.027',-109.5946221
'0:10.031',-109.5946221
'0:10.035',-92.07577918
'0:10.039',-91.26094928
'0:10.043',-90.98933931
'0:10.047',-91.80416921
'0:10.051',-92.07577918
'0:10.055',-30.0581698
'0:10.059',107.9649623
'0:10.063',231.4569611
'0:10.066',301.2607229
'0:10.070',221.9958806
'0:10.074',199.0901066
'0:10.078',200.7197664
'0:10.082',165.9536905
'0:10.086',260.0212761
'0:10.090',228.4692515
'0:10.094',-17.38303796
'0:10.098',-248.4325841
'0:10.102',-277.5401191
'0:10.105',-206.6499174
'0:10.109',-98.54915009
'0:10.113',3.34985627
'0:10.117',35.98832077
'0:10.121',40.5604219
'0:10.125',2.85190466
'0:10.129',-10.36644712
'0:10.133',16.02498812
'0:10.137',45.17779136
'0:10.141',39.47398203
'0:10.145',24.67123877
'0:10.148',9.55161721
'0:10.152',44.36296145
'0:10.156',70.48278672
'0:10.160',85.87401824
'0:10.164',76.95615762
'0:10.168',77.22776759
'0:10.172',90.71772934
'0:10.176',129.8295648
'0:10.180',132.2287861
'0:10.184',128.4715149
'0:10.188',128.7431249
'0:10.191',152.4637288
'0:10.195',188.0446346
'0:10.199',193.9747855
'0:10.203',210.9504086
'0:10.207',226.61325
'0:10.211',245.9880944
'0:10.215',264.3217673
'0:10.219',304.5200426
'0:10.223',307.4624839
'0:10.227',292.6597406
'0:10.230',326.3393767
'0:10.234',355.7185215
'0:10.238',364.0931622
'0:10.242',372.4225346
'0:10.246',359.7926711
'0:10.250',358.4346212
'0:10.254',368.9368733
'0:10.258',376.4966841
'0:10.262',355.7185215
'0:10.266',345.2162694
'0:10.270',326.3393767
'0:10.273',318.2363459
'0:10.277',324.9813268
'0:10.281',320.9524456
'0:10.285',311.762975
'0:10.289',309.0921437
'0:10.293',300.1742831
'0:10.297',291.3016908
'0:10.301',288.5855911
'0:10.305',263.5069374
'0:10.309',244.6753129
'0:10.313',234.6710124
'0:10.316',224.7119803
'0:10.320',206.9215274
'0:10.324',183.7441434
'0:10.328',179.9416039
'0:10.332',183.2009235
'0:10.336',157.5790498
'0:10.340',158.6654897
'0:10.344',151.9205088
'0:10.348',146.2619678
'0:10.352',148.6611892
'0:10.355',155.1345601
'0:10.359',157.0358299
'0:10.363',151.9205088
'0:10.367',146.8051878
'0:10.371',147.8916276
'0:10.375',168.6245219
'0:10.379',170.5257916
'0:10.383',167.809692
'0:10.387',179.3983839
'0:10.391',194.5180055
'0:10.395',198.0036667
'0:10.398',201.8062063
'0:10.402',200.7197664
'0:10.406',211.7652385
'0:10.410',224.7119803
'0:10.414',243.0456531
'0:10.418',247.8893642
'0:10.422',264.3217673
'0:10.426',275.3672393
'0:10.430',272.153188
'0:10.434',274.5976777
'0:10.438',279.1697789
'0:10.441',279.4413888
'0:10.445',274.8692877
'0:10.449',256.2640049
'0:10.453',258.1200063
'0:10.457',230.0989113
'0:10.461',215.2508997
'0:10.465',210.6787986
'0:10.469',205.5634775
'0:10.473',190.9870759
'0:10.477',196.1476653
'0:10.480',212.8516783
'0:10.484',208.2795772
'0:10.488',220.4114891
'0:10.492',252.7330753
'0:10.496',256.8072248
'0:10.500',260.0212761
'0:10.504',242.7740431
'0:10.508',223.0823205
'0:10.512',221.1810507
'0:10.516',222.2674906
'0:10.520',209.0491388
'0:10.523',209.5923587
'0:10.527',206.6499174
'0:10.531',265.4082072
'0:10.535',403.1597293
'0:10.539',544.713791
'0:10.543',631.2668342
'0:10.547',581.1095267
'0:10.551',525.5652883
'0:10.555',514.7914262
'0:10.559',481.1117901
'0:10.563',556.302483
'0:10.566',505.8735656
'0:10.570',290.7584708
'0:10.574',91.26094928
'0:10.578',63.73780584
'0:10.582',106.3353025
'0:10.586',214.9792897
'0:10.590',312.034585
'0:10.594',340.9157783
'0:10.598',346.8459293
'0:10.602',328.7838664
'0:10.605',316.1087345
'0:10.609',339.5577284
'0:10.613',381.3403952
'0:10.617',375.9534642
'0:10.621',364.3647722
'0:10.625',366.4923836
'0:10.629',382.970055
'0:10.633',406.6906589
'0:10.637',421.7650121
'0:10.641',398.5876282
'0:10.645',400.217288
'0:10.648',427.1519431
'0:10.652',447.3868858
'0:10.656',466.2637786
'0:10.660',464.0908988
'0:10.664',465.1773387
'0:10.668',472.4655395
'0:10.672',521.808017
'0:10.676',525.5652883
'0:10.680',543.6273511
'0:10.684',545.8002309
'0:10.688',581.1095267
'0:10.691',595.9575383
'0:10.695',618.3200924
'0:10.699',623.7070234
'0:10.703',625.8799031
'0:10.707',642.3123062
'0:10.711',670.3334012
'0:10.715',677.6216021
'0:10.719',671.1482311
'0:10.723',659.2879292
'0:10.727',656.8434395
'0:10.730',665.2180802
'0:10.734',672.234671
'0:10.738',667.9341799
'0:10.742',642.5839162
'0:10.746',639.5962065
'0:10.750',629.3655644
'0:10.754',635.0241054
'0:10.758',632.0816641
'0:10.762',623.9786334
'0:10.766',605.3733505
'0:10.770',595.1427084
'0:10.773',599.7148095
'0:10.777',580.5663068
'0:10.781',573.5497159
'0:10.785',570.6072746
'0:10.789',558.7469727
'0:10.793',548.1994523
'0:10.797',530.9522193
'0:10.801',508.5896652
'0:10.805',504.0175641
'0:10.809',490.5276024
'0:10.813',480.0253503
'0:10.816',480.2969602
'0:10.820',458.4323578
'0:10.824',454.1318666
'0:10.828',455.2183065
'0:10.832',459.5187977
'0:10.836',460.6052376
'0:10.840',456.8479663
'0:10.844',452.7738168
'0:10.848',453.0454268
'0:10.852',440.9135149
'0:10.855',442.5431747
'0:10.859',439.0122451
'0:10.863',418.8225708
'0:10.867',419.3657907
'0:10.871',406.4190489
'0:10.875',392.3858672
'0:10.879',404.7893891
'0:10.883',415.0200312
'0:10.887',414.5220796
'0:10.891',404.5177791
'0:10.895',423.6662819
'0:10.898',434.440144
'0:10.902',412.8924198
'0:10.906',414.2504697
'0:10.910',419.0941808
'0:10.914',404.7893891
'0:10.918',385.6408864
'0:10.922',365.4512121
'0:10.926',364.3647722
'0:10.930',351.1464204
'0:10.934',353.5909101
'0:10.938',335.8004572
'0:10.941',332.2695276
'0:10.945',315.0222947
'0:10.949',316.9235644
'0:10.953',318.5079559
'0:10.957',301.8039429
'0:10.961',284.01349
'0:10.965',282.6554401
'0:10.969',282.1122202
'0:10.973',298.3182816
'0:10.977',298.3182816
'0:10.980',298.5898916
'0:10.984',313.9358548
'0:10.988',297.2318417
'0:10.992',297.7750617
'0:10.996',313.1210249
'0:11.000',296.4170118
'0:11.004',358.4346212
'0:11.008',495.3713135
'0:11.012',648.7856771
'0:11.016',748.5118037
'0:11.020',701.070596
'0:11.023',603.7436907
'0:11.027',517.7338675
'0:11.031',464.0908988
'0:11.035',513.1617664
'0:11.039',475.1363708
'0:11.043',266.2230371
'0:11.047',90.1745094
'0:11.051',46.49057287
'0:11.055',82.61469863
'0:11.059',186.6865847
'0:11.063',302.0755528
'0:11.066',351.9612503
'0:11.070',359.7926711
'0:11.074',323.3969353
'0:11.078',307.7340938
'0:11.082',330.6398678
'0:11.086',374.8670243
'0:11.090',386.9989362
'0:11.094',358.7062312
'0:11.098',359.5210611
'0:11.102',375.4102442
'0:11.105',415.0200312
'0:11.109',415.2916412
'0:11.113',393.7439171
'0:11.117',379.1675155
'0:11.121',389.1718159
'0:11.125',423.9378919
'0:11.129',441.7283448
'0:11.133',425.8391616
'0:11.137',429.3248229
'0:11.141',450.6462054
'0:11.145',465.9921686
'0:11.148',486.2271112
'0:11.152',489.7127725
'0:11.156',477.8524705
'0:11.160',497.0009733
'0:11.164',524.7504583
'0:11.168',529.6394378
'0:11.172',537.1539802
'0:11.176',541.9976913
'0:11.180',557.9321428
'0:11.184',583.5540164
'0:11.188',589.7557774
'0:11.191',584.8667979
'0:11.195',575.1793758
'0:11.199',572.734886
'0:11.203',563.8622938
'0:11.207',570.0640547
'0:11.211',565.9899052
'0:11.215',557.1173129
'0:11.219',538.78364
'0:11.223',529.6394378
'0:11.227',519.0919173
'0:11.230',515.3346461
'0:11.234',491.0708223
'0:11.238',488.3547226
'0:11.242',477.8524705
'0:11.246',467.6218284
'0:11.250',449.8313755
'0:11.254',426.6539915
'0:11.258',406.9622689
'0:11.262',410.1763201
'0:11.266',414.2504697
'0:11.270',382.698445
'0:11.273',363.2783323
'0:11.277',343.3149997
'0:11.281',327.6974265
'0:11.285',299.4047215
'0:11.289',300.445893
'0:11.293',280.7994387
'0:11.297',276.7252892
'0:11.301',276.7252892
'0:11.305',279.9846088
'0:11.309',266.2230371
'0:11.313',264.5933772
'0:11.316',260.2928861
'0:11.320',258.6632263
'0:11.324',261.379326
'0:11.328',248.7041941
'0:11.332',248.1609742
'0:11.336',243.860483
'0:11.340',241.1443833
'0:11.344',227.6544216
'0:11.348',231.4569611
'0:11.352',245.9880944
'0:11.355',256.8072248
'0:11.359',270.2519183
'0:11.363',258.3916163
'0:11.367',264.0501573
'0:11.371',262.4657658
'0:11.375',271.6099681
'0:11.379',268.1243068
'0:11.383',272.696408
'0:11.387',263.0089858
'0:11.391',262.7373758
'0:11.395',255.449175
'0:11.398',235.4858423
'0:11.402',239.0167719
'0:11.406',244.132093
'0:11.410',228.4692515
'0:11.414',208.2795772
'0:11.418',204.4770376
'0:11.422',204.7486476
'0:11.426',192.8883457
'0:11.430',195.0612254
'0:11.434',191.5302958
'0:11.438',187.2298047
'0:11.441',187.2298047
'0:11.445',190.9870759
'0:11.449',177.8139924
'0:11.453',175.9127227
'0:11.457',171.3406215
'0:11.461',169.7109617
'0:11.465',157.5790498
'0:11.469',145.7187479
'0:11.473',144.0890881
'0:11.477',122.8129739
'0:11.480',182.6577035
'0:11.484',306.9192639
'0:11.488',418.5509608
'0:11.492',457.3459179
'0:11.496',327.4258165
'0:11.500',239.0167719
'0:11.504',193.9747855
'0:11.508',158.3938797
'0:11.512',249.2474141
'0:11.516',216.0657296
'0:11.520',18.46947783
'0:11.523',-149.2044091
'0:11.527',-177.2707725
'0:11.531',-118.1956045
'0:11.535',-7.96722573
'0:11.539',90.1745094
'0:11.543',118.7388244
'0:11.547',108.2365723
'0:11.551',75.10015618
'0:11.555',63.23985424
'0:11.559',101.2199814
'0:11.563',126.2986352
'0:11.566',122.8129739
'0:11.570',97.19110025
'0:11.574',83.97274847
'0:11.578',98.54915009
'0:11.582',135.7597157
'0:11.586',151.1056789
'0:11.590',131.6855662
'0:11.594',120.0968742
'0:11.598',145.9903579
'0:11.602',162.6943709
'0:11.605',164.8672506
'0:11.609',150.8340689
'0:11.613',154.8629501
'0:11.617',159.7519296
'0:11.621',189.9459044
'0:11.625',194.2463955
'0:11.629',199.9049365
'0:11.633',188.8594645
'0:11.637',207.1931373
'0:11.641',218.7818293
'0:11.645',239.5147235
'0:11.648',247.6177542
'0:11.652',237.930332
'0:11.656',255.177565
'0:11.660',264.3217673
'0:11.664',269.4370883
'0:11.668',264.0501573
'0:11.672',255.449175
'0:11.676',254.6343451
'0:11.680',261.6509359
'0:11.684',266.494647
'0:11.688',247.6177542
'0:11.691',225.5268102
'0:11.695',223.0823205
'0:11.699',226.3416401
'0:11.703',214.9792897
'0:11.707',199.0901066
'0:11.711',194.2463955
'0:11.715',174.5546728
'0:11.719',176.4559426
'0:11.723',180.2132138
'0:11.727',165.1388606
'0:11.730',162.151151
'0:11.734',143.0026482
'0:11.738',128.1999049
'0:11.742',115.5247731
'0:11.746',116.067993
'0:11.750',96.91949028
'0:11.754',63.46619588
'0:11.758',49.47828252
'0:11.762',34.9018809
'0:11.766',18.19786786
'0:11.770',15.48176818
'0:11.773',13.62576673
'0:11.777',14.98381657
'0:11.781',17.65464793
'0:11.785',17.92625789
'0:11.789',15.75337815
'0:11.793',14.16898667
'0:11.797',-0.40741495
'0:11.801',2.03707476
'0:11.805',1.49385482
'0:11.809',-0.95063489
'0:11.813',-2.30868473
'0:11.816',-16.02498812
'0:11.820',-13.62576673
'0:11.824',-14.44059664
'0:11.828',-17.38303796
'0:11.832',-33.81544103
'0:11.836',-46.76218284
'0:11.840',-44.90618139
'0:11.844',-31.95943958
'0:11.848',-35.44510084
'0:11.852',-34.35866096
'0:11.855',-14.98381657
'0:11.859',1.76546479
'0:11.863',-0.40741495
'0:11.867',-1.49385482
'0:11.871',-0.40741495
'0:11.875',1.49385482
'0:11.879',-13.8973767
'0:11.883',-30.32977977
'0:11.887',-32.23104955
'0:11.891',-48.66345262
'0:11.895',-47.57701274
'0:11.898',-62.15341436
'0:11.902',-77.77098753
'0:11.906',-94.74661053
'0:11.910',-111.7675019
'0:11.914',-112.0391118
'0:11.918',-127.1134651
'0:11.922',-126.2986352
'0:11.926',-126.8418551
'0:11.930',-143.2742582
'0:11.934',-143.0026482
'0:11.938',-142.7310382
'0:11.941',-142.7310382
'0:11.945',-143.0026482
'0:11.949',-142.7310382
'0:11.953',-142.2330866
'0:11.957',-141.9614767
'0:11.961',-172.925013
'0:11.965',-187.5014146
'0:11.969',-142.4594283
'0:11.973',-38.43281048
'0:11.977',69.17000521
'0:11.980',139.7885969
'0:11.984',59.98053462
'0:11.988',52.14911387
'0:11.992',68.89839524
'0:11.996',20.09913764
'0:12.000',101.4915914
'0:12.004',39.20237206
'0:12.008',-162.9659809
'0:12.012',-368.6652634
'0:12.016',-410.99115
'0:12.020',-346.5743193
'0:12.023',-219.3250492
'0:12.027',-140.6034268
'0:12.031',-114.4383332
'0:12.035',-123.3561938
'0:12.039',-137.8873271
'0:12.043',-149.2044091
'0:12.047',-112.0391118
'0:12.051',-88.00162966
'0:12.055',-75.37176614
'0:12.059',-99.90719993
'0:12.063',-96.37627034
'0:12.066',-81.57352708
'0:12.070',-44.63457142
'0:12.074',-28.97172993
'0:12.078',-47.84862271
'0:12.082',-43.54813155
'0:12.086',-18.46947783
'0:12.090',-0.95063489
'0:12.094',17.92625789
'0:12.098',3.62146624
'0:12.102',7.96722573
'0:12.105',28.97172993
'0:12.109',58.89409475
'0:12.113',79.40064734
'0:12.117',85.60240828
'0:12.121',90.71772934
'0:12.125',109.0514022
'0:12.129',120.9117041
'0:12.133',142.4594283
'0:12.137',165.6820805
'0:12.141',170.7974016
'0:12.145',188.3162445
'0:12.148',199.6333265
'0:12.152',221.7242706
'0:12.156',214.7529481
'0:12.160',205.0202576
'0:12.164',205.0202576
'0:12.168',213.6665082
'0:12.172',218.7818293
'0:12.176',214.2097282
'0:12.180',190.4891243
'0:12.184',189.6742944
'0:12.188',195.3328354
'0:12.191',199.3617166
'0:12.195',181.2996537
'0:12.199',175.9127227
'0:12.203',173.468233
'0:12.207',176.7275526
'0:12.211',165.1388606
'0:12.215',165.1388606
'0:12.219',144.360698
'0:12.223',126.0270252
'0:12.227',112.5370634
'0:12.230',100.1335416
'0:12.234',83.97274847
'0:12.238',79.67225731
'0:12.242',45.67574297
'0:12.246',48.12023268
'0:12.250',34.63027093
'0:12.254',34.35866096
'0:12.258',30.60138974
'0:12.262',13.35415676
'0:12.266',15.75337815
'0:12.270',17.92625789
'0:12.273',16.83981802
'0:12.277',14.44059664
'0:12.281',13.62576673
'0:12.285',15.48176818
'0:12.289',32.77426948
'0:12.293',16.29659809
'0:12.297',31.14460967
'0:12.301',29.78655983
'0:12.305',30.87299971
'0:12.309',17.11142799
'0:12.313',33.27222109
'0:12.316',30.32977977
'0:12.320',28.97172993
'0:12.324',15.48176818
'0:12.328',18.19786786
'0:12.332',17.11142799
'0:12.336',-1.76546479
'0:12.340',13.0825468
'0:12.344',44.90618139
'0:12.348',46.49057287
'0:12.352',48.93506258
'0:12.355',33.81544103
'0:12.359',62.6966343
'0:12.363',59.16570471
'0:12.367',76.41293769
'0:12.371',80.48708721
'0:12.375',82.34308866
'0:12.379',79.94386727
'0:12.383',61.06697449
'0:12.387',61.33858446
'0:12.391',63.46619588
'0:12.395',48.93506258
'0:12.398',48.12023268
'0:12.402',45.17779136
'0:12.406',28.70011996
'0:12.410',31.14460967
'0:12.414',32.23104955
'0:12.418',30.87299971
'0:12.422',44.36296145
'0:12.426',43.81974152
'0:12.430',46.49057287
'0:12.434',48.66345262
'0:12.438',47.30540277
'0:12.441',44.63457142
'0:12.445',59.43731468
'0:12.449',60.79536452
'0:12.453',79.12903737
'0:12.457',63.73780584
'0:12.461',78.0425975
'0:12.465',59.98053462
'0:12.469',92.07577918
'0:12.473',216.3373396
'0:12.477',337.9280686
'0:12.480',434.9833639
'0:12.484',322.5821054
'0:12.488',227.9260316
'0:12.492',234.6710124
'0:12.496',207.4647473
'0:12.500',275.9104593
'0:12.504',323.8948869
'0:12.508',178.0856024
'0:12.512',-93.16221905
'0:12.516',-209.5923587
'0:12.520',-172.925013
'0:12.523',-78.58581743
'0:12.527',30.60138974
'0:12.531',85.60240828
'0:12.535',87.50367805
'0:12.539',53.23555374
'0:12.543',29.2433399
'0:12.547',60.79536452
'0:12.551',92.61899912
'0:12.555',114.9815532
'0:12.559',89.63128947
'0:12.563',67.81195537
'0:12.566',92.61899912
'0:12.570',117.9239945
'0:12.574',142.4594283
'0:12.578',124.3973654
'0:12.582',105.294131
'0:12.586',124.9405853
'0:12.590',144.632308
'0:12.594',169.9825717
'0:12.598',172.925013
'0:12.602',171.8838415
'0:12.605',173.196623
'0:12.609',190.2175143
'0:12.613',215.2508997
'0:12.617',220.6830991
'0:12.621',205.5634775
'0:12.625',221.7242706
'0:12.629',235.2142324
'0:12.633',259.7496662
'0:12.637',252.4614653
'0:12.641',255.720785
'0:12.645',253.8195152
'0:12.648',264.5933772
'0:12.652',288.5855911
'0:12.656',298.5898916
'0:12.660',287.7707612
'0:12.664',271.3383581
'0:12.668',280.5278287
'0:12.672',285.9147597
'0:12.676',280.5278287
'0:12.680',240.8727734
'0:12.684',225.2552002
'0:12.688',230.9137412
'0:12.691',217.6953894
'0:12.695',214.2097282
'0:12.699',208.2795772
'0:12.703',207.4647473
'0:12.707',212.0368484
'0:12.711',215.5225097
'0:12.715',198.0036667
'0:12.719',178.0856024
'0:12.723',175.9127227
'0:12.727',162.151151
'0:12.730',149.7476291
'0:12.734',133.8584459
'0:12.738',129.8295648
'0:12.742',95.28983047
'0:12.746',82.07147869
'0:12.750',84.5159684
'0:12.754',67.26873543
'0:12.758',64.28102578
'0:12.762',47.30540277
'0:12.766',49.20667255
'0:12.770',50.83633236
'0:12.773',50.02150246
'0:12.777',47.84862271
'0:12.781',47.30540277
'0:12.785',48.66345262
'0:12.789',50.29311242
'0:12.793',65.09585568
'0:12.797',62.96824427
'0:12.801',47.57701274
'0:12.805',50.29311242
'0:12.809',50.29311242
'0:12.813',48.12023268
'0:12.816',46.49057287
'0:12.820',47.30540277
'0:12.824',34.08705099
'0:12.828',34.9018809
'0:12.832',32.23104955
'0:12.836',29.78655983
'0:12.840',14.98381657
'0:12.844',18.19786786
'0:12.848',18.46947783
'0:12.852',15.48176818
'0:12.855',13.35415676
'0:12.859',14.7122066
'0:12.863',33.04587945
'0:12.867',33.04587945
'0:12.871',31.68782961
'0:12.875',61.61019443
'0:12.879',61.33858446
'0:12.883',64.28102578
'0:12.887',66.45390552
'0:12.891',65.09585568
'0:12.895',46.49057287
'0:12.898',46.2189629
'0:12.902',47.57701274
'0:12.906',33.27222109
'0:12.910',17.65464793
'0:12.914',0.40741495
'0:12.918',-1.49385482
'0:12.922',-17.65464793
'0:12.926',-31.41621964
'0:12.930',-45.67574297
'0:12.934',-47.57701274
'0:12.938',-66.18229556
'0:12.941',-66.18229556
'0:12.945',-79.67225731
'0:12.949',-78.0425975
'0:12.953',-95.28983047
'0:12.957',-97.19110025
'0:12.961',-113.6235033
'0:12.965',-111.7675019
'0:12.969',-95.28983047
'0:12.973',-112.2654535
'0:12.977',-143.0026482
'0:12.980',-172.925013
'0:12.984',-142.7310382
'0:12.988',-54.59360359
'0:12.992',66.45390552
'0:12.996',165.6820805
'0:13.000',148.3895792
'0:13.004',174.2830629
'0:13.008',258.3916163
'0:13.012',241.4159933
'0:13.016',291.8449107
'0:13.020',231.1853512
'0:13.023',-18.7410878
'0:13.027',-271.8815781
'0:13.031',-347.3891492
'0:13.035',-301.5323329
'0:13.039',-207.1931373
'0:13.043',-127.385075
'0:13.047',-85.33079831
'0:13.051',-111.2242819
'0:13.055',-125.2121953
'0:13.059',-136.0313257
'0:13.063',-114.7099432
'0:13.066',-90.71772934
'0:13.070',-94.74661053
'0:13.074',-103.9360811
'0:13.078',-116.339603
'0:13.082',-85.05918834
'0:13.086',-63.5114642
'0:13.090',-62.96824427
'0:13.094',-66.99712546
'0:13.098',-80.21547724
'0:13.102',-54.32199362
'0:13.105',-20.09913764
'0:13.109',-16.83981802
'0:13.113',-15.25542654
'0:13.117',-27.61368009
'0:13.121',-6.33756592
'0:13.125',8.51044567
'0:13.129',29.2433399
'0:13.133',34.08705099
'0:13.137',38.43281048
'0:13.141',41.91847174
'0:13.145',71.02600665
'0:13.148',91.53255924
'0:13.152',98.27754012
'0:13.156',88.81645956
'0:13.160',107.1501324
'0:13.164',117.1544329
'0:13.168',137.6157172
'0:13.172',130.8707363
'0:13.176',123.0845839
'0:13.180',123.8994138
'0:13.184',116.067993
'0:13.188',120.6400942
'0:13.191',99.63558996
'0:13.195',92.34738915
'0:13.199',91.26094928
'0:13.203',81.79986872
'0:13.207',71.56922659
'0:13.211',52.96394378
'0:13.215',45.404133
'0:13.219',41.91847174
'0:13.223',31.41621964
'0:13.227',37.88959055
'0:13.230',36.53154071
'0:13.234',13.8973767
'0:13.238',-4.16468618
'0:13.242',-31.14460967
'0:13.246',-26.57250854
'0:13.250',-44.90618139
'0:13.254',-65.91068559
'0:13.258',-83.15791856
'0:13.262',-79.94386727
'0:13.266',-92.61899912
'0:13.270',-108.7797922
'0:13.273',-127.928295
'0:13.277',-145.7187479
'0:13.281',-144.360698
'0:13.285',-157.8506598
'0:13.289',-172.6986714
'0:13.293',-159.2087096
'0:13.297',-162.4227609
'0:13.301',-176.7275526
'0:13.305',-157.0358299
'0:13.309',-156.49261
'0:13.313',-158.9370997
'0:13.316',-175.9127227
'0:13.320',-174.2830629
'0:13.324',-172.6986714
'0:13.328',-188.3162445
'0:13.332',-189.4026844
'0:13.336',-190.7607343
'0:13.340',-190.4891243
'0:13.344',-204.2054277
'0:13.348',-202.6210362
'0:13.352',-188.8594645
'0:13.355',-206.9215274
'0:13.359',-205.2918675
'0:13.363',-218.2386094
'0:13.367',-232.815011
'0:13.371',-219.5966592
'0:13.375',-207.7363573
'0:13.379',-206.9215274
'0:13.383',-216.8805595
'0:13.387',-198.2752767
'0:13.391',-186.9581947
'0:13.395',-191.8019058
'0:13.398',-189.4026844
'0:13.402',-198.8184966
'0:13.406',-211.7652385
'0:13.410',-216.3373396
'0:13.414',-237.930332
'0:13.418',-236.8438922
'0:13.422',-247.0745343
'0:13.426',-243.588873
'0:13.430',-262.7373758
'0:13.434',-267.5810869
'0:13.438',-283.47027
'0:13.441',-294.2441321
'0:13.445',-291.0300808
'0:13.449',-278.6265589
'0:13.453',-283.74188
'0:13.457',-267.037867
'0:13.461',-261.6509359
'0:13.465',-257.8483964
'0:13.469',-260.0212761
'0:13.473',-264.5933772
'0:13.477',-265.1365972
'0:13.480',-245.7164845
'0:13.484',-257.8483964
'0:13.488',-242.2308232
'0:13.492',-261.9225459
'0:13.496',-247.3461443
'0:13.500',-121.998144
'0:13.504',17.11142799
'0:13.508',129.5579548
'0:13.512',124.6689754
'0:13.516',-17.92625789
'0:13.520',-63.5114642
'0:13.523',-131.1423463
'0:13.527',-116.8828229
'0:13.531',-112.2654535
'0:13.535',-245.7164845
'0:13.539',-478.9389104
'0:13.543',-540.6849098
'0:13.547',-503.4743442
'0:13.551',-427.9667731
'0:13.555',-336.0720672
'0:13.559',-279.4413888
'0:13.563',-260.2928861
'0:13.566',-294.5157421
'0:13.570',-318.7795659
'0:13.574',-302.3471628
'0:13.578',-253.5479052
'0:13.582',-262.7373758
'0:13.586',-271.8815781
'0:13.590',-310.4501935
'0:13.594',-285.0999298
'0:13.598',-258.9348362
'0:13.602',-249.2474141
'0:13.605',-251.6466354
'0:13.609',-271.8815781
'0:13.613',-251.6466354
'0:13.617',-230.0989113
'0:13.621',-219.0534393
'0:13.625',-231.4569611
'0:13.629',-233.8561825
'0:13.633',-218.7818293
'0:13.637',-201.5345963
'0:13.641',-172.925013
'0:13.645',-165.1388606
'0:13.648',-181.2996537
'0:13.652',-167.809692
'0:13.656',-138.702157
'0:13.660',-127.385075
'0:13.664',-115.7963831
'0:13.668',-128.7431249
'0:13.672',-117.1544329
'0:13.676',-107.6933524
'0:13.680',-96.91949028
'0:13.684',-98.27754012
'0:13.688',-109.0514022
'0:13.691',-114.7099432
'0:13.695',-107.9649623
'0:13.699',-114.1667233
'0:13.703',-113.3518934
'0:13.707',-138.1589371
'0:13.711',-159.7519296
'0:13.715',-171.0690116
'0:13.719',-163.5092008
'0:13.723',-178.6288223
'0:13.727',-185.0569249
'0:13.730',-205.5634775
'0:13.734',-202.6210362
'0:13.738',-196.6908852
'0:13.742',-195.6044454
'0:13.746',-199.9049365
'0:13.750',-219.0534393
'0:13.754',-216.6089496
'0:13.758',-228.1976415
'0:13.762',-242.5024332
'0:13.766',-261.379326
'0:13.770',-280.5278287
'0:13.773',-279.9846088
'0:13.777',-292.9313506
'0:13.781',-290.4868609
'0:13.785',-292.3881306
'0:13.789',-295.330572
'0:13.793',-295.058962
'0:13.797',-291.8449107
'0:13.801',-289.672031
'0:13.805',-306.104434
'0:13.809',-308.2773138
'0:13.813',-309.3637537
'0:13.816',-307.7340938
'0:13.820',-305.3348725
'0:13.824',-304.7916525
'0:13.828',-306.376044
'0:13.832',-307.4624839
'0:13.836',-306.376044
'0:13.840',-304.2484326
'0:13.844',-303.4336027
'0:13.848',-304.5200426
'0:13.852',-320.9524456
'0:13.855',-319.8660058
'0:13.859',-319.0511758
'0:13.863',-319.0511758
'0:13.867',-319.5943958
'0:13.871',-319.3227858
'0:13.875',-302.8903827
'0:13.879',-302.6187728
'0:13.883',-301.5323329
'0:13.887',-285.6431498
'0:13.891',-270.5235282
'0:13.895',-270.2519183
'0:13.898',-268.1243068
'0:13.902',-282.1122202
'0:13.906',-297.7750617
'0:13.910',-299.6763315
'0:13.914',-317.1951744
'0:13.918',-315.5655146
'0:13.922',-313.6642448
'0:13.926',-344.4014395
'0:13.930',-360.064281
'0:13.934',-361.9202825
'0:13.938',-363.8215523
'0:13.941',-378.1263439
'0:13.945',-374.8670243
'0:13.949',-374.5954143
'0:13.953',-376.7682941
'0:13.957',-393.7439171
'0:13.961',-406.9622689
'0:13.965',-404.5177791
'0:13.969',-405.604219
'0:13.973',-423.6662819
'0:13.977',-423.123062
'0:13.980',-421.2217922
'0:13.984',-435.2549739
'0:13.988',-450.6462054
'0:13.992',-467.3502184
'0:13.996',-468.7082683
'0:14.000',-376.2250741
'0:14.004',-253.8195152
'0:14.008',-157.3074399
'0:14.012',-115.5247731
'0:14.016',-182.6577035
'0:14.020',-165.9536905
'0:14.023',-211.4936285
'0:14.027',-189.1310744
'0:14.031',-184.0157534
'0:14.035',-339.8293384
'0:14.039',-592.9698287
'0:14.043',-698.1281546
'0:14.047',-685.7246328
'0:14.051',-611.3035015
'0:14.055',-512.6185464
'0:14.059',-445.214006
'0:14.063',-450.9178154
'0:14.066',-474.9100292
'0:14.070',-499.9434146
'0:14.074',-508.8612752
'0:14.078',-480.5685702
'0:14.082',-468.9798782
'0:14.086',-471.3790996
'0:14.090',-493.515312
'0:14.094',-489.7127725
'0:14.098',-465.9921686
'0:14.102',-438.2426835
'0:14.105',-451.9589869
'0:14.109',-454.9466965
'0:14.113',-438.5142935
'0:14.117',-404.2461692
'0:14.121',-391.5710373
'0:14.125',-383.5132749
'0:14.129',-399.945678
'0:14.133',-386.7273262
'0:14.137',-357.3481813
'0:14.141',-345.2162694
'0:14.145',-333.0843575
'0:14.148',-330.9114778
'0:14.152',-319.8660058
'0:14.156',-293.7461805
'0:14.160',-266.2230371
'0:14.164',-251.6466354
'0:14.168',-262.1941559
'0:14.172',-251.1486838
'0:14.176',-229.0124714
'0:14.180',-219.5966592
'0:14.184',-202.6210362
'0:14.188',-210.4071886
'0:14.191',-215.5225097
'0:14.195',-211.2220185
'0:14.199',-219.0534393
'0:14.203',-217.1521695
'0:14.207',-239.5147235
'0:14.211',-260.2928861
'0:14.215',-257.8483964
'0:14.219',-267.8526969
'0:14.223',-265.6798171
'0:14.227',-285.6431498
'0:14.230',-289.9436409
'0:14.234',-289.128811
'0:14.238',-284.5567099
'0:14.242',-297.2318417
'0:14.246',-298.8615016
'0:14.250',-318.7795659
'0:14.254',-334.9856273
'0:14.258',-331.4546977
'0:14.262',-344.9446595
'0:14.266',-361.3770625
'0:14.270',-364.3647722
'0:14.273',-381.3403952
'0:14.277',-378.6242955
'0:14.281',-391.8426473
'0:14.285',-391.8426473
'0:14.289',-394.558747
'0:14.293',-411.26276
'0:14.297',-408.8182703
'0:14.301',-406.4190489
'0:14.305',-406.9622689
'0:14.309',-408.8182703
'0:14.313',-409.0898803
'0:14.316',-406.9622689
'0:14.320',-405.0609991
'0:14.324',-405.0609991
'0:14.328',-406.4190489
'0:14.332',-391.2994274
'0:14.336',-390.2582558
'0:14.340',-387.2705462
'0:14.344',-401.5753378
'0:14.348',-402.3901677
'0:14.352',-404.7893891
'0:14.355',-405.0609991
'0:14.359',-402.6617777
'0:14.363',-399.945678
'0:14.367',-400.217288
'0:14.371',-386.7273262
'0:14.375',-372.1961929
'0:14.379',-369.7517032
'0:14.383',-365.722822
'0:14.387',-364.9079921
'0:14.391',-352.2328603
'0:14.395',-354.6320817
'0:14.398',-352.2328603
'0:14.402',-347.6607592
'0:14.406',-362.1918924
'0:14.410',-364.9079921
'0:14.414',-368.1220434
'0:14.418',-367.3072135
'0:14.422',-363.2783323
'0:14.426',-376.4966841
'0:14.430',-377.583124
'0:14.434',-396.9579684
'0:14.438',-397.2295783
'0:14.441',-410.1763201
'0:14.445',-407.2338788
'0:14.449',-392.9290872
'0:14.453',-396.1884068
'0:14.457',-395.6451869
'0:14.461',-391.5710373
'0:14.465',-389.1718159
'0:14.469',-390.7562074
'0:14.473',-393.4723071
'0:14.477',-393.4723071
'0:14.480',-390.2582558
'0:14.484',-372.4678029
'0:14.488',-358.1630113
'0:14.492',-344.6730495
'0:14.496',-312.5778049
'0:14.500',-154.8629501
'0:14.504',-1.22224486
'0:14.508',127.1134651
'0:14.512',93.16221905
'0:14.516',-62.15341436
'0:14.520',-155.67778
'0:14.523',-303.9768226
'0:14.527',-368.9368733
'0:14.531',-381.8836151
'0:14.535',-473.5519794
'0:14.539',-648.5140671
'0:14.543',-674.9507707
'0:14.547',-612.3899414
'0:14.551',-485.6838913
'0:14.555',-322.8537154
'0:14.559',-272.9680179
'0:14.563',-246.2597044
'0:14.566',-269.7086983
'0:14.570',-293.7461805
'0:14.574',-287.2728096
'0:14.578',-245.2185329
'0:14.582',-234.1277925
'0:14.586',-249.790634
'0:14.590',-269.9803083
'0:14.594',-268.1243068
'0:14.598',-247.8893642
'0:14.602',-236.5722822
'0:14.605',-231.7285711
'0:14.609',-249.2474141
'0:14.613',-233.8561825
'0:14.617',-202.3494262
'0:14.621',-190.9870759
'0:14.625',-181.2996537
'0:14.629',-180.4848238
'0:14.633',-183.4725334
'0:14.637',-155.1345601
'0:14.641',-128.7431249
'0:14.645',-117.1544329
'0:14.648',-113.3518934
'0:14.652',-100.9483715
'0:14.656',-75.86971775
'0:14.660',-50.56472239
'0:14.664',-36.80315068
'0:14.668',-30.60138974
'0:14.672',-3.34985627
'0:14.676',3.0782463
'0:14.680',28.70011996
'0:14.684',28.70011996
'0:14.688',20.64235757
'0:14.691',15.21015821
'0:14.695',19.28430773
'0:14.699',26.84411851
'0:14.703',27.88529006
'0:14.707',21.68352912
'0:14.711',1.22224486
'0:14.715',4.16468618
'0:14.719',-6.06595595
'0:14.723',-20.37074761
'0:14.727',-25.2144587
'0:14.730',-30.60138974
'0:14.734',-29.51494987
'0:14.738',-39.47398203
'0:14.742',-36.25993074
'0:14.746',-55.95165343
'0:14.750',-76.68454766
'0:14.754',-76.68454766
'0:14.758',-88.5448496
'0:14.762',-100.9483715
'0:14.766',-103.1212512
'0:14.770',-123.6278038
'0:14.773',-140.0602069
'0:14.777',-136.3029357
'0:14.781',-134.4016659
'0:14.785',-151.6488989
'0:14.789',-154.0933886
'0:14.793',-154.8629501
'0:14.797',-153.2785587
'0:14.801',-150.8340689
'0:14.805',-150.8340689
'0:14.809',-152.7353387
'0:14.813',-153.8217786
'0:14.816',-137.0724972
'0:14.820',-135.4881058
'0:14.824',-134.4016659
'0:14.828',-134.9448858
'0:14.832',-136.0313257
'0:14.836',-120.9117041
'0:14.840',-135.4881058
'0:14.844',-133.043616
'0:14.848',-133.043616
'0:14.852',-119.8252643
'0:14.855',-136.8008873
'0:14.859',-134.1300559
'0:14.863',-131.9571762
'0:14.867',-102.0348113
'0:14.871',-89.90289944
'0:14.875',-89.08806953
'0:14.879',-68.62678527
'0:14.883',-51.10794233
'0:14.887',-53.50716371
'0:14.891',-40.28881193
'0:14.895',-39.745592
'0:14.898',-36.25993074
'0:14.902',-49.74989249
'0:14.906',-51.3795523
'0:14.910',-55.13682352
'0:14.914',-56.22326339
'0:14.918',-53.23555374
'0:14.922',-65.63907562
'0:14.926',-81.57352708
'0:14.930',-85.05918834
'0:14.934',-88.27323963
'0:14.938',-102.3064213
'0:14.941',-82.34308866
'0:14.945',-82.34308866
'0:14.949',-100.6767615
'0:14.953',-86.41723818
'0:14.957',-86.41723818
'0:14.961',-83.7011385
'0:14.965',-66.72551549
'0:14.969',-68.3551753
'0:14.973',-69.71322514
'0:14.977',-68.89839524
'0:14.980',-82.34308866
'0:14.984',-96.91949028
'0:14.988',-114.1667233
'0:14.992',-55.13682352
'0:14.996',34.63027093
'0:15.000',161.0647111
'0:15.004',215.7941196
'0:15.008',180.4848238
'0:15.012',246.2597044
'0:15.016',263.7785473
'0:15.020',224.4403703
'0:15.023',311.2650234
'0:15.027',258.6632263
'0:15.031',0.95063489
'0:15.035',-249.2474141
'0:15.039',-284.8283199
'0:15.043',-221.1810507
'0:15.047',-131.9571762
'0:15.051',-71.84083656
'0:15.055',-43.00491161
'0:15.059',-48.93506258
'0:15.063',-94.74661053
'0:15.066',-92.89060909
'0:15.070',-75.37176614
'0:15.074',-34.63027093
'0:15.078',-34.9018809
'0:15.082',-57.0380933
'0:15.086',-55.40843349
'0:15.090',-44.63457142
'0:15.094',-23.31318893
'0:15.098',-4.16468618
'0:15.102',-6.33756592
'0:15.105',-4.97951608
'0:15.109',18.46947783
'0:15.113',37.34637061
'0:15.117',43.27652158
'0:15.121',45.17779136
'0:15.125',45.94735293
'0:15.129',65.09585568
'0:15.133',97.19110025
'0:15.137',136.0313257
'0:15.141',141.6898667
'0:15.145',145.1755279
'0:15.148',162.4227609
'0:15.152',190.7154659
'0:15.156',213.3948983
'0:15.160',221.9958806
'0:15.164',227.1112017
'0:15.168',227.1112017
'0:15.172',253.0046853
'0:15.176',258.9348362
'0:15.180',254.0911251
'0:15.184',260.5644961
'0:15.188',258.3916163
'0:15.191',266.2230371
'0:15.195',257.5767864
'0:15.199',254.6343451
'0:15.203',245.1732645
'0:15.207',225.7984201
'0:15.211',232.271791
'0:15.215',238.473552
'0:15.219',220.9094407
'0:15.223',213.9381182
'0:15.227',209.8639687
'0:15.230',213.3948983
'0:15.234',219.0534393
'0:15.238',219.3250492
'0:15.242',198.5468867
'0:15.246',179.3983839
'0:15.250',165.6820805
'0:15.254',169.1677418
'0:15.258',152.7353387
'0:15.262',118.4672144
'0:15.266',116.611213
'0:15.270',100.4051515
'0:15.273',102.0348113
'0:15.277',86.96045812
'0:15.281',86.14562821
'0:15.285',83.7011385
'0:15.289',83.15791856
'0:15.293',84.5159684
'0:15.297',86.14562821
'0:15.301',85.60240828
'0:15.305',83.7011385
'0:15.309',82.88630859
'0:15.313',99.36397999
'0:15.316',100.4051515
'0:15.320',100.9483715
'0:15.324',85.05918834
'0:15.328',99.8619316
'0:15.332',98.00593015
'0:15.336',98.82076006
'0:15.340',100.4051515
'0:15.344',116.611213
'0:15.348',99.09237002
'0:15.352',83.42952853
'0:15.355',99.63558996
'0:15.359',129.2863448
'0:15.363',143.5458681
'0:15.367',145.7187479
'0:15.371',149.2044091
'0:15.375',164.8672506
'0:15.379',161.0647111
'0:15.383',175.0978928
'0:15.387',176.7275526
'0:15.391',180.4848238
'0:15.395',165.4104706
'0:15.398',162.4227609
'0:15.402',143.5458681
'0:15.406',144.0890881
'0:15.410',146.2619678
'0:15.414',131.6855662
'0:15.418',130.3275164
'0:15.422',127.385075
'0:15.426',110.952672
'0:15.430',128.7431249
'0:15.434',129.5579548
'0:15.438',128.7431249
'0:15.441',127.385075
'0:15.445',127.1134651
'0:15.449',127.928295
'0:15.453',128.7431249
'0:15.457',127.928295
'0:15.461',142.4594283
'0:15.465',141.6898667
'0:15.469',143.2742582
'0:15.473',160.0235395
'0:15.477',159.2087096
'0:15.480',158.1222698
'0:15.484',250.6054639
'0:15.488',403.1597293
'0:15.492',574.3645459
'0:15.496',676.5351622
'0:15.500',568.1627849
'0:15.504',424.4811118
'0:15.508',303.4336027
'0:15.512',167.538082
'0:15.516',155.4061701
'0:15.520',87.50367805
'0:15.523',-78.58581743
'0:15.527',-199.3617166
'0:15.531',-164.5956407
'0:15.535',-72.11244653
'0:15.539',88.27323963
'0:15.543',219.3250492
'0:15.547',263.2353274
'0:15.551',268.3959168
'0:15.555',251.3750255
'0:15.559',255.720785
'0:15.563',278.8981689
'0:15.566',320.4092257
'0:15.570',330.3682579
'0:15.574',318.7795659
'0:15.578',306.647654
'0:15.582',324.7097169
'0:15.586',362.4635024
'0:15.590',374.8670243
'0:15.594',368.3936534
'0:15.598',357.0765714
'0:15.602',355.4469116
'0:15.605',374.5954143
'0:15.609',372.6941445
'0:15.613',353.3193002
'0:15.617',341.9569498
'0:15.621',367.5788235
'0:15.625',399.1308481
'0:15.629',400.4888979
'0:15.633',402.6165094
'0:15.637',407.2338788
'0:15.641',428.238383
'0:15.645',457.3459179
'0:15.648',476.7660307
'0:15.652',482.4245717
'0:15.656',488.0831127
'0:15.660',506.4167855
'0:15.664',517.5075259
'0:15.668',537.9688101
'0:15.672',529.8657794
'0:15.676',536.0675404
'0:15.680',536.3391503
'0:15.684',545.5286209
'0:15.688',535.2979788
'0:15.691',529.6394378
'0:15.695',504.0175641
'0:15.699',502.3879043
'0:15.703',493.243702
'0:15.707',498.9022431
'0:15.711',479.2105204
'0:15.715',471.3790996
'0:15.719',468.1650483
'0:15.723',472.7371495
'0:15.727',462.7781173
'0:15.730',477.0376406
'0:15.734',469.2062199
'0:15.738',450.3745954
'0:15.742',439.827075
'0:15.746',444.7160544
'0:15.750',426.3823816
'0:15.754',404.2461692
'0:15.758',385.9124963
'0:15.762',388.900206
'0:15.766',407.2338788
'0:15.770',389.9866458
'0:15.773',371.924583
'0:15.777',370.5665331
'0:15.781',354.9036916
'0:15.785',355.9901315
'0:15.789',355.1753016
'0:15.793',353.0476902
'0:15.797',352.2328603
'0:15.801',353.0476902
'0:15.805',369.4800933
'0:15.809',368.3936534
'0:15.813',367.5788235
'0:15.816',367.5788235
'0:15.820',367.8504334
'0:15.824',367.5788235
'0:15.828',382.1552251
'0:15.832',365.4512121
'0:15.836',366.4923836
'0:15.840',382.1552251
'0:15.844',426.6539915
'0:15.848',424.7527218
'0:15.852',428.238383
'0:15.855',447.3868858
'0:15.859',445.214006
'0:15.863',456.8479663
'0:15.867',455.2183065
'0:15.871',473.8235893
'0:15.875',476.2228107
'0:15.879',460.3336276
'0:15.883',457.3459179
'0:15.887',438.7859034
'0:15.891',439.2838551
'0:15.895',440.6419049
'0:15.898',425.2959417
'0:15.902',408.3203187
'0:15.906',405.875829
'0:15.910',404.2461692
'0:15.914',404.5177791
'0:15.918',405.875829
'0:15.922',390.4845975
'0:15.926',358.4346212
'0:15.930',356.5333514
'0:15.934',353.8625201
'0:15.938',384.0564949
'0:15.941',400.217288
'0:15.945',418.2793509
'0:15.949',434.9833639
'0:15.953',433.6253141
'0:15.957',432.3125325
'0:15.961',401.3037279
'0:15.965',371.924583
'0:15.969',432.5841425
'0:15.973',549.2858921
'0:15.977',654.987438
'0:15.980',742.5816528
'0:15.984',757.4296643
'0:15.988',854.7565696
'0:15.992',918.0869605
'0:15.996',939.408343
'0:16.000',1073.674204
'0:16.004',979.01813
'0:16.008',634.4808855
'0:16.012',335.8004572
'0:16.016',271.0667482
'0:16.020',308.8205337
'0:16.023',386.7273262
'0:16.027',457.8891379
'0:16.031',457.074308
'0:16.035',426.6539915
'0:16.039',371.381363
'0:16.043',357.8914013
'0:16.047',384.3281048
'0:16.051',413.4356398
'0:16.055',407.2338788
'0:16.059',360.5622326
'0:16.063',346.0310993
'0:16.066',363.5499423
'0:16.070',418.8225708
'0:16.074',432.3125325
'0:16.078',410.1763201
'0:16.082',398.3160182
'0:16.086',410.4479301
'0:16.090',428.781603
'0:16.094',429.0532129
'0:16.098',411.53437
'0:16.102',430.6828727
'0:16.105',437.4278536
'0:16.109',470.2926597
'0:16.113',474.0951993
'0:16.117',461.1484575
'0:16.121',464.3625088
'0:16.125',467.0786085
'0:16.129',496.1861434
'0:16.133',501.5730744
'0:16.137',492.9720921
'0:16.141',497.2725832
'0:16.145',497.0009733
'0:16.148',507.5032254
'0:16.152',529.6394378
'0:16.156',522.8944569
'0:16.160',497.5441932
'0:16.164',497.2725832
'0:16.168',504.2891741
'0:16.172',492.9720921
'0:16.176',489.1695525
'0:16.180',465.4489486
'0:16.184',448.2017157
'0:16.188',453.0454268
'0:16.191',456.3047464
'0:16.195',453.0454268
'0:16.199',447.6584957
'0:16.203',446.3004459
'0:16.207',450.1029855
'0:16.211',453.0454268
'0:16.215',435.5265838
'0:16.219',431.2260927
'0:16.223',413.1640298
'0:16.227',399.945678
'0:16.230',386.7273262
'0:16.234',369.7517032
'0:16.238',365.1796021
'0:16.242',346.5743193
'0:16.246',333.3559675
'0:16.250',320.9524456
'0:16.254',319.8660058
'0:16.258',314.4790747
'0:16.262',312.034585
'0:16.266',314.4790747
'0:16.270',318.2363459
'0:16.273',302.6187728
'0:16.277',298.8615016
'0:16.281',295.058962
'0:16.285',295.8737919
'0:16.289',299.4047215
'0:16.293',300.445893
'0:16.297',297.7750617
'0:16.301',294.5157421
'0:16.305',279.1697789
'0:16.309',282.1122202
'0:16.313',298.0466717
'0:16.316',294.5157421
'0:16.320',308.2773138
'0:16.324',309.6353636
'0:16.328',297.2318417
'0:16.332',313.6642448
'0:16.336',324.7097169
'0:16.340',321.4956656
'0:16.344',324.1664969
'0:16.348',313.1210249
'0:16.352',313.3926348
'0:16.355',292.6597406
'0:16.359',288.8572011
'0:16.363',274.3260678
'0:16.367',263.0089858
'0:16.371',263.7785473
'0:16.375',243.3172631
'0:16.379',239.5147235
'0:16.383',224.7119803
'0:16.387',213.3948983
'0:16.391',229.5556914
'0:16.395',209.3207487
'0:16.398',206.6499174
'0:16.402',208.0079672
'0:16.406',195.6044454
'0:16.410',196.4192753
'0:16.414',192.8883457
'0:16.418',189.4026844
'0:16.422',190.2175143
'0:16.426',193.7031756
'0:16.430',195.0612254
'0:16.434',192.3451257
'0:16.438',189.1310744
'0:16.441',220.1398791
'0:16.445',361.1054526
'0:16.449',530.1373894
'0:16.453',687.8522442
'0:16.457',714.8321677
'0:16.461',560.0597542
'0:16.465',409.9047102
'0:16.469',250.3338539
'0:16.473',193.1599556
'0:16.477',138.4305471
'0:16.480',1.76546479
'0:16.484',-179.3983839
'0:16.488',-189.6742944
'0:16.492',-137.3441072
'0:16.496',-17.11142799
'0:16.500',103.9360811
'0:16.504',194.2463955
'0:16.508',202.3494262
'0:16.512',170.5257916
'0:16.516',157.5790498
'0:16.520',183.4725334
'0:16.523',216.8805595
'0:16.527',229.8273013
'0:16.531',222.5391005
'0:16.535',179.9416039
'0:16.539',184.2873634
'0:16.543',210.9504086
'0:16.547',239.2431136
'0:16.551',222.2674906
'0:16.555',215.7941196
'0:16.559',232.271791
'0:16.563',268.6675268
'0:16.566',282.1122202
'0:16.570',272.153188
'0:16.574',284.01349
'0:16.578',295.058962
'0:16.582',326.8825966
'0:16.586',357.3481813
'0:16.590',352.2328603
'0:16.594',336.0267989
'0:16.598',344.9446595
'0:16.602',354.9036916
'0:16.605',368.1220434
'0:16.609',382.4268351
'0:16.613',384.0564949
'0:16.617',376.4966841
'0:16.621',385.0976664
'0:16.625',412.6208099
'0:16.629',411.53437
'0:16.633',400.4888979
'0:16.637',393.7439171
'0:16.641',383.7848849
'0:16.645',377.8547339
'0:16.648',362.1918924
'0:16.652',321.2240556
'0:16.656',298.5898916
'0:16.660',285.3715398
'0:16.664',261.379326
'0:16.668',263.2353274
'0:16.672',255.177565
'0:16.676',232.543401
'0:16.680',235.4858423
'0:16.684',226.88486
'0:16.688',213.3948983
'0:16.691',207.1931373
'0:16.695',184.513705
'0:16.699',170.2541817
'0:16.703',161.336321
'0:16.707',147.8916276
'0:16.711',126.8418551
'0:16.715',105.022521
'0:16.719',105.022521
'0:16.723',94.2033906
'0:16.727',97.46271021
'0:16.730',78.58581743
'0:16.734',73.74210634
'0:16.738',57.0380933
'0:16.742',61.06697449
'0:16.746',63.46619588
'0:16.750',61.33858446
'0:16.754',57.53604491
'0:16.758',57.0380933
'0:16.762',59.98053462
'0:16.766',62.42502433
'0:16.770',61.06697449
'0:16.773',57.80765487
'0:16.777',57.0380933
'0:16.781',59.43731468
'0:16.785',61.61019443
'0:16.789',91.53255924
'0:16.793',72.65566646
'0:16.797',74.0137163
'0:16.801',76.68454766
'0:16.805',92.61899912
'0:16.809',89.90289944
'0:16.813',88.81645956
'0:16.816',90.44611937
'0:16.820',92.34738915
'0:16.824',92.07577918
'0:16.828',74.55693624
'0:16.832',73.74210634
'0:16.836',74.0137163
'0:16.840',59.16570471
'0:16.844',59.70892465
'0:16.848',58.35087481
'0:16.852',41.10364184
'0:16.855',41.91847174
'0:16.859',42.73330165
'0:16.863',42.46169168
'0:16.867',41.37525181
'0:16.871',56.49487336
'0:16.875',56.76648333
'0:16.879',58.07926484
'0:16.883',58.89409475
'0:16.887',58.07926484
'0:16.891',56.49487336
'0:16.895',56.49487336
'0:16.898',72.92727643
'0:16.902',73.47049637
'0:16.906',58.35087481
'0:16.910',74.0137163
'0:16.914',195.3328354
'0:16.918',330.6398678
'0:16.922',443.6296145
'0:16.926',473.2803694
'0:16.930',377.311514
'0:16.934',313.9358548
'0:16.938',248.1609742
'0:16.941',264.0501573
'0:16.945',313.6642448
'0:16.949',222.5391005
'0:16.953',5.25112605
'0:16.957',-96.10466037
'0:16.961',-84.24435843
'0:16.965',-14.44059664
'0:16.969',81.03030715
'0:16.973',134.4016659
'0:16.977',147.6200177
'0:16.980',122.269754
'0:16.984',93.43382902
'0:16.988',113.6235033
'0:16.992',142.4594283
'0:16.996',173.196623
'0:17.000',171.6122315
'0:17.004',146.8051878
'0:17.008',147.6200177
'0:17.012',170.7974016
'0:17.016',200.1765465
'0:17.020',202.6210362
'0:17.023',182.1144836
'0:17.027',196.9172269
'0:17.031',214.9792897
'0:17.035',243.588873
'0:17.039',234.6710124
'0:17.043',233.0413526
'0:17.047',229.8273013
'0:17.051',259.4780562
'0:17.055',271.0667482
'0:17.059',266.2230371
'0:17.063',267.5810869
'0:17.066',262.1941559
'0:17.070',272.424798
'0:17.074',299.1331115
'0:17.078',296.4170118
'0:17.082',284.8283199
'0:17.086',279.7129988
'0:17.090',286.7295896
'0:17.094',295.330572
'0:17.098',294.5157421
'0:17.102',285.3715398
'0:17.105',295.330572
'0:17.109',284.01349
'0:17.113',277.5401191
'0:17.117',278.354949
'0:17.121',253.5479052
'0:17.125',247.0745343
'0:17.129',234.1277925
'0:17.133',226.88486
'0:17.137',243.860483
'0:17.141',235.4858423
'0:17.145',229.5556914
'0:17.148',233.0413526
'0:17.152',225.2552002
'0:17.156',226.88486
'0:17.160',204.2054277
'0:17.164',182.6577035
'0:17.168',184.2873634
'0:17.172',174.0114529
'0:17.176',160.7931011
'0:17.180',140.8750368
'0:17.184',119.5536543
'0:17.188',103.6644712
'0:17.191',107.6933524
'0:17.195',109.3230122
'0:17.199',91.26094928
'0:17.203',88.00162966
'0:17.207',87.23206808
'0:17.211',89.63128947
'0:17.215',91.53255924
'0:17.219',90.71772934
'0:17.223',103.6644712
'0:17.227',102.3064213
'0:17.230',104.750911
'0:17.234',123.0845839
'0:17.238',121.998144
'0:17.242',135.2164958
'0:17.246',134.1300559
'0:17.250',136.5292773
'0:17.254',154.3197302
'0:17.258',168.3529119
'0:17.262',181.2996537
'0:17.266',181.5712637
'0:17.270',200.4481565
'0:17.273',201.8062063
'0:17.277',215.7941196
'0:17.281',228.4692515
'0:17.285',228.4692515
'0:17.289',216.6089496
'0:17.293',218.7818293
'0:17.297',215.7941196
'0:17.301',211.2220185
'0:17.305',195.6044454
'0:17.309',199.6333265
'0:17.313',200.9913764
'0:17.316',182.6577035
'0:17.320',179.3983839
'0:17.324',163.5092008
'0:17.328',165.9536905
'0:17.332',166.994862
'0:17.336',164.8672506
'0:17.340',162.4227609
'0:17.344',178.0856024
'0:17.348',179.6699939
'0:17.352',166.2253005
'0:17.355',181.5712637
'0:17.359',177.8139924
'0:17.363',192.0735158
'0:17.367',193.9747855
'0:17.371',197.1888368
'0:17.375',197.4604468
'0:17.379',209.5923587
'0:17.383',299.4047215
'0:17.387',453.0454268
'0:17.391',581.3811367
'0:17.395',608.8590118
'0:17.398',466.2637786
'0:17.402',344.1298296
'0:17.406',216.8805595
'0:17.410',195.8760553
'0:17.414',222.2674906
'0:17.418',144.903918
'0:17.422',-36.80315068
'0:17.426',-133.315226
'0:17.430',-89.08806953
'0:17.434',-8.2388357
'0:17.438',115.7963831
'0:17.441',202.8473778
'0:17.445',237.1155021
'0:17.449',230.0989113
'0:17.453',198.5468867
'0:17.457',200.1765465
'0:17.461',229.5556914
'0:17.465',262.7373758
'0:17.469',261.379326
'0:17.473',234.9426224
'0:17.477',234.1277925
'0:17.480',257.5767864
'0:17.484',288.5855911
'0:17.488',276.4536792
'0:17.492',270.2519183
'0:17.496',282.3838302
'0:17.500',300.445893
'0:17.504',316.1087345
'0:17.508',324.4381069
'0:17.512',305.0632625
'0:17.516',299.4047215
'0:17.520',329.0554763
'0:17.523',357.8914013
'0:17.527',369.2084833
'0:17.531',354.6320817
'0:17.535',365.1796021
'0:17.539',389.9866458
'0:17.543',416.1064711
'0:17.547',430.4112628
'0:17.551',435.2549739
'0:17.555',429.8680428
'0:17.559',436.6130237
'0:17.563',445.485616
'0:17.566',459.7904076
'0:17.570',450.1029855
'0:17.574',429.8680428
'0:17.578',435.7981938
'0:17.582',442.2715647
'0:17.586',440.3702949
'0:17.590',417.192911
'0:17.594',398.3160182
'0:17.598',386.4557163
'0:17.602',390.7562074
'0:17.605',388.356986
'0:17.609',382.4268351
'0:17.613',364.9079921
'0:17.617',368.9368733
'0:17.621',356.2617415
'0:17.625',339.0145085
'0:17.629',333.8991874
'0:17.633',315.2939046
'0:17.637',302.6187728
'0:17.641',290.4868609
'0:17.645',273.7828478
'0:17.648',253.0046853
'0:17.652',234.3994025
'0:17.656',236.0290623
'0:17.660',223.0823205
'0:17.664',208.0079672
'0:17.668',204.7486476
'0:17.672',200.9913764
'0:17.676',185.6001449
'0:17.680',174.0114529
'0:17.684',175.3695027
'0:17.688',155.67778
'0:17.691',152.1921188
'0:17.695',136.8008873
'0:17.699',140.3318168
'0:17.703',141.1466468
'0:17.707',138.1589371
'0:17.711',135.4881058
'0:17.715',136.0313257
'0:17.719',123.6278038
'0:17.723',124.9405853
'0:17.727',137.3441072
'0:17.730',148.9327992
'0:17.734',149.7476291
'0:17.738',155.1345601
'0:17.742',172.925013
'0:17.746',184.2873634
'0:17.750',180.2132138
'0:17.754',182.1144836
'0:17.758',171.6122315
'0:17.762',172.925013
'0:17.766',168.0813019
'0:17.770',147.8916276
'0:17.773',164.8672506
'0:17.777',153.2785587
'0:17.781',155.4061701
'0:17.785',136.8008873
'0:17.789',132.7720061
'0:17.793',131.6855662
'0:17.797',134.6732758
'0:17.801',121.998144
'0:17.805',121.1833141
'0:17.809',116.8828229
'0:17.813',114.7099432
'0:17.816',116.8828229
'0:17.820',120.3684842
'0:17.824',120.3684842
'0:17.828',116.8828229
'0:17.832',114.7099432
'0:17.836',100.6767615
'0:17.840',104.2076911
'0:17.844',103.3928612
'0:17.848',99.8619316
'0:17.852',113.6235033
'0:17.855',207.4647473
'0:17.859',316.6519545
'0:17.863',397.2295783
'0:17.867',373.5089745
'0:17.871',273.5112379
'0:17.875',287.4991512
'0:17.879',254.6343451
'0:17.883',292.1165207
'0:17.887',392.3858672
'0:17.891',313.3926348
'0:17.895',78.0425975
'0:17.898',-98.00593015
'0:17.902',-96.37627034
'0:17.906',-15.75337815
'0:17.910',85.60240828
'0:17.914',153.2785587
'0:17.918',160.0235395
'0:17.922',143.0026482
'0:17.926',110.1378421
'0:17.930',119.8252643
'0:17.934',145.9903579
'0:17.938',168.8961318
'0:17.941',159.7519296
'0:17.945',147.8916276
'0:17.949',137.8873271
'0:17.953',157.8506598
'0:17.957',179.6699939
'0:17.961',190.4891243
'0:17.965',166.994862
'0:17.969',172.4270614
'0:17.973',186.6865847
'0:17.977',206.3783074
'0:17.980',205.5634775
'0:17.984',202.0778163
'0:17.988',189.9459044
'0:17.992',200.4481565
'0:17.996',233.5845726
'0:18.000',234.6710124
'0:18.004',235.4858423
'0:18.008',224.1687603
'0:18.012',231.4569611
'0:18.016',246.2597044
'0:18.020',264.0501573
'0:18.023',267.037867
'0:18.027',256.8072248
'0:18.031',278.354949
'0:18.035',290.7584708
'0:18.039',278.6265589
'0:18.043',269.4370883
'0:18.047',243.3172631
'0:18.051',229.8273013
'0:18.055',224.1687603
'0:18.059',212.3084584
'0:18.063',189.1310744
'0:18.066',117.9239945
'0:18.070',88.5448496
'0:18.074',109.0514022
'0:18.078',123.8994138
'0:18.082',103.6644712
'0:18.086',71.84083656
'0:18.090',59.98053462
'0:18.094',60.79536452
'0:18.098',72.38405649
'0:18.102',68.62678527
'0:18.105',70.75439669
'0:18.109',75.59810778
'0:18.113',61.06697449
'0:18.117',42.19008171
'0:18.121',22.76996899
'0:18.125',-8.2388357
'0:18.129',-20.64235757
'0:18.133',-35.7167108
'0:18.137',-39.24764039
'0:18.141',-43.00491161
'0:18.145',-41.91847174
'0:18.148',-53.50716371
'0:18.152',-51.10794233
'0:18.156',-69.93956678
'0:18.160',-73.74210634
'0:18.164',-89.63128947
'0:18.168',-85.87401824
'0:18.172',-99.63558996
'0:18.176',-101.4915914
'0:18.180',-120.6400942
'0:18.184',-136.3029357
'0:18.188',-133.586836
'0:18.191',-132.7720061
'0:18.195',-165.4104706
'0:18.199',-166.2253005
'0:18.203',-167.538082
'0:18.207',-167.266472
'0:18.211',-165.6820805
'0:18.215',-180.2132138
'0:18.219',-180.2132138
'0:18.223',-166.994862
'0:18.227',-168.0813019
'0:18.230',-181.2996537
'0:18.234',-193.1599556
'0:18.238',-193.7031756
'0:18.242',-213.6665082
'0:18.246',-215.5225097
'0:18.250',-213.3948983
'0:18.254',-225.5268102
'0:18.258',-240.0579435
'0:18.262',-258.3916163
'0:18.266',-261.6509359
'0:18.270',-261.9225459
'0:18.273',-274.3260678
'0:18.277',-271.3383581
'0:18.281',-272.9680179
'0:18.285',-276.4536792
'0:18.289',-276.9968991
'0:18.293',-273.5112379
'0:18.297',-270.5235282
'0:18.301',-271.6099681
'0:18.305',-274.5976777
'0:18.309',-275.1408977
'0:18.313',-272.424798
'0:18.316',-254.6343451
'0:18.320',-270.7951382
'0:18.324',-287.0011996
'0:18.328',-271.8815781
'0:18.332',-179.9416039
'0:18.336',-73.1988864
'0:18.340',8.51044567
'0:18.344',-11.99610692
'0:18.348',-33.31748942
'0:18.352',38.97603042
'0:18.355',6.88078586
'0:18.359',99.63558996
'0:18.363',142.1878183
'0:18.367',-13.8973767
'0:18.371',-317.4667844
'0:18.375',-485.6838913
'0:18.379',-441.9999547
'0:18.383',-371.924583
'0:18.387',-289.672031
'0:18.391',-249.790634
'0:18.395',-253.0046853
'0:18.398',-281.0710486
'0:18.402',-311.5366334
'0:18.406',-304.7916525
'0:18.410',-272.153188
'0:18.414',-256.8072248
'0:18.418',-276.7252892
'0:18.422',-303.1619927
'0:18.426',-301.8039429
'0:18.430',-275.9104593
'0:18.434',-260.2928861
'0:18.438',-273.5112379
'0:18.441',-296.1454019
'0:18.445',-298.3182816
'0:18.449',-278.354949
'0:18.453',-247.8893642
'0:18.457',-256.5356149
'0:18.461',-258.9348362
'0:18.465',-262.7373758
'0:18.469',-247.0745343
'0:18.473',-233.3129626
'0:18.477',-222.8107105
'0:18.480',-223.6255404
'0:18.484',-228.4692515
'0:18.488',-199.6333265
'0:18.492',-171.3406215
'0:18.496',-174.2830629
'0:18.500',-171.0690116
'0:18.504',-176.7275526
'0:18.508',-167.266472
'0:18.512',-140.6034268
'0:18.516',-142.2330866
'0:18.520',-152.1921188
'0:18.523',-172.4270614
'0:18.527',-165.6820805
'0:18.531',-158.1222698
'0:18.535',-174.2830629
'0:18.539',-196.9172269
'0:18.543',-216.6089496
'0:18.547',-228.7408615
'0:18.551',-238.745162
'0:18.555',-238.473552
'0:18.559',-260.0212761
'0:18.563',-278.6265589
'0:18.566',-275.6388493
'0:18.570',-287.0011996
'0:18.574',-301.8039429
'0:18.578',-320.9524456
'0:18.582',-339.8293384
'0:18.586',-354.3604717
'0:18.590',-366.4923836
'0:18.594',-396.4600168
'0:18.598',-413.9788597
'0:18.602',-433.3537041
'0:18.605',-449.5597655
'0:18.609',-446.5720559
'0:18.613',-475.6795908
'0:18.617',-475.6795908
'0:18.621',-479.2105204
'0:18.625',-496.1861434
'0:18.629',-492.9720921
'0:18.633',-489.9843824
'0:18.637',-490.2559924
'0:18.641',-492.9720921
'0:18.645',-508.8612752
'0:18.648',-505.8735656
'0:18.652',-504.0175641
'0:18.656',-504.832394
'0:18.660',-522.079627
'0:18.664',-521.2647971
'0:18.668',-519.6351373
'0:18.672',-518.8203074
'0:18.676',-534.4831489
'0:18.680',-534.2115389
'0:18.684',-534.4831489
'0:18.688',-503.2027342
'0:18.691',-502.9311242
'0:18.695',-515.6062561
'0:18.699',-512.6185464
'0:18.703',-514.2482062
'0:18.707',-517.2359159
'0:18.711',-516.9643059
'0:18.715',-528.8246079
'0:18.719',-525.8368982
'0:18.723',-542.8125212
'0:18.727',-545.8002309
'0:18.730',-561.961024
'0:18.734',-574.0929359
'0:18.738',-586.7680677
'0:18.742',-618.8633123
'0:18.746',-637.4685951
'0:18.750',-654.7158281
'0:18.754',-668.7490098
'0:18.758',-681.3788733
'0:18.762',-665.4896901
'0:18.766',-683.823363
'0:18.770',-683.823363
'0:18.773',-681.3788733
'0:18.777',-678.9796519
'0:18.781',-678.7080419
'0:18.785',-680.0660918
'0:18.789',-680.0660918
'0:18.793',-693.5107852
'0:18.797',-690.8399538
'0:18.801',-691.3831738
'0:18.805',-708.6304067
'0:18.809',-708.0871868
'0:18.813',-629.3655644
'0:18.816',-506.4167855
'0:18.820',-412.3491999
'0:18.824',-387.5421561
'0:18.828',-452.5022068
'0:18.832',-418.8225708
'0:18.836',-388.0853761
'0:18.840',-368.3936534
'0:18.844',-296.1454019
'0:18.848',-401.3037279
'0:18.852',-698.9429845
'0:18.855',-910.0291981
'0:18.859',-929.4493108
'0:18.863',-849.3696385
'0:18.867',-743.3964827
'0:18.871',-686.8110726
'0:18.875',-664.1316403
'0:18.879',-685.7246328
'0:18.883',-719.6758788
'0:18.887',-720.4907087
'0:18.891',-689.210294
'0:18.895',-667.11935
'0:18.898',-680.8809217
'0:18.902',-709.1736267
'0:18.906',-714.0173378
'0:18.910',-674.6791607
'0:18.914',-654.4442181
'0:18.918',-661.189199
'0:18.922',-667.9341799
'0:18.926',-675.7203323
'0:18.930',-642.8555261
'0:18.934',-623.7070234
'0:18.938',-610.2170616
'0:18.941',-628.5507345
'0:18.945',-621.2625337
'0:18.949',-593.7846586
'0:18.953',-561.689414
'0:18.957',-544.985401
'0:18.961',-527.1949481
'0:18.965',-520.1783572
'0:18.969',-495.6429234
'0:18.973',-464.9057287
'0:18.977',-462.2348974
'0:18.980',-457.1195763
'0:18.984',-466.2637786
'0:18.988',-460.8768475
'0:18.992',-432.8557525
'0:18.996',-429.5964329
'0:19.000',-437.1562436
'0:19.004',-444.7160544
'0:19.008',-441.7283448
'0:19.012',-447.9301057
'0:19.016',-443.6296145
'0:19.020',-465.4489486
'0:19.023',-472.4655395
'0:19.027',-471.9223196
'0:19.031',-479.7537403
'0:19.035',-474.3668093
'0:19.039',-478.6673004
'0:19.043',-485.6838913
'0:19.047',-485.6838913
'0:19.051',-494.0132636
'0:19.055',-488.3547226
'0:19.059',-507.2316154
'0:19.063',-513.4333763
'0:19.066',-530.4089993
'0:19.070',-540.1416899
'0:19.074',-550.372332
'0:19.078',-552.5452117
'0:19.082',-574.6361558
'0:19.086',-575.7225957
'0:19.090',-586.2248478
'0:19.094',-565.4919536
'0:19.098',-583.0107965
'0:19.102',-586.7680677
'0:19.105',-572.4632761
'0:19.109',-569.2492248
'0:19.113',-579.7514769
'0:19.117',-562.7758539
'0:19.121',-567.347955
'0:19.125',-569.7924447
'0:19.129',-581.9243566
'0:19.133',-576.2658156
'0:19.137',-576.2658156
'0:19.141',-596.2291483
'0:19.145',-597.8135398
'0:19.148',-610.7602816
'0:19.152',-606.4597904
'0:19.156',-621.8057536
'0:19.160',-639.8678165
'0:19.164',-626.4231231
'0:19.168',-625.8799031
'0:19.172',-606.4597904
'0:19.176',-603.7436907
'0:19.180',-604.0153007
'0:19.184',-590.0273873
'0:19.188',-575.1793758
'0:19.191',-572.734886
'0:19.195',-568.4343949
'0:19.199',-567.347955
'0:19.203',-569.7924447
'0:19.207',-571.6937145
'0:19.211',-569.7924447
'0:19.215',-566.2615151
'0:19.219',-564.9487336
'0:19.223',-582.1959666
'0:19.227',-598.6283697
'0:19.230',-582.4675766
'0:19.234',-597.2703198
'0:19.238',-595.1427084
'0:19.242',-594.8710984
'0:19.246',-595.9575383
'0:19.250',-595.9575383
'0:19.254',-594.3278785
'0:19.258',-577.0806455
'0:19.262',-592.4266087
'0:19.266',-591.6117788
'0:19.270',-576.5374256
'0:19.273',-592.1549988
'0:19.277',-590.0273873
'0:19.281',-588.6693375
'0:19.285',-589.2125574
'0:19.289',-605.3733505
'0:19.293',-542.5409113
'0:19.297',-404.2461692
'0:19.301',-265.4082072
'0:19.305',-179.6699939
'0:19.309',-196.1476653
'0:19.313',-218.2386094
'0:19.316',-196.4192753
'0:19.320',-213.1232883
'0:19.324',-166.994862
'0:19.328',-244.9469229
'0:19.332',-522.079627
'0:19.336',-709.4452366
'0:19.340',-727.2356896
'0:19.344',-653.0861683
'0:19.348',-537.1539802
'0:19.352',-448.2017157
'0:19.355',-404.5177791
'0:19.359',-421.7650121
'0:19.363',-426.3823816
'0:19.367',-418.2793509
'0:19.371',-372.4678029
'0:19.375',-329.3270863
'0:19.379',-322.5821054
'0:19.383',-337.1132387
'0:19.387',-331.7263077
'0:19.391',-293.9725221
'0:19.395',-269.2107467
'0:19.398',-256.5356149
'0:19.402',-265.9514271
'0:19.406',-247.6177542
'0:19.410',-231.7285711
'0:19.414',-192.0735158
'0:19.418',-175.6411127
'0:19.422',-180.7564338
'0:19.426',-178.6288223
'0:19.430',-136.3029357
'0:19.434',-100.6767615
'0:19.438',-96.10466037
'0:19.441',-79.40064734
'0:19.445',-78.31420746
'0:19.449',-56.76648333
'0:19.453',-23.5847989
'0:19.457',14.16898667
'0:19.461',17.92625789
'0:19.465',21.68352912
'0:19.469',40.83203187
'0:19.473',54.86521355
'0:19.477',77.22776759
'0:19.480',68.08356533
'0:19.484',57.0380933
'0:19.488',58.35087481
'0:19.492',69.17000521
'0:19.496',74.82854621
'0:19.500',53.23555374
'0:19.504',44.09135149
'0:19.508',42.73330165
'0:19.512',50.29311242
'0:19.516',40.83203187
'0:19.520',38.16120052
'0:19.523',29.78655983
'0:19.527',26.57250854
'0:19.531',32.23104955
'0:19.535',38.97603042
'0:19.539',37.61798058
'0:19.543',30.87299971
'0:19.547',27.61368009
'0:19.551',16.02498812
'0:19.555',22.22674906
'0:19.559',5.79434599
'0:19.563',-0.13580498
'0:19.566',-4.16468618
'0:19.570',-1.49385482
'0:19.574',4.16468618
'0:19.578',5.25112605
'0:19.582',0.67902492
'0:19.586',-3.12351463
'0:19.590',-1.49385482
'0:19.594',3.0782463
'0:19.598',4.70790611
'0:19.602',1.49385482
'0:19.605',-2.03707476
'0:19.609',14.16898667
'0:19.613',17.38303796
'0:19.617',19.82752767
'0:19.621',18.46947783
'0:19.625',30.60138974
'0:19.629',29.2433399
'0:19.633',32.77426948
'0:19.637',35.98832077
'0:19.641',35.17349087
'0:19.645',62.15341436
'0:19.648',75.10015618
'0:19.652',78.8574274
'0:19.656',84.78757837
'0:19.660',85.05918834
'0:19.664',79.67225731
'0:19.668',106.6069125
'0:19.672',108.2365723
'0:19.676',114.9815532
'0:19.680',133.315226
'0:19.684',112.8086734
'0:19.688',123.8994138
'0:19.691',123.8994138
'0:19.695',129.0147348
'0:19.699',116.8828229
'0:19.703',114.4383332
'0:19.707',108.5081823
'0:19.711',106.8785224
'0:19.715',110.952672
'0:19.719',114.9815532
'0:19.723',113.6235033
'0:19.727',109.0514022
'0:19.730',122.5413639
'0:19.734',124.9405853
'0:19.738',129.5579548
'0:19.742',129.8295648
'0:19.746',125.7554152
'0:19.750',122.8129739
'0:19.754',124.1257554
'0:19.758',143.2742582
'0:19.762',159.2087096
'0:19.766',156.7642199
'0:19.770',186.4149748
'0:19.773',326.0677667
'0:19.777',464.3625088
'0:19.781',547.7015007
'0:19.785',513.7049863
'0:19.789',384.0564949
'0:19.793',316.6519545
'0:19.797',278.8981689
'0:19.801',311.5366334
'0:19.805',320.1376157
'0:19.809',156.49261
'0:19.813',-33.31748942
'0:19.816',-55.40843349
'0:19.820',-18.46947783
'0:19.824',66.72551549
'0:19.828',194.7896155
'0:19.832',260.0212761
'0:19.836',271.3383581
'0:19.840',238.745162
'0:19.844',221.9958806
'0:19.848',256.8072248
'0:19.852',299.1331115
'0:19.855',314.7506847
'0:19.859',290.4868609
'0:19.863',290.7584708
'0:19.867',302.6187728
'0:19.871',324.9813268
'0:19.875',343.5866096
'0:19.879',339.5577284
'0:19.883',324.4381069
'0:19.887',348.9735407
'0:19.891',367.5788235
'0:19.895',387.8137661
'0:19.898',372.6941445
'0:19.902',390.2582558
'0:19.906',409.6331002
'0:19.910',441.4567348
'0:19.914',464.0908988
'0:19.918',469.2062199
'0:19.922',456.3047464
'0:19.926',488.6263326
'0:19.930',515.6062561
'0:19.934',523.1660669
'0:19.938',533.125099
'0:19.941',537.1539802
'0:19.945',550.372332
'0:19.949',559.5618026
'0:19.953',583.2824065
'0:19.957',594.8710984
'0:19.961',584.323578
'0:19.965',581.9243566
'0:19.969',573.5497159
'0:19.973',580.2946968
'0:19.977',560.6029741
'0:19.980',536.0675404
'0:19.984',532.5818791
'0:19.988',521.2647971
'0:19.992',542.5409113
'0:19.996',524.4788484
'0:20.000',518.5486974
'0:20.004',515.0630362
'0:20.008',517.7338675
'0:20.012',506.4167855
'0:20.016',506.4167855
'0:20.020',500.7582445
'0:20.023',481.1117901
'0:20.027',467.8934384
'0:20.031',471.9223196
'0:20.035',455.2183065
'0:20.039',434.9833639
'0:20.043',431.7693126
'0:20.047',416.921301
'0:20.051',404.5177791
'0:20.055',404.7893891
'0:20.059',400.4888979
'0:20.063',381.3403952
'0:20.066',382.970055
'0:20.070',385.6408864
'0:20.074',385.3692764
'0:20.078',382.4268351
'0:20.082',364.6363822
'0:20.086',381.3403952
'0:20.090',382.1552251
'0:20.094',382.4268351
'0:20.098',365.722822
'0:20.102',364.6363822
