'0:00.000',54.59264262
'0:00.004',64.03267581
'0:00.008',66.4525153
'0:00.012',74.80229114
'0:00.016',62.4105856
'0:00.020',72.38245164
'0:00.023',79.93447819
'0:00.027',95.83628057
'0:00.031',104.1860564
'0:00.035',110.1159928
'0:00.039',106.3665711
'0:00.043',113.3601732
'0:00.047',126.5762196
'0:00.051',117.9339357
'0:00.055',126.0443868
'0:00.059',123.5979556
'0:00.063',129.8204
'0:00.066',125.4859623
'0:00.070',132.2402395
'0:00.074',124.9541294
'0:00.078',124.1563801
'0:00.082',114.9822634
'0:00.086',109.5841599
'0:00.090',98.81454456
'0:00.094',92.0602673
'0:00.098',76.69029777
'0:00.102',68.07460551
'0:00.105',45.41852587
'0:00.109',33.82456961
'0:00.113',26.56505114
'0:00.117',11.99283089
'0:00.121',4.17488792
'0:00.125',-2.81871413
'0:00.129',-15.50292774
'0:00.133',-22.52312143
'0:00.137',-20.0766903
'0:00.141',-27.62871685
'0:00.145',-34.64891054
'0:00.148',-32.22907105
'0:00.152',-24.11862
'0:00.156',-36.53691718
'0:00.160',-41.64251259
'0:00.164',-33.29273676
'0:00.168',-33.82456961
'0:00.172',-41.64251259
'0:00.176',-35.71257625
'0:00.180',-40.31293045
'0:00.184',-48.39678986
'0:00.188',-49.46045557
'0:00.191',-42.73276995
'0:00.195',-52.43871956
'0:00.199',-39.48858953
'0:00.203',-47.57244893
'0:00.207',-49.46045557
'0:00.211',-42.99868637
'0:00.215',-37.33466646
'0:00.219',-39.2226731
'0:00.223',-45.68444229
'0:00.227',-32.7609039
'0:00.230',-44.08894373
'0:00.234',-52.97055241
'0:00.238',-37.60058289
'0:00.242',-45.68444229
'0:00.246',-33.82456961
'0:00.250',-44.62077658
'0:00.254',-52.17280313
'0:00.258',-36.53691718
'0:00.262',-45.15260944
'0:00.266',-34.38299411
'0:00.270',-45.15260944
'0:00.273',-36.00508432
'0:00.277',-35.71257625
'0:00.281',-43.8230273
'0:00.285',-33.82456961
'0:00.289',-45.68444229
'0:00.293',-36.80283361
'0:00.297',-35.44665982
'0:00.301',-42.73276995
'0:00.305',-33.29273676
'0:00.309',-30.60698084
'0:00.313',-37.86649932
'0:00.316',-34.11707768
'0:00.320',-40.84476331
'0:00.324',-32.7609039
'0:00.328',-31.93656298
'0:00.332',-38.69084024
'0:00.336',-33.29273676
'0:00.340',-39.2226731
'0:00.344',-32.22907105
'0:00.348',-33.02682033
'0:00.352',-39.48858953
'0:00.355',-33.02682033
'0:00.359',-22.52312143
'0:00.363',-32.22907105
'0:00.367',-32.49498748
'0:00.371',-23.85270357
'0:00.375',-17.92276723
'0:00.379',-6.32881098
'0:00.383',0.39887464
'0:00.387',30.04855634
'0:00.391',22.23061336
'0:00.395',15.76884417
'0:00.398',13.34900467
'0:00.402',33.55865319
'0:00.406',12.52466375
'0:00.410',6.06289455
'0:00.414',0.9307075
'0:00.418',-17.12501795
'0:00.422',-28.7189742
'0:00.426',-35.44665982
'0:00.430',-28.7189742
'0:00.434',-33.82456961
'0:00.438',-32.7609039
'0:00.441',-27.36280042
'0:00.445',-35.1807434
'0:00.449',-29.78263991
'0:00.453',-34.38299411
'0:00.457',-31.93656298
'0:00.461',-41.64251259
'0:00.465',-34.64891054
'0:00.469',-31.40473012
'0:00.473',-36.00508432
'0:00.477',-46.77469965
'0:00.480',-38.95675667
'0:00.484',-34.64891054
'0:00.488',-18.18868366
'0:00.492',-22.23061336
'0:00.496',17.12501795
'0:00.500',40.57884688
'0:00.504',60.52257896
'0:00.508',77.24872227
'0:00.512',90.17226066
'0:00.516',113.6260896
'0:00.520',-16.85910152
'0:00.523',-147.6102091
'0:00.527',-306.6548245
'0:00.531',-246.5577118
'0:00.535',-148.6738748
'0:00.539',-74.53637471
'0:00.543',-14.14675396
'0:00.547',48.92862271
'0:00.551',33.82456961
'0:00.555',-8.21681762
'0:00.559',-16.30067702
'0:00.563',-28.98489063
'0:00.566',-19.27894101
'0:00.570',-32.49498748
'0:00.574',-39.2226731
'0:00.578',-46.77469965
'0:00.582',-30.34106441
'0:00.586',-22.78903786
'0:00.590',-33.02682033
'0:00.594',-36.27100075
'0:00.598',-44.35486015
'0:00.602',-30.87289727
'0:00.605',-25.20887735
'0:00.609',-18.48119173
'0:00.613',-34.64891054
'0:00.617',-40.84476331
'0:00.621',-30.04855634
'0:00.625',-27.62871685
'0:00.629',-20.6351148
'0:00.633',-18.18868366
'0:00.637',-23.32087072
'0:00.641',-13.08308825
'0:00.645',3.11122221
'0:00.648',9.30707497
'0:00.652',13.88083753
'0:00.656',10.92916518
'0:00.660',20.34260673
'0:00.664',18.74710816
'0:00.668',39.75450595
'0:00.672',28.98489063
'0:00.676',28.45305777
'0:00.680',38.15900739
'0:00.684',49.726372
'0:00.688',53.23646884
'0:00.691',44.88669301
'0:00.695',61.87875275
'0:00.699',54.85855905
'0:00.703',65.09634152
'0:00.707',68.07460551
'0:00.711',75.89254849
'0:00.715',77.78055513
'0:00.719',72.11653522
'0:00.723',81.82248483
'0:00.727',98.25612007
'0:00.730',89.64042781
'0:00.734',94.48010679
'0:00.738',90.17226066
'0:00.742',97.99020364
'0:00.746',96.6606215
'0:00.750',103.92014
'0:00.754',93.94827394
'0:00.758',91.52843444
'0:00.762',83.17865861
'0:00.766',80.20039462
'0:00.770',85.5984981
'0:00.773',76.42438135
'0:00.777',75.89254849
'0:00.781',68.34052194
'0:00.785',48.66270628
'0:00.789',37.60058289
'0:00.793',28.1605497
'0:00.797',11.72691447
'0:00.801',4.70672077
'0:00.805',-15.50292774
'0:00.809',-11.72691447
'0:00.813',-21.43286408
'0:00.816',-36.27100075
'0:00.820',-41.93502066
'0:00.824',-47.3065325
'0:00.828',-45.41852587
'0:00.832',-54.85855905
'0:00.836',-67.54277266
'0:00.840',-71.85061879
'0:00.844',-63.20833488
'0:00.848',-63.76675938
'0:00.852',-56.48064926
'0:00.855',-66.71843173
'0:00.859',-69.69669572
'0:00.863',-61.87875275
'0:00.867',-64.56450867
'0:00.871',-73.472709
'0:00.875',-66.18659888
'0:00.879',-53.23646884
'0:00.883',-61.87875275
'0:00.887',-63.76675938
'0:00.891',-57.01248212
'0:00.895',-66.18659888
'0:00.898',-67.80868909
'0:00.902',-60.52257896
'0:00.906',-64.56450867
'0:00.910',-58.3686559
'0:00.914',-66.18659888
'0:00.918',-50.81662935
'0:00.922',-59.45891325
'0:00.926',-48.39678986
'0:00.930',-43.2646028
'0:00.934',-50.55071292
'0:00.938',-49.19453914
'0:00.941',-41.64251259
'0:00.945',-48.39678986
'0:00.949',-44.08894373
'0:00.953',-35.1807434
'0:00.957',-33.29273676
'0:00.961',-24.6770445
'0:00.965',-31.40473012
'0:00.969',-28.1605497
'0:00.973',-19.81077387
'0:00.977',-17.39093438
'0:00.980',-8.21681762
'0:00.984',-14.70517846
'0:00.988',-11.99283089
'0:00.992',-4.17488792
'0:00.996',-17.12501795
'0:01.000',-6.59472741
'0:01.004',-13.88083753
'0:01.008',-12.81717182
'0:01.012',-5.26514527
'0:01.016',-16.85910152
'0:01.020',-20.90103122
'0:01.023',-12.81717182
'0:01.027',-14.14675396
'0:01.031',-22.52312143
'0:01.035',-16.30067702
'0:01.039',-20.0766903
'0:01.043',-12.52466375
'0:01.047',-14.97109488
'0:01.051',-23.05495429
'0:01.055',-16.0347606
'0:01.059',-3.64305506
'0:01.063',2.55279771
'0:01.066',16.0347606
'0:01.070',23.58678714
'0:01.074',16.56659345
'0:01.078',30.60698084
'0:01.082',35.71257625
'0:01.086',31.13881369
'0:01.090',23.32087072
'0:01.094',17.39093438
'0:01.098',0.39887464
'0:01.102',-25.74071021
'0:01.105',-31.93656298
'0:01.109',-42.46685352
'0:01.113',-48.92862271
'0:01.117',-48.13087343
'0:01.121',-41.64251259
'0:01.125',-48.66270628
'0:01.129',-43.53051923
'0:01.133',-49.19453914
'0:01.137',-47.04061608
'0:01.141',-40.57884688
'0:01.145',-48.39678986
'0:01.148',-44.35486015
'0:01.152',-34.11707768
'0:01.156',-46.77469965
'0:01.160',-38.42492381
'0:01.164',-47.04061608
'0:01.168',-44.88669301
'0:01.172',-35.44665982
'0:01.176',-31.40473012
'0:01.180',-21.96469694
'0:01.184',0.9307075
'0:01.188',17.12501795
'0:01.191',26.83096756
'0:01.195',49.19453914
'0:01.199',90.43817709
'0:01.203',-27.36280042
'0:01.207',-176.7280579
'0:01.211',-307.4791655
'0:01.215',-268.655367
'0:01.219',-169.4419478
'0:01.223',-85.06666525
'0:01.227',-29.78263991
'0:01.230',30.87289727
'0:01.234',29.25080706
'0:01.238',3.37713863
'0:01.242',-12.25874732
'0:01.246',-13.6149211
'0:01.250',-5.26514527
'0:01.254',-19.01302459
'0:01.258',-25.20887735
'0:01.262',-42.20093709
'0:01.266',-16.85910152
'0:01.270',4.99922884
'0:01.273',-4.17488792
'0:01.277',-4.70672077
'0:01.281',-21.96469694
'0:01.285',-2.02096485
'0:01.289',0.9307075
'0:01.293',-4.99922884
'0:01.297',-16.59318509
'0:01.301',-18.74710816
'0:01.305',-4.17488792
'0:01.309',-3.37713863
'0:01.313',-5.79697813
'0:01.316',2.28688128
'0:01.320',-0.66479107
'0:01.324',-4.99922884
'0:01.328',10.37074068
'0:01.332',9.04115854
'0:01.336',19.54485744
'0:01.340',2.02096485
'0:01.344',11.72691447
'0:01.348',23.58678714
'0:01.352',22.52312143
'0:01.355',21.16694765
'0:01.359',21.16694765
'0:01.363',27.62871685
'0:01.367',36.53691718
'0:01.371',51.9068867
'0:01.375',53.50238527
'0:01.379',40.31293045
'0:01.383',45.68444229
'0:01.387',66.4525153
'0:01.391',79.66856176
'0:01.395',84.50824075
'0:01.398',90.99660159
'0:01.402',110.6744172
'0:01.406',127.6398853
'0:01.410',109.8500763
'0:01.414',88.0183376
'0:01.418',95.30444772
'0:01.422',94.48010679
'0:01.426',92.0602673
'0:01.430',106.3665711
'0:01.434',133.5698217
'0:01.438',111.4721665
'0:01.441',98.25612007
'0:01.445',94.21419036
'0:01.449',103.6542236
'0:01.453',113.6260896
'0:01.457',126.3103032
'0:01.461',114.9822634
'0:01.465',95.83628057
'0:01.469',73.20679257
'0:01.473',66.18659888
'0:01.477',46.24286679
'0:01.480',34.91482697
'0:01.484',14.97109488
'0:01.488',7.41906834
'0:01.492',0.39887464
'0:01.496',-17.39093438
'0:01.500',-27.62871685
'0:01.504',-33.29273676
'0:01.508',-27.36280042
'0:01.512',-33.82456961
'0:01.516',-48.39678986
'0:01.520',-41.37659616
'0:01.523',-49.19453914
'0:01.527',-45.15260944
'0:01.531',-50.81662935
'0:01.535',-47.864957
'0:01.539',-55.94881641
'0:01.543',-48.66270628
'0:01.547',-46.77469965
'0:01.551',-36.53691718
'0:01.555',-47.3065325
'0:01.559',-37.60058289
'0:01.563',-47.3065325
'0:01.566',-31.40473012
'0:01.570',-38.15900739
'0:01.574',-31.13881369
'0:01.578',-20.34260673
'0:01.582',-30.34106441
'0:01.586',-15.76884417
'0:01.590',-7.68498476
'0:01.594',-15.76884417
'0:01.598',-17.92276723
'0:01.602',-11.99283089
'0:01.605',-0.95729914
'0:01.609',5.79697813
'0:01.613',-0.13295821
'0:01.617',0.13295821
'0:01.621',6.06289455
'0:01.625',-1.22321557
'0:01.629',4.44080434
'0:01.633',-0.95729914
'0:01.637',0.9307075
'0:01.641',7.15315191
'0:01.645',14.41267039
'0:01.648',18.45460009
'0:01.652',14.41267039
'0:01.656',33.82456961
'0:01.660',24.11862
'0:01.664',30.87289727
'0:01.668',33.82456961
'0:01.672',13.88083753
'0:01.676',19.27894101
'0:01.680',10.10482426
'0:01.684',-0.66479107
'0:01.688',0.66479107
'0:01.691',-3.90897149
'0:01.695',2.28688128
'0:01.699',-4.99922884
'0:01.703',0.13295821
'0:01.707',-0.39887464
'0:01.711',-5.26514527
'0:01.715',2.28688128
'0:01.719',-3.64305506
'0:01.723',0.9307075
'0:01.727',-0.95729914
'0:01.730',-6.59472741
'0:01.734',2.02096485
'0:01.738',12.81717182
'0:01.742',1.22321557
'0:01.746',-0.39887464
'0:01.750',8.74865047
'0:01.754',1.22321557
'0:01.758',-2.02096485
'0:01.762',2.81871413
'0:01.766',-1.22321557
'0:01.770',6.86064384
'0:01.773',16.0347606
'0:01.777',29.78263991
'0:01.781',35.44665982
'0:01.785',46.50878322
'0:01.789',38.42492381
'0:01.793',48.39678986
'0:01.797',47.04061608
'0:01.801',52.17280313
'0:01.805',46.50878322
'0:01.809',37.86649932
'0:01.813',32.49498748
'0:01.816',16.56659345
'0:01.820',-9.5729914
'0:01.824',-1.22321557
'0:01.828',2.28688128
'0:01.832',-3.11122221
'0:01.836',0.66479107
'0:01.840',7.95090119
'0:01.844',-0.95729914
'0:01.848',1.75504842
'0:01.852',-3.64305506
'0:01.855',0.9307075
'0:01.859',8.48273405
'0:01.863',-0.95729914
'0:01.867',1.489132
'0:01.871',-3.90897149
'0:01.875',0.9307075
'0:01.879',-6.32881098
'0:01.883',-0.13295821
'0:01.887',15.50292774
'0:01.891',9.5729914
'0:01.895',48.13087343
'0:01.898',72.9142845
'0:01.902',78.84422084
'0:01.906',95.83628057
'0:01.910',106.074063
'0:01.914',66.18659888
'0:01.918',-76.98280584
'0:01.922',-239.5375182
'0:01.926',-247.6213776
'0:01.930',-149.2322993
'0:01.934',-58.10273947
'0:01.938',-13.08308825
'0:01.941',50.01888007
'0:01.945',64.56450867
'0:01.949',20.90103122
'0:01.953',-15.50292774
'0:01.957',-24.11862
'0:01.961',-16.85910152
'0:01.965',-34.91482697
'0:01.969',-42.99868637
'0:01.973',-62.4105856
'0:01.977',-57.01248212
'0:01.980',-35.71257625
'0:01.984',-37.06875003
'0:01.988',-42.20093709
'0:01.992',-44.08894373
'0:01.996',-40.57884688
'0:02.000',-21.16694765
'0:02.004',-21.96469694
'0:02.008',-25.20887735
'0:02.012',-26.29913471
'0:02.016',-24.11862
'0:02.020',-21.69878051
'0:02.023',-6.59472741
'0:02.027',-9.5729914
'0:02.031',-9.83890783
'0:02.035',-7.41906834
'0:02.039',-5.26514527
'0:02.043',9.04115854
'0:02.047',6.06289455
'0:02.051',-9.04115854
'0:02.055',-5.79697813
'0:02.059',10.37074068
'0:02.063',7.41906834
'0:02.066',21.43286408
'0:02.070',7.41906834
'0:02.074',11.19508161
'0:02.078',26.56505114
'0:02.082',37.86649932
'0:02.086',36.27100075
'0:02.090',40.04701402
'0:02.094',44.08894373
'0:02.098',42.99868637
'0:02.102',54.06080977
'0:02.105',67.25026459
'0:02.109',85.86441453
'0:02.113',90.73068516
'0:02.117',92.0602673
'0:02.121',103.6542236
'0:02.125',114.9822634
'0:02.129',116.3384372
'0:02.133',122.2683735
'0:02.137',124.688213
'0:02.141',151.3862223
'0:02.145',145.456286
'0:02.148',147.8761255
'0:02.152',138.9679252
'0:02.156',141.4143563
'0:02.160',151.0937143
'0:02.164',144.3660286
'0:02.168',146.5199517
'0:02.172',138.4360923
'0:02.176',141.4143563
'0:02.180',135.1919119
'0:02.184',128.1983098
'0:02.188',113.892006
'0:02.191',90.17226066
'0:02.195',78.04647155
'0:02.199',71.31878593
'0:02.203',47.3065325
'0:02.207',48.13087343
'0:02.211',24.6770445
'0:02.215',29.25080706
'0:02.219',23.05495429
'0:02.223',30.04855634
'0:02.227',14.67858681
'0:02.230',23.85270357
'0:02.234',28.7189742
'0:02.238',23.32087072
'0:02.242',30.87289727
'0:02.246',30.04855634
'0:02.250',22.78903786
'0:02.254',13.6149211
'0:02.258',9.30707497
'0:02.262',-0.39887464
'0:02.266',-2.81871413
'0:02.270',-10.66324875
'0:02.273',-18.74710816
'0:02.277',-21.69878051
'0:02.281',-31.40473012
'0:02.285',-19.81077387
'0:02.289',-28.98489063
'0:02.293',-19.81077387
'0:02.297',-20.90103122
'0:02.301',-29.78263991
'0:02.305',-34.91482697
'0:02.309',-29.51672348
'0:02.313',-21.69878051
'0:02.316',-21.16694765
'0:02.320',-28.45305777
'0:02.324',-33.29273676
'0:02.328',-29.78263991
'0:02.332',-38.42492381
'0:02.336',-36.80283361
'0:02.340',-27.62871685
'0:02.344',-33.55865319
'0:02.348',-30.34106441
'0:02.352',-38.15900739
'0:02.355',-35.71257625
'0:02.359',-27.09688399
'0:02.363',-18.48119173
'0:02.367',-16.0347606
'0:02.371',-22.23061336
'0:02.375',-18.18868366
'0:02.379',-9.83890783
'0:02.383',-3.11122221
'0:02.387',-1.489132
'0:02.391',-6.59472741
'0:02.395',-0.95729914
'0:02.398',-7.95090119
'0:02.402',-2.28688128
'0:02.406',-2.55279771
'0:02.410',-7.95090119
'0:02.414',-0.66479107
'0:02.418',-6.59472741
'0:02.422',-1.489132
'0:02.426',-3.11122221
'0:02.430',-9.04115854
'0:02.434',-16.30067702
'0:02.438',-5.26514527
'0:02.441',-17.12501795
'0:02.445',-19.54485744
'0:02.449',-10.10482426
'0:02.453',-17.12501795
'0:02.457',-20.0766903
'0:02.461',-15.50292774
'0:02.465',-20.0766903
'0:02.469',-27.62871685
'0:02.473',-17.39093438
'0:02.477',-19.54485744
'0:02.480',-14.70517846
'0:02.484',-20.0766903
'0:02.488',-12.52466375
'0:02.492',-2.55279771
'0:02.496',12.25874732
'0:02.500',17.6568508
'0:02.504',28.1605497
'0:02.508',34.64891054
'0:02.512',29.51672348
'0:02.516',45.68444229
'0:02.520',35.1807434
'0:02.523',13.34900467
'0:02.527',19.27894101
'0:02.531',12.25874732
'0:02.535',-2.81871413
'0:02.539',-10.92916518
'0:02.543',-17.92276723
'0:02.547',-14.70517846
'0:02.551',-6.32881098
'0:02.555',-3.64305506
'0:02.559',-9.83890783
'0:02.563',-0.66479107
'0:02.566',-14.97109488
'0:02.570',-6.88723548
'0:02.574',-3.90897149
'0:02.578',-9.30707497
'0:02.582',-0.39887464
'0:02.586',-15.23701131
'0:02.590',-7.15315191
'0:02.594',-3.90897149
'0:02.598',-9.04115854
'0:02.602',0.13295821
'0:02.605',15.50292774
'0:02.609',22.52312143
'0:02.613',43.2646028
'0:02.617',71.02627786
'0:02.621',110.4085008
'0:02.625',110.1159928
'0:02.629',134.9259955
'0:02.633',125.4859623
'0:02.637',-32.22907105
'0:02.641',-175.903717
'0:02.645',-276.7392264
'0:02.648',-177.7917236
'0:02.652',-78.04647155
'0:02.656',-23.05495429
'0:02.660',44.08894373
'0:02.664',82.62023411
'0:02.668',55.68289998
'0:02.672',-2.28688128
'0:02.676',-14.70517846
'0:02.680',-5.26514527
'0:02.684',-3.11122221
'0:02.688',-10.37074068
'0:02.691',-17.12501795
'0:02.695',-14.70517846
'0:02.699',-6.88723548
'0:02.703',-4.17488792
'0:02.707',6.06289455
'0:02.711',-15.76884417
'0:02.715',-13.34900467
'0:02.719',-7.15315191
'0:02.723',10.10482426
'0:02.727',4.99922884
'0:02.730',-14.14675396
'0:02.734',-11.46099804
'0:02.738',-7.68498476
'0:02.742',7.95090119
'0:02.746',4.17488792
'0:02.750',2.55279771
'0:02.754',5.26514527
'0:02.758',8.21681762
'0:02.762',23.32087072
'0:02.766',19.81077387
'0:02.770',19.01302459
'0:02.773',21.96469694
'0:02.777',24.38453643
'0:02.781',38.69084024
'0:02.785',50.81662935
'0:02.789',34.91482697
'0:02.793',39.2226731
'0:02.797',56.74656569
'0:02.801',68.8723548
'0:02.805',65.65476602
'0:02.809',67.80868909
'0:02.813',71.85061879
'0:02.816',72.64836807
'0:02.820',69.13827122
'0:02.824',81.5565684
'0:02.828',82.35431769
'0:02.832',71.31878593
'0:02.836',89.10859495
'0:02.840',100.4100431
'0:02.844',96.102197
'0:02.848',98.25612007
'0:02.852',103.3883071
'0:02.855',104.7444809
'0:02.859',116.0725207
'0:02.863',111.738083
'0:02.867',113.6260896
'0:02.871',119.0241931
'0:02.875',104.7444809
'0:02.879',116.6043536
'0:02.883',111.2062501
'0:02.887',112.2965075
'0:02.891',102.2980498
'0:02.895',105.0103973
'0:02.898',100.7025512
'0:02.902',94.77261486
'0:02.906',79.66856176
'0:02.910',70.22852858
'0:02.914',57.27839854
'0:02.918',37.33466646
'0:02.922',31.13881369
'0:02.926',14.67858681
'0:02.930',4.70672077
'0:02.934',-7.15315191
'0:02.938',-10.66324875
'0:02.941',-17.39093438
'0:02.945',-18.48119173
'0:02.949',-28.45305777
'0:02.953',-38.95675667
'0:02.957',-26.00662664
'0:02.961',-33.82456961
'0:02.965',-35.44665982
'0:02.969',-28.98489063
'0:02.973',-23.58678714
'0:02.977',-25.74071021
'0:02.980',-16.85910152
'0:02.984',-19.27894101
'0:02.988',-13.88083753
'0:02.992',-23.32087072
'0:02.996',-8.48273405
'0:03.000',-16.30067702
'0:03.004',-19.27894101
'0:03.008',-14.14675396
'0:03.012',-23.32087072
'0:03.016',-23.85270357
'0:03.020',-15.50292774
'0:03.023',-4.70672077
'0:03.027',-0.39887464
'0:03.031',-22.78903786
'0:03.035',-5.26514527
'0:03.039',-14.14675396
'0:03.043',-5.5310617
'0:03.047',-17.39093438
'0:03.051',-7.15315191
'0:03.055',-20.6351148
'0:03.059',-12.81717182
'0:03.063',-21.16694765
'0:03.066',-18.18868366
'0:03.070',-24.11862
'0:03.074',-20.0766903
'0:03.078',-27.62871685
'0:03.082',-36.00508432
'0:03.086',-34.64891054
'0:03.090',-26.00662664
'0:03.094',-36.80283361
'0:03.098',-41.64251259
'0:03.102',-50.01888007
'0:03.105',-50.81662935
'0:03.109',-59.16640518
'0:03.113',-53.23646884
'0:03.117',-57.01248212
'0:03.121',-64.83042509
'0:03.125',-66.4525153
'0:03.129',-59.99074611
'0:03.133',-69.96261215
'0:03.137',-71.58470236
'0:03.141',-63.76675938
'0:03.145',-67.27685623
'0:03.148',-61.34691989
'0:03.152',-69.69669572
'0:03.156',-54.59264262
'0:03.160',-62.94241846
'0:03.164',-51.08254578
'0:03.168',-46.24286679
'0:03.172',-53.79489334
'0:03.176',-52.70463599
'0:03.180',-44.88669301
'0:03.184',-36.00508432
'0:03.188',-32.22907105
'0:03.191',-7.15315191
'0:03.195',10.63665711
'0:03.199',4.17488792
'0:03.203',-0.95729914
'0:03.207',1.75504842
'0:03.211',8.21681762
'0:03.215',-5.5310617
'0:03.219',-10.10482426
'0:03.223',-31.13881369
'0:03.227',-30.34106441
'0:03.230',-41.11067974
'0:03.234',-53.79489334
'0:03.238',-57.27839854
'0:03.242',-47.3065325
'0:03.246',-48.39678986
'0:03.250',-42.46685352
'0:03.254',-53.23646884
'0:03.258',-39.48858953
'0:03.262',-31.40473012
'0:03.266',-33.55865319
'0:03.270',-27.09688399
'0:03.273',-36.27100075
'0:03.277',-22.23061336
'0:03.281',-15.23701131
'0:03.285',-18.18868366
'0:03.289',-11.46099804
'0:03.293',-19.54485744
'0:03.297',10.10482426
'0:03.301',16.0347606
'0:03.305',28.45305777
'0:03.309',66.71843173
'0:03.313',74.80229114
'0:03.316',106.3665711
'0:03.320',113.6260896
'0:03.324',125.2200458
'0:03.328',38.42492381
'0:03.332',-89.90634423
'0:03.336',-245.7333709
'0:03.340',-216.8814385
'0:03.344',-116.6043536
'0:03.348',-37.60058289
'0:03.352',23.32087072
'0:03.355',77.24872227
'0:03.359',81.5565684
'0:03.363',54.85855905
'0:03.367',18.18868366
'0:03.371',9.04115854
'0:03.375',26.56505114
'0:03.379',15.76884417
'0:03.383',7.68498476
'0:03.387',2.28688128
'0:03.391',21.43286408
'0:03.395',23.58678714
'0:03.398',32.7609039
'0:03.402',11.19508161
'0:03.406',-11.46099804
'0:03.410',-11.19508161
'0:03.414',-10.66324875
'0:03.418',-0.13295821
'0:03.422',-19.54485744
'0:03.426',-26.56505114
'0:03.430',-28.45305777
'0:03.434',-12.81717182
'0:03.438',-16.30067702
'0:03.441',-17.6568508
'0:03.445',-25.47479378
'0:03.449',-13.88083753
'0:03.453',0.66479107
'0:03.457',-0.39887464
'0:03.461',0.9307075
'0:03.465',7.68498476
'0:03.469',0.66479107
'0:03.473',15.50292774
'0:03.477',16.30067702
'0:03.480',18.45460009
'0:03.484',8.74865047
'0:03.488',15.76884417
'0:03.492',29.51672348
'0:03.496',31.67064655
'0:03.500',35.97849268
'0:03.504',41.64251259
'0:03.508',30.87289727
'0:03.512',44.62077658
'0:03.516',47.57244893
'0:03.520',52.43871956
'0:03.523',57.83682304
'0:03.527',61.61283632
'0:03.531',59.16640518
'0:03.535',79.93447819
'0:03.539',85.06666525
'0:03.543',74.27045828
'0:03.547',77.78055513
'0:03.551',90.17226066
'0:03.555',94.48010679
'0:03.559',85.86441453
'0:03.563',91.79435087
'0:03.566',92.88460823
'0:03.570',88.0183376
'0:03.574',94.21419036
'0:03.578',87.22058831
'0:03.582',92.0602673
'0:03.586',91.26251802
'0:03.590',70.76036143
'0:03.594',78.84422084
'0:03.598',56.48064926
'0:03.602',45.15260944
'0:03.605',27.36280042
'0:03.609',36.53691718
'0:03.613',12.81717182
'0:03.617',-5.79697813
'0:03.621',-1.22321557
'0:03.625',-21.96469694
'0:03.629',-29.51672348
'0:03.633',-35.71257625
'0:03.637',-37.60058289
'0:03.641',-33.29273676
'0:03.645',-38.95675667
'0:03.648',-31.13881369
'0:03.652',-36.27100075
'0:03.656',-36.27100075
'0:03.660',-31.40473012
'0:03.664',-38.95675667
'0:03.668',-32.49498748
'0:03.672',-37.06875003
'0:03.676',-35.44665982
'0:03.680',-45.41852587
'0:03.684',-38.15900739
'0:03.688',-34.38299411
'0:03.691',-38.69084024
'0:03.695',-34.38299411
'0:03.699',-43.2646028
'0:03.703',-37.06875003
'0:03.707',-51.08254578
'0:03.711',-39.48858953
'0:03.715',-50.28479649
'0:03.719',-41.93502066
'0:03.723',-52.17280313
'0:03.727',-51.34846221
'0:03.730',-41.11067974
'0:03.734',-35.1807434
'0:03.738',-25.47479378
'0:03.742',-34.91482697
'0:03.746',-34.38299411
'0:03.750',-25.47479378
'0:03.754',-35.44665982
'0:03.758',-24.11862
'0:03.762',-33.55865319
'0:03.766',-34.64891054
'0:03.770',-26.56505114
'0:03.773',-20.34260673
'0:03.777',-23.85270357
'0:03.781',-31.67064655
'0:03.785',-33.55865319
'0:03.789',-27.36280042
'0:03.793',-21.69878051
'0:03.797',-23.58678714
'0:03.801',-30.04855634
'0:03.805',-32.49498748
'0:03.809',-27.89463327
'0:03.813',-23.05495429
'0:03.816',-23.58678714
'0:03.820',-28.7189742
'0:03.824',-31.40473012
'0:03.828',-28.45305777
'0:03.832',-39.2226731
'0:03.836',-38.95675667
'0:03.840',-28.45305777
'0:03.844',-32.49498748
'0:03.848',-44.62077658
'0:03.852',-38.42492381
'0:03.855',-38.42492381
'0:03.859',-28.7189742
'0:03.863',-32.7609039
'0:03.867',-28.7189742
'0:03.871',-37.86649932
'0:03.875',-37.06875003
'0:03.879',-28.1605497
'0:03.883',-17.92276723
'0:03.887',0.66479107
'0:03.891',8.48273405
'0:03.895',11.72691447
'0:03.898',6.59472741
'0:03.902',15.76884417
'0:03.906',16.0347606
'0:03.910',23.05495429
'0:03.914',12.25874732
'0:03.918',8.74865047
'0:03.922',-14.14675396
'0:03.926',-15.50292774
'0:03.930',-26.00662664
'0:03.934',-36.53691718
'0:03.938',-23.32087072
'0:03.941',-15.23701131
'0:03.945',-32.7609039
'0:03.949',-25.47479378
'0:03.953',-20.34260673
'0:03.957',-7.95090119
'0:03.961',-15.23701131
'0:03.965',-15.76884417
'0:03.969',-9.5729914
'0:03.973',-4.70672077
'0:03.977',-7.68498476
'0:03.980',-13.88083753
'0:03.984',-15.23701131
'0:03.988',-25.74071021
'0:03.992',-20.90103122
'0:03.996',-7.95090119
'0:04.000',16.30067702
'0:04.004',45.68444229
'0:04.008',67.80868909
'0:04.012',75.36071563
'0:04.016',106.074063
'0:04.020',113.6260896
'0:04.023',-13.08308825
'0:04.027',-142.2121056
'0:04.031',-277.5369757
'0:04.035',-229.5656521
'0:04.039',-130.6181493
'0:04.043',-70.22852858
'0:04.047',-9.5729914
'0:04.051',30.34106441
'0:04.055',36.27100075
'0:04.059',-7.15315191
'0:04.063',-14.70517846
'0:04.066',-10.66324875
'0:04.070',-5.79697813
'0:04.074',-11.72691447
'0:04.078',-35.1807434
'0:04.082',-29.51672348
'0:04.086',-14.70517846
'0:04.090',-10.10482426
'0:04.094',-10.66324875
'0:04.098',-14.97109488
'0:04.102',-27.89463327
'0:04.105',-16.59318509
'0:04.109',2.55279771
'0:04.113',4.44080434
'0:04.117',3.64305506
'0:04.121',6.32881098
'0:04.125',13.6149211
'0:04.129',16.30067702
'0:04.133',36.80283361
'0:04.137',21.96469694
'0:04.141',39.48858953
'0:04.145',43.79643566
'0:04.148',45.68444229
'0:04.152',53.23646884
'0:04.156',41.11067974
'0:04.160',41.37659616
'0:04.164',42.73276995
'0:04.168',58.3686559
'0:04.172',51.9068867
'0:04.176',59.16640518
'0:04.180',43.79643566
'0:04.184',42.46685352
'0:04.188',55.94881641
'0:04.191',65.65476602
'0:04.195',59.43232161
'0:04.199',61.87875275
'0:04.203',58.63457233
'0:04.207',85.06666525
'0:04.211',79.13672891
'0:04.215',92.32618373
'0:04.219',80.20039462
'0:04.223',90.99660159
'0:04.227',83.44457504
'0:04.230',93.94827394
'0:04.234',92.32618373
'0:04.238',96.92653793
'0:04.242',90.73068516
'0:04.246',97.99020364
'0:04.250',108.2279861
'0:04.254',107.9620697
'0:04.258',98.25612007
'0:04.262',107.6961533
'0:04.266',112.0039994
'0:04.270',106.074063
'0:04.273',108.5204942
'0:04.277',99.87821028
'0:04.281',92.0602673
'0:04.285',79.13672891
'0:04.289',73.20679257
'0:04.293',60.52257896
'0:04.297',52.70463599
'0:04.301',28.45305777
'0:04.305',30.34106441
'0:04.309',7.41906834
'0:04.313',-3.64305506
'0:04.316',-10.37074068
'0:04.320',-19.81077387
'0:04.324',-35.1807434
'0:04.328',-26.00662664
'0:04.332',-52.17280313
'0:04.336',-56.48064926
'0:04.340',-50.81662935
'0:04.344',-37.86649932
'0:04.348',-29.78263991
'0:04.352',-36.27100075
'0:04.355',-37.60058289
'0:04.359',-47.864957
'0:04.363',-53.23646884
'0:04.367',-47.04061608
'0:04.371',-38.42492381
'0:04.375',-38.15900739
'0:04.379',-45.97695036
'0:04.383',-66.71843173
'0:04.387',-62.4105856
'0:04.391',-55.94881641
'0:04.395',-55.39039191
'0:04.398',-61.34691989
'0:04.402',-65.09634152
'0:04.406',-77.78055513
'0:04.410',-71.85061879
'0:04.414',-56.21473283
'0:04.418',-31.13881369
'0:04.422',-3.64305506
'0:04.426',16.56659345
'0:04.430',9.30707497
'0:04.434',11.72691447
'0:04.438',4.70672077
'0:04.441',13.08308825
'0:04.445',14.67858681
'0:04.449',23.32087072
'0:04.453',11.99283089
'0:04.457',22.52312143
'0:04.461',29.25080706
'0:04.465',13.6149211
'0:04.469',23.05495429
'0:04.473',43.53051923
'0:04.477',37.60058289
'0:04.480',30.34106441
'0:04.484',31.13881369
'0:04.488',38.15900739
'0:04.492',42.20093709
'0:04.496',53.50238527
'0:04.500',62.14466917
'0:04.504',62.4105856
'0:04.508',54.3267262
'0:04.512',59.16640518
'0:04.516',69.96261215
'0:04.520',61.61283632
'0:04.523',61.87875275
'0:04.527',54.06080977
'0:04.531',59.16640518
'0:04.535',69.69669572
'0:04.539',61.05441182
'0:04.543',61.32032825
'0:04.547',69.43077929
'0:04.551',58.63457233
'0:04.555',54.85855905
'0:04.559',62.14466917
'0:04.563',59.72482968
'0:04.566',51.61437863
'0:04.570',27.89463327
'0:04.574',25.20887735
'0:04.578',45.41852587
'0:04.582',55.68289998
'0:04.586',79.13672891
'0:04.590',90.17226066
'0:04.594',90.99660159
'0:04.598',65.65476602
'0:04.602',43.53051923
'0:04.605',31.93656298
'0:04.609',39.75450595
'0:04.613',40.04701402
'0:04.617',33.02682033
'0:04.621',12.81717182
'0:04.625',-29.78263991
'0:04.629',-53.79489334
'0:04.633',-55.39039191
'0:04.637',-34.64891054
'0:04.641',-55.68289998
'0:04.645',-31.67064655
'0:04.648',8.21681762
'0:04.652',52.97055241
'0:04.656',60.25666254
'0:04.660',44.08894373
'0:04.664',21.96469694
'0:04.668',-3.11122221
'0:04.672',21.96469694
'0:04.676',24.94296093
'0:04.680',24.11862
'0:04.684',20.90103122
'0:04.688',14.41267039
'0:04.691',8.21681762
'0:04.695',10.10482426
'0:04.699',22.23061336
'0:04.703',64.03267581
'0:04.707',74.53637471
'0:04.711',58.10273947
'0:04.715',48.13087343
'0:04.719',87.48650474
'0:04.723',152.7158045
'0:04.727',39.75450595
'0:04.730',-149.2322993
'0:04.734',-371.378883
'0:04.738',-380.5264082
'0:04.742',-253.2853975
'0:04.746',-81.29065197
'0:04.750',14.97109488
'0:04.754',77.5146387
'0:04.758',70.49444501
'0:04.762',-7.41906834
'0:04.766',-4.44080434
'0:04.770',-3.37713863
'0:04.773',20.90103122
'0:04.777',35.1807434
'0:04.781',42.73276995
'0:04.785',44.35486015
'0:04.789',43.53051923
'0:04.793',51.9068867
'0:04.797',21.96469694
'0:04.801',0.39887464
'0:04.805',-16.85910152
'0:04.809',-8.21681762
'0:04.813',28.7189742
'0:04.816',80.46631105
'0:04.820',110.4085008
'0:04.824',96.92653793
'0:04.828',76.15846492
'0:04.832',80.20039462
'0:04.836',81.5565684
'0:04.840',63.20833488
'0:04.844',34.38299411
'0:04.848',43.2646028
'0:04.852',44.35486015
'0:04.855',78.31238798
'0:04.859',78.31238798
'0:04.863',67.25026459
'0:04.867',75.62663206
'0:04.871',90.99660159
'0:04.875',93.15052465
'0:04.879',80.20039462
'0:04.883',85.33258168
'0:04.887',89.90634423
'0:04.891',103.6542236
'0:04.895',107.9620697
'0:04.898',113.6260896
'0:04.902',117.9339357
'0:04.906',120.6462833
'0:04.910',133.5698217
'0:04.914',139.2338416
'0:04.918',146.5199517
'0:04.922',135.1919119
'0:04.926',136.5480857
'0:04.930',162.9801786
'0:04.934',168.3516904
'0:04.938',162.4217541
'0:04.941',153.8060618
'0:04.945',168.6176069
'0:04.949',160.267831
'0:04.953',151.3862223
'0:04.957',132.7720724
'0:04.961',138.9679252
'0:04.965',180.5040712
'0:04.969',185.6096666
'0:04.973',181.3018205
'0:04.977',183.9875764
'0:04.980',174.0157103
'0:04.984',149.4982157
'0:04.988',137.638343
'0:04.992',116.3384372
'0:04.996',103.3883071
'0:05.000',93.94827394
'0:05.004',68.8723548
'0:05.008',40.57884688
'0:05.012',35.44665982
'0:05.016',37.60058289
'0:05.020',28.1605497
'0:05.023',4.70672077
'0:05.027',-6.88723548
'0:05.031',-13.08308825
'0:05.035',-11.72691447
'0:05.039',-20.34260673
'0:05.043',-42.73276995
'0:05.047',-100.4366348
'0:05.051',-106.3665711
'0:05.055',-46.50878322
'0:05.059',-28.45305777
'0:05.063',0.13295821
'0:05.066',27.36280042
'0:05.070',38.95675667
'0:05.074',37.06875003
'0:05.078',24.94296093
'0:05.082',18.74710816
'0:05.086',10.63665711
'0:05.090',-9.5729914
'0:05.094',-9.5729914
'0:05.098',-52.97055241
'0:05.102',-75.36071563
'0:05.105',-101.2343841
'0:05.109',-76.42438135
'0:05.113',-46.77469965
'0:05.117',-9.5729914
'0:05.121',17.92276723
'0:05.125',42.20093709
'0:05.129',37.60058289
'0:05.133',22.78903786
'0:05.137',-3.37713863
'0:05.141',-11.46099804
'0:05.145',-38.95675667
'0:05.148',-28.45305777
'0:05.152',-27.09688399
'0:05.156',-20.6351148
'0:05.160',-12.25874732
'0:05.164',-8.21681762
'0:05.168',-13.08308825
'0:05.172',-9.5729914
'0:05.176',-33.55865319
'0:05.180',-42.20093709
'0:05.184',-55.94881641
'0:05.188',-77.78055513
'0:05.191',-73.472709
'0:05.195',-81.5565684
'0:05.199',-75.09479921
'0:05.203',-73.73862542
'0:05.207',-63.50084296
'0:05.211',-26.83096756
'0:05.215',-18.18868366
'0:05.219',-25.74071021
'0:05.223',-23.05495429
'0:05.227',-14.41267039
'0:05.230',-26.83096756
'0:05.234',-47.57244893
'0:05.238',-54.59264262
'0:05.242',-55.68289998
'0:05.246',-49.46045557
'0:05.250',-59.99074611
'0:05.254',-62.14466917
'0:05.258',-53.50238527
'0:05.262',-41.11067974
'0:05.266',-35.71257625
'0:05.270',-43.8230273
'0:05.273',-43.2646028
'0:05.277',-51.08254578
'0:05.281',-41.11067974
'0:05.285',-37.60058289
'0:05.289',-29.25080706
'0:05.293',-57.83682304
'0:05.297',-63.20833488
'0:05.301',-40.31293045
'0:05.305',-41.11067974
'0:05.309',-16.59318509
'0:05.313',-10.10482426
'0:05.316',-13.08308825
'0:05.320',-21.16694765
'0:05.324',-7.95090119
'0:05.328',-17.92276723
'0:05.332',-26.29913471
'0:05.336',-27.09688399
'0:05.340',-51.08254578
'0:05.344',-70.76036143
'0:05.348',-66.18659888
'0:05.352',-76.15846492
'0:05.355',-76.15846492
'0:05.359',-82.35431769
'0:05.363',-86.39624739
'0:05.367',-82.91274218
'0:05.371',-92.6186918
'0:05.375',-91.26251802
'0:05.379',-96.92653793
'0:05.383',-101.7662169
'0:05.387',-99.34637742
'0:05.391',-108.7864106
'0:05.395',-91.26251802
'0:05.398',-96.6606215
'0:05.402',-100.9684676
'0:05.406',-113.892006
'0:05.410',-107.9620697
'0:05.414',-91.79435087
'0:05.418',-97.45837078
'0:05.422',-69.16486287
'0:05.426',-51.34846221
'0:05.430',-29.51672348
'0:05.434',-11.46099804
'0:05.438',16.0347606
'0:05.441',11.72691447
'0:05.445',-124.1563801
'0:05.449',-284.5571694
'0:05.453',-364.0927729
'0:05.457',-292.9069452
'0:05.461',-219.8597025
'0:05.465',-176.9939743
'0:05.469',-113.6260896
'0:05.473',-86.39624739
'0:05.477',-75.62663206
'0:05.480',-114.716347
'0:05.484',-108.2545778
'0:05.488',-83.44457504
'0:05.492',-88.84267852
'0:05.496',-89.10859495
'0:05.500',-110.1425844
'0:05.504',-92.32618373
'0:05.508',-71.85061879
'0:05.512',-59.45891325
'0:05.516',-69.96261215
'0:05.520',-72.9142845
'0:05.523',-75.36071563
'0:05.527',-58.63457233
'0:05.531',-45.68444229
'0:05.535',-52.43871956
'0:05.539',-53.50238527
'0:05.543',-58.10273947
'0:05.547',-59.99074611
'0:05.551',-46.77469965
'0:05.555',-51.34846221
'0:05.559',-51.34846221
'0:05.563',-57.27839854
'0:05.566',-45.68444229
'0:05.570',-32.7609039
'0:05.574',-34.91482697
'0:05.578',-33.02682033
'0:05.582',-39.75450595
'0:05.586',-15.23701131
'0:05.590',-3.37713863
'0:05.594',-2.81871413
'0:05.598',-13.34900467
'0:05.602',-5.26514527
'0:05.605',-0.66479107
'0:05.609',10.10482426
'0:05.613',13.08308825
'0:05.617',20.0766903
'0:05.621',27.09688399
'0:05.625',30.04855634
'0:05.629',41.11067974
'0:05.633',45.15260944
'0:05.637',53.50238527
'0:05.641',59.72482968
'0:05.645',61.32032825
'0:05.648',71.85061879
'0:05.652',92.59210015
'0:05.656',85.5984981
'0:05.660',92.88460823
'0:05.664',108.7864106
'0:05.668',117.4021029
'0:05.672',107.9620697
'0:05.676',119.8219424
'0:05.680',125.4859623
'0:05.684',123.3320392
'0:05.688',131.7084067
'0:05.691',139.2338416
'0:05.695',136.0162528
'0:05.699',127.1080525
'0:05.703',123.8904637
'0:05.707',114.4504305
'0:05.711',90.99660159
'0:05.715',74.00454185
'0:05.719',48.66270628
'0:05.723',27.62871685
'0:05.727',1.22321557
'0:05.730',-6.59472741
'0:05.734',-23.05495429
'0:05.738',-31.67064655
'0:05.742',-37.33466646
'0:05.746',-48.66270628
'0:05.750',-55.39039191
'0:05.754',-69.96261215
'0:05.758',-62.67650203
'0:05.762',-70.22852858
'0:05.766',-81.82248483
'0:05.770',-71.85061879
'0:05.773',-70.22852858
'0:05.777',-78.04647155
'0:05.781',-84.80074882
'0:05.785',-81.5565684
'0:05.789',-88.84267852
'0:05.793',-85.86441453
'0:05.797',-92.6186918
'0:05.801',-84.24232432
'0:05.805',-98.25612007
'0:05.809',-89.10859495
'0:05.813',-85.5984981
'0:05.816',-91.52843444
'0:05.820',-83.17865861
'0:05.824',-82.35431769
'0:05.828',-89.64042781
'0:05.832',-84.50824075
'0:05.836',-89.64042781
'0:05.840',-97.72428721
'0:05.844',-97.99020364
'0:05.848',-90.73068516
'0:05.852',-85.5984981
'0:05.855',-88.84267852
'0:05.859',-95.83628057
'0:05.863',-112.2965075
'0:05.867',-121.709949
'0:05.871',-101.7662169
'0:05.875',-75.36071563
'0:05.879',-66.18659888
'0:05.883',-95.03853129
'0:05.887',-131.9743231
'0:05.891',-113.6260896
'0:05.895',-77.78055513
'0:05.898',-56.48064926
'0:05.902',-34.64891054
'0:05.906',-19.54485744
'0:05.910',-14.41267039
'0:05.914',-24.94296093
'0:05.918',-67.27685623
'0:05.922',-79.66856176
'0:05.926',-53.50238527
'0:05.930',-35.71257625
'0:05.934',-27.62871685
'0:05.938',-33.82456961
'0:05.941',-29.78263991
'0:05.945',-36.80283361
'0:05.949',-50.01888007
'0:05.953',-57.27839854
'0:05.957',-64.83042509
'0:05.961',-47.864957
'0:05.965',-40.04701402
'0:05.969',-50.55071292
'0:05.973',-54.3267262
'0:05.977',-46.77469965
'0:05.980',-48.92862271
'0:05.984',-41.64251259
'0:05.988',-34.91482697
'0:05.992',-37.33466646
'0:05.996',-44.88669301
'0:06.000',-32.22907105
'0:06.004',-27.36280042
'0:06.008',-20.34260673
'0:06.012',-20.34260673
'0:06.016',-11.19508161
'0:06.020',-0.39887464
'0:06.023',3.37713863
'0:06.027',26.56505114
'0:06.031',27.62871685
'0:06.035',38.15900739
'0:06.039',33.02682033
'0:06.043',35.71257625
'0:06.047',42.20093709
'0:06.051',43.53051923
'0:06.055',38.69084024
'0:06.059',34.09048604
'0:06.063',20.0766903
'0:06.066',10.37074068
'0:06.070',-3.64305506
'0:06.074',-8.77524212
'0:06.078',-14.41267039
'0:06.082',-13.6149211
'0:06.086',-7.68498476
'0:06.090',-20.0766903
'0:06.094',-23.05495429
'0:06.098',-13.6149211
'0:06.102',-30.60698084
'0:06.105',-24.11862
'0:06.109',-35.44665982
'0:06.113',-38.15900739
'0:06.117',-44.88669301
'0:06.121',-62.14466917
'0:06.125',-72.11653522
'0:06.129',-83.17865861
'0:06.133',-70.49444501
'0:06.137',-62.4105856
'0:06.141',-63.76675938
'0:06.145',-56.48064926
'0:06.148',11.19508161
'0:06.152',52.97055241
'0:06.156',79.13672891
'0:06.160',113.6260896
'0:06.164',137.345835
'0:06.168',33.29273676
'0:06.172',-91.26251802
'0:06.176',-239.5375182
'0:06.180',-188.853847
'0:06.184',-137.9042595
'0:06.188',-85.06666525
'0:06.191',-36.27100075
'0:06.195',-12.52466375
'0:06.199',-5.79697813
'0:06.203',-18.74710816
'0:06.207',-32.7609039
'0:06.211',-19.81077387
'0:06.215',-13.88083753
'0:06.219',-21.69878051
'0:06.223',-17.12501795
'0:06.227',-32.49498748
'0:06.230',-36.27100075
'0:06.234',-29.78263991
'0:06.238',-6.32881098
'0:06.242',-2.81871413
'0:06.246',29.51672348
'0:06.250',41.37659616
'0:06.254',50.55071292
'0:06.258',45.15260944
'0:06.262',33.29273676
'0:06.266',30.60698084
'0:06.270',24.11862
'0:06.273',2.02096485
'0:06.277',-47.04061608
'0:06.281',-104.7444809
'0:06.285',-126.8421361
'0:06.289',-77.78055513
'0:06.293',35.97849268
'0:06.297',99.61229385
'0:06.301',102.2980498
'0:06.305',91.52843444
'0:06.309',46.24286679
'0:06.313',26.83096756
'0:06.316',35.71257625
'0:06.320',33.29273676
'0:06.324',38.95675667
'0:06.328',29.51672348
'0:06.332',13.08308825
'0:06.336',6.06289455
'0:06.340',-14.14675396
'0:06.344',-25.74071021
'0:06.348',-4.44080434
'0:06.352',9.83890783
'0:06.355',4.44080434
'0:06.359',18.45460009
'0:06.363',6.86064384
'0:06.367',-3.11122221
'0:06.371',42.20093709
'0:06.375',126.8421361
'0:06.379',185.0778337
'0:06.383',195.8474491
'0:06.387',179.6797303
'0:06.391',148.9397912
'0:06.395',133.8623298
'0:06.398',121.1781161
'0:06.402',126.8421361
'0:06.406',126.5762196
'0:06.410',115.7800127
'0:06.414',88.84267852
'0:06.418',91.26251802
'0:06.422',122.8002064
'0:06.426',150.8277978
'0:06.430',144.6319451
'0:06.434',140.5900154
'0:06.438',112.5624239
'0:06.441',92.88460823
'0:06.445',85.5984981
'0:06.449',62.67650203
'0:06.453',44.62077658
'0:06.457',33.55865319
'0:06.461',42.73276995
'0:06.465',33.29273676
'0:06.469',28.98489063
'0:06.473',14.41267039
'0:06.477',3.90897149
'0:06.480',-20.34260673
'0:06.484',-16.0347606
'0:06.488',-21.69878051
'0:06.492',-34.38299411
'0:06.496',-42.46685352
'0:06.500',-51.08254578
'0:06.504',-49.46045557
'0:06.508',-40.31293045
'0:06.512',-20.34260673
'0:06.516',-26.29913471
'0:06.520',-33.02682033
'0:06.523',-47.3065325
'0:06.527',-39.75450595
'0:06.531',-52.70463599
'0:06.535',-57.27839854
'0:06.539',-64.03267581
'0:06.543',-79.13672891
'0:06.547',-88.0183376
'0:06.551',-99.87821028
'0:06.555',-104.4785645
'0:06.559',-65.65476602
'0:06.563',-67.27685623
'0:06.566',-42.20093709
'0:06.570',-65.92068245
'0:06.574',-67.80868909
'0:06.578',-78.04647155
'0:06.582',-67.27685623
'0:06.586',-45.97695036
'0:06.590',-36.80283361
'0:06.594',-35.1807434
'0:06.598',-42.46685352
'0:06.602',-48.66270628
'0:06.605',-61.34691989
'0:06.609',-53.23646884
'0:06.613',-51.9068867
'0:06.617',-42.73276995
'0:06.621',-48.66270628
'0:06.625',-45.15260944
'0:06.629',-37.60058289
'0:06.633',-35.71257625
'0:06.637',-26.00662664
'0:06.641',-16.30067702
'0:06.645',-14.14675396
'0:06.648',-21.43286408
'0:06.652',-17.92276723
'0:06.656',-8.77524212
'0:06.660',-16.59318509
'0:06.664',-14.41267039
'0:06.668',-21.43286408
'0:06.672',-17.39093438
'0:06.676',-23.85270357
'0:06.680',-16.30067702
'0:06.684',-31.13881369
'0:06.688',-21.96469694
'0:06.691',-17.6568508
'0:06.695',-23.32087072
'0:06.699',-30.87289727
'0:06.703',-30.60698084
'0:06.707',-23.32087072
'0:06.711',-34.38299411
'0:06.715',-22.23061336
'0:06.719',-30.04855634
'0:06.723',-30.87289727
'0:06.727',-24.11862
'0:06.730',-34.38299411
'0:06.734',-21.43286408
'0:06.738',-13.88083753
'0:06.742',-31.40473012
'0:06.746',-23.85270357
'0:06.750',-18.18868366
'0:06.754',-6.06289455
'0:06.758',1.489132
'0:06.762',31.40473012
'0:06.766',38.15900739
'0:06.770',30.60698084
'0:06.773',29.51672348
'0:06.777',35.97849268
'0:06.781',30.60698084
'0:06.785',36.53691718
'0:06.789',14.41267039
'0:06.793',15.50292774
'0:06.797',-9.83890783
'0:06.801',-16.85910152
'0:06.805',-13.34900467
'0:06.809',-20.0766903
'0:06.813',-17.12501795
'0:06.816',-24.41112807
'0:06.820',-16.59318509
'0:06.824',-14.97109488
'0:06.828',-21.16694765
'0:06.832',-0.95729914
'0:06.836',-7.95090119
'0:06.840',-0.13295821
'0:06.844',-14.41267039
'0:06.848',-5.26514527
'0:06.852',-1.22321557
'0:06.855',-7.41906834
'0:06.859',-14.70517846
'0:06.863',1.22321557
'0:06.867',8.21681762
'0:06.871',13.34900467
'0:06.875',41.11067974
'0:06.879',64.29859224
'0:06.883',63.76675938
'0:06.887',72.9142845
'0:06.891',125.2200458
'0:06.895',88.84267852
'0:06.898',-55.12447548
'0:06.902',-221.4817927
'0:06.906',-236.2933377
'0:06.910',-143.8341958
'0:06.914',-81.02473555
'0:06.918',-7.95090119
'0:06.922',48.13087343
'0:06.926',42.46685352
'0:06.930',-17.92276723
'0:06.934',-51.34846221
'0:06.938',-53.23646884
'0:06.941',-8.21681762
'0:06.945',2.02096485
'0:06.949',-17.6568508
'0:06.953',-75.36071563
'0:06.957',-78.84422084
'0:06.961',-43.2646028
'0:06.965',23.85270357
'0:06.969',24.11862
'0:06.973',-7.15315191
'0:06.977',8.74865047
'0:06.980',22.23061336
'0:06.984',20.90103122
'0:06.988',-7.41906834
'0:06.992',-3.90897149
'0:06.996',9.04115854
'0:07.000',3.90897149
'0:07.004',3.90897149
'0:07.008',-22.23061336
'0:07.012',-33.55865319
'0:07.016',-22.23061336
'0:07.020',-29.78263991
'0:07.023',0.9307075
'0:07.027',-8.48273405
'0:07.031',-16.85910152
'0:07.035',-34.11707768
'0:07.039',-42.73276995
'0:07.043',-32.22907105
'0:07.047',18.45460009
'0:07.051',25.74071021
'0:07.055',30.04855634
'0:07.059',41.64251259
'0:07.063',50.01888007
'0:07.066',34.38299411
'0:07.070',42.20093709
'0:07.074',30.87289727
'0:07.078',57.54431497
'0:07.082',48.92862271
'0:07.086',49.726372
'0:07.090',73.472709
'0:07.094',77.5146387
'0:07.098',58.3686559
'0:07.102',67.80868909
'0:07.105',81.02473555
'0:07.109',101.5003005
'0:07.113',107.1643204
'0:07.117',107.4302368
'0:07.121',102.2980498
'0:07.125',67.54277266
'0:07.129',24.38453643
'0:07.133',59.43232161
'0:07.137',131.9743231
'0:07.141',171.5958709
'0:07.145',176.1696334
'0:07.148',157.8479915
'0:07.152',131.7084067
'0:07.156',121.1781161
'0:07.160',123.0661228
'0:07.164',123.3320392
'0:07.168',121.709949
'0:07.172',84.24232432
'0:07.176',77.24872227
'0:07.180',29.78263991
'0:07.184',10.92916518
'0:07.188',21.96469694
'0:07.191',30.87289727
'0:07.195',26.56505114
'0:07.199',0.13295821
'0:07.203',-18.18868366
'0:07.207',-26.00662664
'0:07.211',-19.27894101
'0:07.215',-7.68498476
'0:07.219',-16.59318509
'0:07.223',-17.6568508
'0:07.227',-25.47479378
'0:07.230',-19.27894101
'0:07.234',-23.32087072
'0:07.238',-31.67064655
'0:07.242',-33.55865319
'0:07.246',-11.19508161
'0:07.250',-5.79697813
'0:07.254',-7.15315191
'0:07.258',2.28688128
'0:07.262',-0.66479107
'0:07.266',4.17488792
'0:07.270',-5.5310617
'0:07.273',-5.79697813
'0:07.277',-12.52466375
'0:07.281',-16.59318509
'0:07.285',-28.45305777
'0:07.289',-37.33466646
'0:07.293',-37.06875003
'0:07.297',-28.7189742
'0:07.301',-3.11122221
'0:07.305',16.0347606
'0:07.309',9.5729914
'0:07.313',-1.489132
'0:07.316',-7.95090119
'0:07.320',-48.13087343
'0:07.324',-78.31238798
'0:07.328',-55.12447548
'0:07.332',-38.42492381
'0:07.336',-28.1605497
'0:07.340',-16.59318509
'0:07.344',2.02096485
'0:07.348',8.48273405
'0:07.352',41.64251259
'0:07.355',36.53691718
'0:07.359',17.92276723
'0:07.363',5.5310617
'0:07.367',9.5729914
'0:07.371',-7.15315191
'0:07.375',3.90897149
'0:07.379',0.66479107
'0:07.383',-11.46099804
'0:07.387',-21.43286408
'0:07.391',-21.69878051
'0:07.395',-12.81717182
'0:07.398',-1.489132
'0:07.402',2.55279771
'0:07.406',10.10482426
'0:07.410',11.46099804
'0:07.414',5.26514527
'0:07.418',-15.50292774
'0:07.422',-28.1605497
'0:07.426',-22.23061336
'0:07.430',-22.23061336
'0:07.434',-12.25874732
'0:07.438',-0.66479107
'0:07.441',2.55279771
'0:07.445',-21.43286408
'0:07.449',-34.64891054
'0:07.453',-72.11653522
'0:07.457',-78.84422084
'0:07.461',-48.66270628
'0:07.465',-12.52466375
'0:07.469',-22.52312143
'0:07.473',-36.27100075
'0:07.477',-41.11067974
'0:07.480',-46.77469965
'0:07.484',-76.98280584
'0:07.488',-70.22852858
'0:07.492',-22.78903786
'0:07.496',-13.88083753
'0:07.500',-0.39887464
'0:07.504',4.99922884
'0:07.508',11.72691447
'0:07.512',-4.44080434
'0:07.516',4.70672077
'0:07.520',30.60698084
'0:07.523',48.92862271
'0:07.527',57.27839854
'0:07.531',61.32032825
'0:07.535',40.57884688
'0:07.539',18.45460009
'0:07.543',2.55279771
'0:07.547',-7.68498476
'0:07.551',-4.70672077
'0:07.555',-8.77524212
'0:07.559',-14.14675396
'0:07.563',-29.25080706
'0:07.566',-38.95675667
'0:07.570',-36.53691718
'0:07.574',-25.74071021
'0:07.578',-16.0347606
'0:07.582',-14.70517846
'0:07.586',-7.15315191
'0:07.590',-3.64305506
'0:07.594',-8.21681762
'0:07.598',-14.41267039
'0:07.602',-14.14675396
'0:07.605',-39.2226731
'0:07.609',-34.91482697
'0:07.613',-24.41112807
'0:07.617',-16.59318509
'0:07.621',-16.0347606
'0:07.625',7.95090119
'0:07.629',27.89463327
'0:07.633',54.85855905
'0:07.637',79.13672891
'0:07.641',110.9403337
'0:07.645',41.90842902
'0:07.648',-88.0183376
'0:07.652',-277.2710593
'0:07.656',-278.3613166
'0:07.660',-207.4414053
'0:07.664',-176.4621415
'0:07.668',-118.7582767
'0:07.672',-53.50238527
'0:07.676',-49.19453914
'0:07.680',-55.12447548
'0:07.684',-73.20679257
'0:07.688',-68.8723548
'0:07.691',-69.96261215
'0:07.695',-79.40264534
'0:07.699',-84.50824075
'0:07.703',-89.37451138
'0:07.707',-72.38245164
'0:07.711',-56.74656569
'0:07.715',-62.14466917
'0:07.719',-95.57036415
'0:07.723',-101.5003005
'0:07.727',-74.53637471
'0:07.730',-31.13881369
'0:07.734',-17.6568508
'0:07.738',-28.45305777
'0:07.742',-47.864957
'0:07.746',-55.39039191
'0:07.750',-47.3065325
'0:07.754',-50.55071292
'0:07.758',-60.25666254
'0:07.762',-63.20833488
'0:07.766',-56.21473283
'0:07.770',-48.92862271
'0:07.773',-35.1807434
'0:07.777',-27.62871685
'0:07.781',-15.23701131
'0:07.785',6.59472741
'0:07.789',29.51672348
'0:07.793',29.51672348
'0:07.797',23.58678714
'0:07.801',19.81077387
'0:07.805',-7.95090119
'0:07.809',13.6149211
'0:07.813',27.36280042
'0:07.816',36.80283361
'0:07.820',50.55071292
'0:07.824',40.31293045
'0:07.828',31.40473012
'0:07.832',30.04855634
'0:07.836',37.33466646
'0:07.840',48.39678986
'0:07.844',53.79489334
'0:07.848',77.78055513
'0:07.852',108.7864106
'0:07.855',116.6043536
'0:07.859',128.7301427
'0:07.863',119.0241931
'0:07.867',111.738083
'0:07.871',110.6744172
'0:07.875',116.87027
'0:07.879',110.9403337
'0:07.883',116.87027
'0:07.887',110.6744172
'0:07.891',95.83628057
'0:07.895',102.2980498
'0:07.898',125.2200458
'0:07.902',112.8283403
'0:07.906',124.9541294
'0:07.910',113.3601732
'0:07.914',104.4785645
'0:07.918',78.84422084
'0:07.922',65.09634152
'0:07.926',59.16640518
'0:07.930',47.57244893
'0:07.934',24.94296093
'0:07.938',16.0347606
'0:07.941',0.13295821
'0:07.945',-6.88723548
'0:07.949',-17.12501795
'0:07.953',-37.86649932
'0:07.957',-31.40473012
'0:07.961',-33.82456961
'0:07.965',-26.00662664
'0:07.969',-34.11707768
'0:07.973',-36.00508432
'0:07.977',-29.78263991
'0:07.980',-34.38299411
'0:07.984',-27.62871685
'0:07.988',-34.38299411
'0:07.992',-34.64891054
'0:07.996',-28.45305777
'0:08.000',-34.64891054
'0:08.004',-44.08894373
'0:08.008',-34.38299411
'0:08.012',-19.01302459
'0:08.016',-13.08308825
'0:08.020',-18.48119173
'0:08.023',-11.72691447
'0:08.027',-17.92276723
'0:08.031',-17.6568508
'0:08.035',-27.36280042
'0:08.039',-33.55865319
'0:08.043',-28.98489063
'0:08.047',-35.44665982
'0:08.051',-48.92862271
'0:08.055',-41.37659616
'0:08.059',-34.11707768
'0:08.063',-31.67064655
'0:08.066',-36.53691718
'0:08.070',-31.40473012
'0:08.074',-39.2226731
'0:08.078',-48.66270628
'0:08.082',-63.20833488
'0:08.086',-53.23646884
'0:08.090',-33.55865319
'0:08.094',-24.6770445
'0:08.098',-32.22907105
'0:08.102',-45.15260944
'0:08.105',-66.71843173
'0:08.109',-94.50669843
'0:08.113',-71.58470236
'0:08.117',-51.9068867
'0:08.121',-50.01888007
'0:08.125',-36.27100075
'0:08.129',-13.34900467
'0:08.133',9.04115854
'0:08.137',-33.55865319
'0:08.141',-45.68444229
'0:08.145',-19.27894101
'0:08.148',-16.59318509
'0:08.152',-54.85855905
'0:08.156',-91.79435087
'0:08.160',-75.09479921
'0:08.164',-25.20887735
'0:08.168',-23.85270357
'0:08.172',-53.79489334
'0:08.176',-99.61229385
'0:08.180',-101.2343841
'0:08.184',-29.25080706
'0:08.188',-17.6568508
'0:08.191',-24.94296093
'0:08.195',-45.41852587
'0:08.199',-46.50878322
'0:08.203',-28.45305777
'0:08.207',-20.90103122
'0:08.211',3.11122221
'0:08.215',-14.14675396
'0:08.219',-41.93502066
'0:08.223',-85.06666525
'0:08.227',-97.19245436
'0:08.230',-96.102197
'0:08.234',-53.23646884
'0:08.238',-16.30067702
'0:08.242',9.04115854
'0:08.246',-13.88083753
'0:08.250',-10.92916518
'0:08.254',-3.11122221
'0:08.258',14.41267039
'0:08.262',8.21681762
'0:08.266',19.01302459
'0:08.270',21.16694765
'0:08.273',28.1605497
'0:08.277',15.23701131
'0:08.281',10.63665711
'0:08.285',-10.92916518
'0:08.289',-41.37659616
'0:08.293',-51.34846221
'0:08.297',-49.75296364
'0:08.301',-40.04701402
'0:08.305',1.22321557
'0:08.309',33.82456961
'0:08.313',27.09688399
'0:08.316',3.11122221
'0:08.320',-0.95729914
'0:08.324',-12.25874732
'0:08.328',-31.40473012
'0:08.332',-22.78903786
'0:08.336',-30.60698084
'0:08.340',-48.39678986
'0:08.344',-73.20679257
'0:08.348',-108.7864106
'0:08.352',-87.75242117
'0:08.355',-51.9068867
'0:08.359',-22.52312143
'0:08.363',-10.92916518
'0:08.367',-10.10482426
'0:08.371',10.63665711
'0:08.375',12.81717182
'0:08.379',41.64251259
'0:08.383',52.70463599
'0:08.387',53.79489334
'0:08.391',90.43817709
'0:08.395',138.7020087
'0:08.398',104.4785645
'0:08.402',-79.93447819
'0:08.406',-289.9552729
'0:08.410',-357.0725792
'0:08.414',-272.9632131
'0:08.418',-229.2997357
'0:08.422',-165.4000181
'0:08.426',-71.85061879
'0:08.430',-3.64305506
'0:08.434',5.5310617
'0:08.438',-10.66324875
'0:08.441',-13.88083753
'0:08.445',-6.32881098
'0:08.449',-18.74710816
'0:08.453',-38.69084024
'0:08.457',-24.94296093
'0:08.461',-48.92862271
'0:08.465',-41.11067974
'0:08.469',-18.74710816
'0:08.473',8.74865047
'0:08.477',36.80283361
'0:08.480',28.98489063
'0:08.484',8.48273405
'0:08.488',-12.52466375
'0:08.492',-33.02682033
'0:08.496',-11.19508161
'0:08.500',52.17280313
'0:08.504',93.15052465
'0:08.508',97.19245436
'0:08.512',41.37659616
'0:08.516',-13.6149211
'0:08.520',-23.05495429
'0:08.523',36.53691718
'0:08.527',99.34637742
'0:08.531',99.61229385
'0:08.535',88.55017045
'0:08.539',80.73222748
'0:08.543',55.12447548
'0:08.547',35.44665982
'0:08.551',51.61437863
'0:08.555',69.96261215
'0:08.559',92.0602673
'0:08.563',130.3522329
'0:08.566',129.527892
'0:08.570',119.0241931
'0:08.574',77.24872227
'0:08.578',95.83628057
'0:08.582',125.4859623
'0:08.586',168.3516904
'0:08.590',147.6102091
'0:08.594',100.1441267
'0:08.598',103.92014
'0:08.602',155.1622356
'0:08.605',112.0039994
'0:08.609',83.44457504
'0:08.613',166.7561919
'0:08.617',209.8878365
'0:08.621',212.0417595
'0:08.625',193.9594424
'0:08.629',200.7137197
'0:08.633',185.6096666
'0:08.637',164.3097607
'0:08.641',148.9397912
'0:08.645',158.113908
'0:08.648',162.9801786
'0:08.652',136.5480857
'0:08.656',89.64042781
'0:08.660',73.20679257
'0:08.664',121.1781161
'0:08.668',166.7561919
'0:08.672',131.1499822
'0:08.676',112.5624239
'0:08.680',81.82248483
'0:08.684',74.00454185
'0:08.688',66.18659888
'0:08.691',63.50084296
'0:08.695',63.50084296
'0:08.699',66.18659888
'0:08.703',41.90842902
'0:08.707',18.74710816
'0:08.711',15.76884417
'0:08.715',14.97109488
'0:08.719',1.75504842
'0:08.723',-6.32881098
'0:08.727',-14.41267039
'0:08.730',-17.6568508
'0:08.734',-1.489132
'0:08.738',-14.14675396
'0:08.742',-21.69878051
'0:08.746',0.66479107
'0:08.750',-3.90897149
'0:08.754',29.25080706
'0:08.758',65.09634152
'0:08.762',57.01248212
'0:08.766',49.726372
'0:08.770',47.3065325
'0:08.773',31.93656298
'0:08.777',19.01302459
'0:08.781',9.5729914
'0:08.785',-0.13295821
'0:08.789',12.52466375
'0:08.793',14.41267039
'0:08.797',3.90897149
'0:08.801',10.63665711
'0:08.805',-0.95729914
'0:08.809',-4.44080434
'0:08.813',14.67858681
'0:08.816',4.17488792
'0:08.820',-4.70672077
'0:08.824',-0.66479107
'0:08.828',-5.5310617
'0:08.832',-1.75504842
'0:08.836',-10.37074068
'0:08.840',-19.27894101
'0:08.844',-32.7609039
'0:08.848',-22.52312143
'0:08.852',-19.27894101
'0:08.855',-26.29913471
'0:08.859',-34.11707768
'0:08.863',-47.864957
'0:08.867',-39.2226731
'0:08.871',-36.27100075
'0:08.875',-42.46685352
'0:08.879',-48.66270628
'0:08.883',-47.3065325
'0:08.887',-55.94881641
'0:08.891',-67.54277266
'0:08.895',-72.38245164
'0:08.898',-95.30444772
'0:08.902',-95.30444772
'0:08.906',-74.00454185
'0:08.910',-39.75450595
'0:08.914',-27.09688399
'0:08.918',-29.78263991
'0:08.922',-43.53051923
'0:08.926',-39.2226731
'0:08.930',-39.2226731
'0:08.934',-43.2646028
'0:08.938',-45.68444229
'0:08.941',-43.53051923
'0:08.945',-55.12447548
'0:08.949',-54.3267262
'0:08.953',-42.99868637
'0:08.957',-46.77469965
'0:08.961',-44.08894373
'0:08.965',-38.95675667
'0:08.969',-22.52312143
'0:08.973',-11.46099804
'0:08.977',16.30067702
'0:08.980',18.74710816
'0:08.984',25.74071021
'0:08.988',27.62871685
'0:08.992',38.15900739
'0:08.996',32.49498748
'0:09.000',34.64891054
'0:09.004',25.74071021
'0:09.008',-2.28688128
'0:09.012',-22.52312143
'0:09.016',-30.04855634
'0:09.020',-47.04061608
'0:09.023',-40.84476331
'0:09.027',-51.9068867
'0:09.031',-54.3267262
'0:09.035',-61.05441182
'0:09.039',-47.864957
'0:09.043',-43.2646028
'0:09.047',-52.43871956
'0:09.051',-52.17280313
'0:09.055',-43.53051923
'0:09.059',-48.39678986
'0:09.063',-44.08894373
'0:09.066',-36.80283361
'0:09.070',-36.00508432
'0:09.074',-26.56505114
'0:09.078',-16.30067702
'0:09.082',2.28688128
'0:09.086',9.83890783
'0:09.090',43.79643566
'0:09.094',53.50238527
'0:09.098',64.29859224
'0:09.102',97.99020364
'0:09.105',120.1144504
'0:09.109',77.24872227
'0:09.113',-78.57830441
'0:09.117',-267.2991932
'0:09.121',-290.4871057
'0:09.125',-213.6638497
'0:09.129',-143.0098549
'0:09.133',-96.102197
'0:09.137',-28.45305777
'0:09.141',3.11122221
'0:09.145',1.75504842
'0:09.148',-22.78903786
'0:09.152',-11.72691447
'0:09.156',17.92276723
'0:09.160',16.85910152
'0:09.164',3.90897149
'0:09.168',-3.37713863
'0:09.172',19.27894101
'0:09.176',45.68444229
'0:09.180',46.77469965
'0:09.184',38.69084024
'0:09.188',32.2024794
'0:09.191',35.71257625
'0:09.195',43.53051923
'0:09.199',30.04855634
'0:09.203',24.6770445
'0:09.207',2.28688128
'0:09.211',3.64305506
'0:09.215',9.30707497
'0:09.219',11.99283089
'0:09.223',8.21681762
'0:09.227',3.64305506
'0:09.230',3.90897149
'0:09.234',8.21681762
'0:09.238',26.56505114
'0:09.242',23.58678714
'0:09.246',4.99922884
'0:09.250',6.06289455
'0:09.254',23.85270357
'0:09.258',23.85270357
'0:09.262',23.05495429
'0:09.266',22.23061336
'0:09.270',7.15315191
'0:09.273',23.85270357
'0:09.277',22.78903786
'0:09.281',21.96469694
'0:09.285',-8.21681762
'0:09.289',-21.69878051
'0:09.293',-7.68498476
'0:09.297',-42.73276995
'0:09.301',-57.57090662
'0:09.305',21.96469694
'0:09.309',81.29065197
'0:09.313',97.19245436
'0:09.316',104.4785645
'0:09.320',109.3182435
'0:09.324',75.06820756
'0:09.328',84.50824075
'0:09.332',96.102197
'0:09.336',99.87821028
'0:09.340',106.898404
'0:09.344',107.9620697
'0:09.348',86.39624739
'0:09.352',82.08840126
'0:09.355',98.81454456
'0:09.359',118.7582767
'0:09.363',120.9121997
'0:09.367',119.2901095
'0:09.371',100.7025512
'0:09.375',100.4100431
'0:09.379',70.76036143
'0:09.383',57.27839854
'0:09.387',24.38453643
'0:09.391',5.5310617
'0:09.395',-27.89463327
'0:09.398',-41.93502066
'0:09.402',-56.21473283
'0:09.406',-26.56505114
'0:09.410',-14.97109488
'0:09.414',-14.41267039
'0:09.418',-9.04115854
'0:09.422',-6.32881098
'0:09.426',-24.94296093
'0:09.430',-44.35486015
'0:09.434',-44.88669301
'0:09.438',-42.73276995
'0:09.441',-40.57884688
'0:09.445',-41.37659616
'0:09.449',-58.90048875
'0:09.453',-44.08894373
'0:09.457',-43.8230273
'0:09.461',-57.27839854
'0:09.465',-71.31878593
'0:09.469',-72.9142845
'0:09.473',-45.41852587
'0:09.477',-16.0347606
'0:09.480',-12.25874732
'0:09.484',-21.43286408
'0:09.488',-51.08254578
'0:09.492',-41.11067974
'0:09.496',-33.02682033
'0:09.500',-16.59318509
'0:09.504',-8.21681762
'0:09.508',12.81717182
'0:09.512',23.58678714
'0:09.516',31.93656298
'0:09.520',47.57244893
'0:09.523',24.11862
'0:09.527',0.13295821
'0:09.531',-34.91482697
'0:09.535',-61.05441182
'0:09.539',-50.55071292
'0:09.543',-30.04855634
'0:09.547',-6.06289455
'0:09.551',-4.17488792
'0:09.555',-9.83890783
'0:09.559',-14.97109488
'0:09.563',-28.7189742
'0:09.566',-37.86649932
'0:09.570',-36.00508432
'0:09.574',-26.56505114
'0:09.578',-32.22907105
'0:09.582',-44.62077658
'0:09.586',-52.43871956
'0:09.590',-20.0766903
'0:09.594',-12.81717182
'0:09.598',-17.39093438
'0:09.602',-11.72691447
'0:09.605',-19.01302459
'0:09.609',-49.75296364
'0:09.613',-88.0183376
'0:09.617',-110.1425844
'0:09.621',-62.94241846
'0:09.625',-27.89463327
'0:09.629',-7.68498476
'0:09.633',-21.69878051
'0:09.637',-54.59264262
'0:09.641',-72.9142845
'0:09.645',-59.45891325
'0:09.648',-44.08894373
'0:09.652',-10.66324875
'0:09.656',22.52312143
'0:09.660',23.05495429
'0:09.664',8.48273405
'0:09.668',-22.23061336
'0:09.672',-23.05495429
'0:09.676',-26.29913471
'0:09.680',-27.62871685
'0:09.684',-9.83890783
'0:09.688',7.68498476
'0:09.691',23.32087072
'0:09.695',22.23061336
'0:09.699',7.15315191
'0:09.703',8.74865047
'0:09.707',39.2226731
'0:09.711',67.25026459
'0:09.715',67.54277266
'0:09.719',26.27254307
'0:09.723',-15.76884417
'0:09.727',-35.44665982
'0:09.730',-45.41852587
'0:09.734',-33.55865319
'0:09.738',-11.72691447
'0:09.742',11.99283089
'0:09.746',42.99868637
'0:09.750',35.97849268
'0:09.754',18.18868366
'0:09.758',7.95090119
'0:09.762',-33.55865319
'0:09.766',-50.55071292
'0:09.770',-43.8230273
'0:09.773',-34.11707768
'0:09.777',-13.6149211
'0:09.781',-3.90897149
'0:09.785',-16.85910152
'0:09.789',-23.58678714
'0:09.793',-31.40473012
'0:09.797',-30.34106441
'0:09.801',-6.88723548
'0:09.805',12.25874732
'0:09.809',23.58678714
'0:09.813',33.55865319
'0:09.816',65.65476602
'0:09.820',102.2980498
'0:09.824',-1.22321557
'0:09.828',-153.0083126
'0:09.832',-313.6750182
'0:09.836',-281.8714135
'0:09.840',-174.8400513
'0:09.844',-125.2200458
'0:09.848',-68.60643837
'0:09.852',-5.5310617
'0:09.855',13.6149211
'0:09.859',-6.59472741
'0:09.863',-6.32881098
'0:09.867',-18.48119173
'0:09.871',-21.16694765
'0:09.875',-32.22907105
'0:09.879',-36.80283361
'0:09.883',-40.04701402
'0:09.887',-6.88723548
'0:09.891',7.15315191
'0:09.895',0.9307075
'0:09.898',-15.76884417
'0:09.902',-20.90103122
'0:09.906',-9.04115854
'0:09.910',19.27894101
'0:09.914',15.76884417
'0:09.918',3.11122221
'0:09.922',-17.39093438
'0:09.926',-24.11862
'0:09.930',-29.78263991
'0:09.934',-17.12501795
'0:09.938',-29.25080706
'0:09.941',-33.29273676
'0:09.945',-24.94296093
'0:09.949',-15.50292774
'0:09.953',-1.75504842
'0:09.957',-11.99283089
'0:09.961',-15.76884417
'0:09.965',-8.77524212
'0:09.969',-16.30067702
'0:09.973',-1.489132
'0:09.977',-11.19508161
'0:09.980',-15.23701131
'0:09.984',-24.6770445
'0:09.988',-16.30067702
'0:09.992',-17.92276723
'0:09.996',-10.92916518
'0:10.000',-15.50292774
'0:10.004',-9.30707497
'0:10.008',-1.22321557
'0:10.012',-1.489132
'0:10.016',6.06289455
'0:10.020',0.9307075
'0:10.023',6.06289455
'0:10.027',14.14675396
'0:10.031',14.41267039
'0:10.035',22.78903786
'0:10.039',33.02682033
'0:10.043',36.53691718
'0:10.047',45.15260944
'0:10.051',47.3065325
'0:10.055',55.94881641
'0:10.059',49.46045557
'0:10.063',52.43871956
'0:10.066',60.25666254
'0:10.070',62.67650203
'0:10.074',56.74656569
'0:10.078',66.18659888
'0:10.082',67.25026459
'0:10.086',59.16640518
'0:10.090',63.20833488
'0:10.094',57.83682304
'0:10.098',35.1807434
'0:10.102',35.71257625
'0:10.105',26.00662664
'0:10.109',-0.95729914
'0:10.113',-4.44080434
'0:10.117',-12.52466375
'0:10.121',-30.04855634
'0:10.125',-23.58678714
'0:10.129',-34.11707768
'0:10.133',-36.27100075
'0:10.137',-43.53051923
'0:10.141',-45.97695036
'0:10.145',-40.84476331
'0:10.148',-50.81662935
'0:10.152',-51.34846221
'0:10.156',-58.10273947
'0:10.160',-46.50878322
'0:10.164',-42.99868637
'0:10.168',-36.00508432
'0:10.172',-50.01888007
'0:10.176',-55.12447548
'0:10.180',-45.41852587
'0:10.184',-44.62077658
'0:10.188',-37.86649932
'0:10.191',-18.48119173
'0:10.195',-7.15315191
'0:10.199',-12.81717182
'0:10.203',-11.19508161
'0:10.207',-20.6351148
'0:10.211',-2.02096485
'0:10.215',7.95090119
'0:10.219',2.55279771
'0:10.223',20.6351148
'0:10.227',11.46099804
'0:10.230',14.67858681
'0:10.234',25.20887735
'0:10.238',34.09048604
'0:10.242',35.1807434
'0:10.246',27.62871685
'0:10.250',32.2024794
'0:10.254',41.90842902
'0:10.258',33.55865319
'0:10.262',34.64891054
'0:10.266',27.36280042
'0:10.270',32.2024794
'0:10.273',41.90842902
'0:10.277',33.29273676
'0:10.281',34.38299411
'0:10.285',27.36280042
'0:10.289',32.2024794
'0:10.293',41.90842902
'0:10.297',48.39678986
'0:10.301',33.55865319
'0:10.305',43.2646028
'0:10.309',48.13087343
'0:10.313',42.20093709
'0:10.316',49.19453914
'0:10.320',33.29273676
'0:10.324',42.46685352
'0:10.328',47.57244893
'0:10.332',26.83096756
'0:10.336',19.01302459
'0:10.340',17.92276723
'0:10.344',8.48273405
'0:10.348',-1.22321557
'0:10.352',-4.17488792
'0:10.355',-12.25874732
'0:10.359',-14.97109488
'0:10.363',-24.6770445
'0:10.367',-17.92276723
'0:10.371',-20.0766903
'0:10.375',-12.25874732
'0:10.379',-15.50292774
'0:10.383',-9.30707497
'0:10.387',-2.55279771
'0:10.391',-3.64305506
'0:10.395',20.0766903
'0:10.398',31.13881369
'0:10.402',36.80283361
'0:10.406',30.34106441
'0:10.410',31.13881369
'0:10.414',37.60058289
'0:10.418',30.60698084
'0:10.422',35.44665982
'0:10.426',29.78263991
'0:10.430',16.30067702
'0:10.434',7.95090119
'0:10.438',-0.39887464
'0:10.441',-13.88083753
'0:10.445',-4.17488792
'0:10.449',-0.95729914
'0:10.453',-7.95090119
'0:10.457',-15.23701131
'0:10.461',-13.6149211
'0:10.465',-21.16694765
'0:10.469',-17.39093438
'0:10.473',-7.68498476
'0:10.477',-15.50292774
'0:10.480',-13.88083753
'0:10.484',-21.16694765
'0:10.488',-16.85910152
'0:10.492',-22.78903786
'0:10.496',-15.23701131
'0:10.500',-15.23701131
'0:10.504',-6.59472741
'0:10.508',-1.22321557
'0:10.512',40.84476331
'0:10.516',62.67650203
'0:10.520',78.84422084
'0:10.523',89.64042781
'0:10.527',112.5624239
'0:10.531',122.2683735
'0:10.535',-26.56505114
'0:10.539',-192.3639439
'0:10.543',-310.4308378
'0:10.547',-243.3135314
'0:10.551',-142.7439384
'0:10.555',-83.71049147
'0:10.559',-25.20887735
'0:10.563',30.04855634
'0:10.566',21.96469694
'0:10.570',-18.48119173
'0:10.574',-27.09688399
'0:10.578',-26.00662664
'0:10.582',-7.15315191
'0:10.586',-26.56505114
'0:10.590',-30.87289727
'0:10.594',-26.00662664
'0:10.598',-13.88083753
'0:10.602',-10.37074068
'0:10.605',-9.04115854
'0:10.609',-26.56505114
'0:10.613',-39.2226731
'0:10.617',-15.76884417
'0:10.621',0.66479107
'0:10.625',-10.37074068
'0:10.629',-6.88723548
'0:10.633',-4.70672077
'0:10.637',-1.75504842
'0:10.641',13.88083753
'0:10.645',21.16694765
'0:10.648',11.46099804
'0:10.652',13.88083753
'0:10.656',14.14675396
'0:10.660',27.36280042
'0:10.664',35.71257625
'0:10.668',28.98489063
'0:10.672',16.85910152
'0:10.676',30.60698084
'0:10.680',40.31293045
'0:10.684',33.82456961
'0:10.688',30.87289727
'0:10.691',35.1807434
'0:10.695',45.41852587
'0:10.699',52.97055241
'0:10.703',79.40264534
'0:10.707',78.84422084
'0:10.711',69.69669572
'0:10.715',64.03267581
'0:10.719',68.8723548
'0:10.723',76.9562142
'0:10.727',62.4105856
'0:10.730',71.02627786
'0:10.734',79.66856176
'0:10.738',97.72428721
'0:10.742',106.3665711
'0:10.746',95.03853129
'0:10.750',105.8081466
'0:10.754',112.2965075
'0:10.758',111.738083
'0:10.762',120.6462833
'0:10.766',111.2062501
'0:10.770',122.8002064
'0:10.773',128.1983098
'0:10.777',126.0443868
'0:10.781',119.2901095
'0:10.785',127.3739689
'0:10.789',123.0661228
'0:10.793',97.19245436
'0:10.797',95.03853129
'0:10.801',86.13033096
'0:10.805',77.5146387
'0:10.809',59.43232161
'0:10.813',35.1807434
'0:10.816',31.13881369
'0:10.820',19.81077387
'0:10.824',26.56505114
'0:10.828',26.00662664
'0:10.832',19.27894101
'0:10.836',-0.13295821
'0:10.840',4.17488792
'0:10.844',-6.32881098
'0:10.848',-6.32881098
'0:10.852',-12.25874732
'0:10.855',-16.0347606
'0:10.859',-13.08308825
'0:10.863',-7.41906834
'0:10.867',-22.23061336
'0:10.871',-10.92916518
'0:10.875',-16.0347606
'0:10.879',-14.14675396
'0:10.883',-8.21681762
'0:10.887',-21.69878051
'0:10.891',-25.20887735
'0:10.895',-15.23701131
'0:10.898',-15.76884417
'0:10.902',-9.83890783
'0:10.906',-21.16694765
'0:10.910',-38.69084024
'0:10.914',-29.25080706
'0:10.918',-32.7609039
'0:10.922',-28.45305777
'0:10.926',-37.60058289
'0:10.930',-52.70463599
'0:10.934',-43.53051923
'0:10.938',-34.11707768
'0:10.941',-31.13881369
'0:10.945',-22.52312143
'0:10.949',-35.1807434
'0:10.953',-25.20887735
'0:10.957',-33.02682033
'0:10.961',-47.3065325
'0:10.965',-54.06080977
'0:10.969',-50.55071292
'0:10.973',-41.64251259
'0:10.977',-49.75296364
'0:10.980',-47.57244893
'0:10.984',-38.69084024
'0:10.988',-34.91482697
'0:10.992',-40.57884688
'0:10.996',-32.22907105
'0:11.000',-31.93656298
'0:11.004',-24.11862
'0:11.008',-34.38299411
'0:11.012',-22.78903786
'0:11.016',-31.40473012
'0:11.020',-16.85910152
'0:11.023',-25.20887735
'0:11.027',-18.18868366
'0:11.031',-6.06289455
'0:11.035',-14.70517846
'0:11.039',-16.30067702
'0:11.043',-9.30707497
'0:11.047',-3.11122221
'0:11.051',-5.79697813
'0:11.055',2.28688128
'0:11.059',-0.39887464
'0:11.063',5.79697813
'0:11.066',-3.11122221
'0:11.070',11.19508161
'0:11.074',2.81871413
'0:11.078',15.23701131
'0:11.082',20.34260673
'0:11.086',43.2646028
'0:11.090',58.3686559
'0:11.094',36.53691718
'0:11.098',34.38299411
'0:11.102',37.33466646
'0:11.105',41.37659616
'0:11.109',25.74071021
'0:11.113',21.96469694
'0:11.117',3.37713863
'0:11.121',-10.37074068
'0:11.125',-22.52312143
'0:11.129',-38.15900739
'0:11.133',-41.93502066
'0:11.137',-45.41852587
'0:11.141',-44.08894373
'0:11.145',-55.39039191
'0:11.148',-68.8723548
'0:11.152',-72.38245164
'0:11.156',-61.87875275
'0:11.160',-77.78055513
'0:11.164',-71.85061879
'0:11.168',-83.97640789
'0:11.172',-71.58470236
'0:11.176',-77.78055513
'0:11.180',-93.41644108
'0:11.184',-71.85061879
'0:11.188',-84.50824075
'0:11.191',-55.94881641
'0:11.195',-46.50878322
'0:11.199',-46.24286679
'0:11.203',-23.58678714
'0:11.207',-4.44080434
'0:11.211',7.95090119
'0:11.215',49.46045557
'0:11.219',79.93447819
'0:11.223',9.83890783
'0:11.227',-135.1919119
'0:11.230',-307.213249
'0:11.234',-309.1012557
'0:11.238',-208.2657462
'0:11.242',-131.7084067
'0:11.246',-72.38245164
'0:11.250',-2.02096485
'0:11.254',19.81077387
'0:11.258',9.83890783
'0:11.262',-27.09688399
'0:11.266',-20.90103122
'0:11.270',-3.37713863
'0:11.273',-13.34900467
'0:11.277',-35.71257625
'0:11.281',-25.74071021
'0:11.285',-24.41112807
'0:11.289',-6.88723548
'0:11.293',-11.99283089
'0:11.297',-16.30067702
'0:11.301',-24.41112807
'0:11.305',-10.37074068
'0:11.309',6.06289455
'0:11.313',19.54485744
'0:11.316',2.28688128
'0:11.320',9.83890783
'0:11.324',4.70672077
'0:11.328',20.34260673
'0:11.332',19.54485744
'0:11.336',4.70672077
'0:11.340',-4.17488792
'0:11.344',19.27894101
'0:11.348',31.93656298
'0:11.352',49.726372
'0:11.355',38.95675667
'0:11.359',30.87289727
'0:11.363',35.71257625
'0:11.367',45.97695036
'0:11.371',63.76675938
'0:11.375',70.49444501
'0:11.379',63.76675938
'0:11.383',52.97055241
'0:11.387',62.4105856
'0:11.391',78.57830441
'0:11.395',85.06666525
'0:11.398',79.40264534
'0:11.402',85.06666525
'0:11.406',93.94827394
'0:11.410',109.5841599
'0:11.414',116.6043536
'0:11.418',127.1080525
'0:11.422',131.9743231
'0:11.426',141.1218482
'0:11.430',157.5820751
'0:11.434',164.5756772
'0:11.438',158.9116572
'0:11.441',164.0438443
'0:11.445',172.1277037
'0:11.449',172.6861282
'0:11.453',180.7699876
'0:11.457',174.8400513
'0:11.461',163.246095
'0:11.465',156.2259013
'0:11.469',141.4143563
'0:11.473',133.3039053
'0:11.477',126.0443868
'0:11.480',113.0942567
'0:11.484',106.3665711
'0:11.488',93.41644108
'0:11.492',85.86441453
'0:11.496',77.5146387
'0:11.500',79.13672891
'0:11.504',56.48064926
'0:11.508',61.32032825
'0:11.512',54.3267262
'0:11.516',45.15260944
'0:11.520',30.34106441
'0:11.523',24.11862
'0:11.527',13.08308825
'0:11.531',6.86064384
'0:11.535',-2.55279771
'0:11.539',-3.11122221
'0:11.543',-9.83890783
'0:11.547',-19.01302459
'0:11.551',-23.58678714
'0:11.555',-18.18868366
'0:11.559',-5.26514527
'0:11.563',-12.52466375
'0:11.566',-18.48119173
'0:11.570',-20.90103122
'0:11.574',-16.85910152
'0:11.578',-22.23061336
'0:11.582',-29.78263991
'0:11.586',-18.74710816
'0:11.590',-20.34260673
'0:11.594',-16.0347606
'0:11.598',-21.96469694
'0:11.602',0.9307075
'0:11.605',-4.44080434
'0:11.609',-3.37713863
'0:11.613',-13.08308825
'0:11.617',-35.71257625
'0:11.621',-31.13881369
'0:11.625',-22.52312143
'0:11.629',-21.43286408
'0:11.633',-28.45305777
'0:11.637',-34.11707768
'0:11.641',-31.13881369
'0:11.645',-24.11862
'0:11.648',-21.96469694
'0:11.652',-27.36280042
'0:11.656',-32.49498748
'0:11.660',-31.13881369
'0:11.664',-25.20887735
'0:11.668',-38.15900739
'0:11.672',-26.00662664
'0:11.676',-16.59318509
'0:11.680',-31.93656298
'0:11.684',-24.94296093
'0:11.688',-21.43286408
'0:11.691',-25.74071021
'0:11.695',-16.30067702
'0:11.699',-16.59318509
'0:11.703',-25.47479378
'0:11.707',-20.6351148
'0:11.711',-24.6770445
'0:11.715',-16.30067702
'0:11.719',-17.39093438
'0:11.723',-26.00662664
'0:11.727',-19.81077387
'0:11.730',-7.95090119
'0:11.734',-0.95729914
'0:11.738',-2.28688128
'0:11.742',21.16694765
'0:11.746',27.36280042
'0:11.750',24.94296093
'0:11.754',17.6568508
'0:11.758',15.23701131
'0:11.762',20.34260673
'0:11.766',25.74071021
'0:11.770',40.04701402
'0:11.773',33.82456961
'0:11.777',16.56659345
'0:11.781',21.43286408
'0:11.785',55.94881641
'0:11.789',83.71049147
'0:11.793',110.6744172
'0:11.797',97.19245436
'0:11.801',89.37451138
'0:11.805',60.52257896
'0:11.809',39.2226731
'0:11.813',31.40473012
'0:11.816',30.34106441
'0:11.820',37.06875003
'0:11.824',26.83096756
'0:11.828',24.11862
'0:11.832',32.2024794
'0:11.836',28.98489063
'0:11.840',35.1807434
'0:11.844',26.56505114
'0:11.848',25.74071021
'0:11.852',17.6568508
'0:11.855',28.7189742
'0:11.859',17.39093438
'0:11.863',25.74071021
'0:11.867',10.63665711
'0:11.871',3.37713863
'0:11.875',12.81717182
'0:11.879',30.34106441
'0:11.883',38.15900739
'0:11.887',57.83682304
'0:11.891',99.08046099
'0:11.895',107.4302368
'0:11.898',125.7518787
'0:11.902',150.295965
'0:11.906',138.9679252
'0:11.910',-35.44665982
'0:11.914',-208.2657462
'0:11.918',-276.47331
'0:11.922',-196.67179
'0:11.926',-113.6260896
'0:11.930',-56.48064926
'0:11.934',11.46099804
'0:11.938',64.56450867
'0:11.941',35.71257625
'0:11.945',9.5729914
'0:11.949',14.14675396
'0:11.953',25.74071021
'0:11.957',28.98489063
'0:11.961',20.34260673
'0:11.965',11.72691447
'0:11.969',14.14675396
'0:11.973',38.95675667
'0:11.977',42.46685352
'0:11.980',37.06875003
'0:11.984',14.97109488
'0:11.988',16.0347606
'0:11.992',21.43286408
'0:11.996',24.11862
'0:12.000',20.90103122
'0:12.004',0.66479107
'0:12.008',1.22321557
'0:12.012',4.44080434
'0:12.016',21.69878051
'0:12.020',19.27894101
'0:12.023',2.02096485
'0:12.027',18.74710816
'0:12.031',19.81077387
'0:12.035',35.71257625
'0:12.039',19.27894101
'0:12.043',19.81077387
'0:12.047',19.54485744
'0:12.051',19.27894101
'0:12.055',19.01302459
'0:12.059',34.64891054
'0:12.063',19.01302459
'0:12.066',20.34260673
'0:12.070',35.71257625
'0:12.074',49.19453914
'0:12.078',48.92862271
'0:12.082',51.61437863
'0:12.086',53.50238527
'0:12.090',67.54277266
'0:12.094',79.93447819
'0:12.098',95.30444772
'0:12.102',98.81454456
'0:12.105',102.2980498
'0:12.109',116.6043536
'0:12.113',127.3739689
'0:12.117',141.6802727
'0:12.121',145.7222024
'0:12.125',150.5618814
'0:12.129',149.7641321
'0:12.133',160.0019146
'0:12.137',156.7577342
'0:12.141',160.5337475
'0:12.145',165.6659345
'0:12.148',165.1341017
'0:12.152',160.267831
'0:12.156',157.0502423
'0:12.160',159.4700817
'0:12.164',148.1420419
'0:12.168',133.5698217
'0:12.172',113.892006
'0:12.176',109.3182435
'0:12.180',93.68235751
'0:12.184',51.61437863
'0:12.188',39.2226731
'0:12.191',33.82456961
'0:12.195',10.92916518
'0:12.199',-4.17488792
'0:12.203',-13.08308825
'0:12.207',-25.74071021
'0:12.211',-45.97695036
'0:12.215',-52.43871956
'0:12.219',-68.8723548
'0:12.223',-78.31238798
'0:12.227',-74.27045828
'0:12.230',-78.31238798
'0:12.234',-84.50824075
'0:12.238',-100.1441267
'0:12.242',-93.94827394
'0:12.246',-106.3665711
'0:12.250',-109.5841599
'0:12.254',-115.2481798
'0:12.258',-116.0725207
'0:12.262',-111.2062501
'0:12.266',-106.898404
'0:12.270',-108.7864106
'0:12.273',-98.25612007
'0:12.277',-99.87821028
'0:12.281',-95.30444772
'0:12.285',-75.09479921
'0:12.289',-76.69029777
'0:12.293',-80.73222748
'0:12.297',-81.82248483
'0:12.301',-63.20833488
'0:12.305',-60.52257896
'0:12.309',-60.52257896
'0:12.313',-47.3065325
'0:12.316',-49.19453914
'0:12.320',-31.67064655
'0:12.324',-28.98489063
'0:12.328',-27.62871685
'0:12.332',-29.51672348
'0:12.336',-31.67064655
'0:12.340',-47.04061608
'0:12.344',-44.35486015
'0:12.348',-43.8230273
'0:12.352',-30.60698084
'0:12.355',-32.7609039
'0:12.359',-30.87289727
'0:12.363',-27.62871685
'0:12.367',-27.36280042
'0:12.371',-14.70517846
'0:12.375',-1.75504842
'0:12.379',15.50292774
'0:12.383',19.81077387
'0:12.387',21.96469694
'0:12.391',35.1807434
'0:12.395',46.24286679
'0:12.398',46.77469965
'0:12.402',36.27100075
'0:12.406',39.75450595
'0:12.410',35.97849268
'0:12.414',30.34106441
'0:12.418',45.68444229
'0:12.422',50.28479649
'0:12.426',54.59264262
'0:12.430',52.97055241
'0:12.434',63.50084296
'0:12.438',61.05441182
'0:12.441',65.38884959
'0:12.445',70.22852858
'0:12.449',69.13827122
'0:12.453',79.66856176
'0:12.457',92.0602673
'0:12.461',110.9403337
'0:12.465',101.2343841
'0:12.469',103.1223907
'0:12.473',97.72428721
'0:12.477',107.9620697
'0:12.480',93.15052465
'0:12.484',84.77415718
'0:12.488',72.38245164
'0:12.492',66.71843173
'0:12.496',43.79643566
'0:12.500',28.98489063
'0:12.504',20.0766903
'0:12.508',22.78903786
'0:12.512',17.39093438
'0:12.516',11.46099804
'0:12.520',12.25874732
'0:12.523',3.11122221
'0:12.527',-8.77524212
'0:12.531',-13.08308825
'0:12.535',-20.34260673
'0:12.539',-20.90103122
'0:12.543',-30.04855634
'0:12.547',-24.94296093
'0:12.551',-28.7189742
'0:12.555',-20.0766903
'0:12.559',-21.69878051
'0:12.563',-15.23701131
'0:12.566',6.06289455
'0:12.570',18.74710816
'0:12.574',43.2646028
'0:12.578',72.9142845
'0:12.582',79.40264534
'0:12.586',102.5905578
'0:12.590',100.9684676
'0:12.594',109.3182435
'0:12.598',-33.02682033
'0:12.602',-178.3501481
'0:12.605',-314.4727675
'0:12.609',-236.8517622
'0:12.613',-123.0661228
'0:12.617',-60.25666254
'0:12.621',19.27894101
'0:12.625',58.90048875
'0:12.629',62.4105856
'0:12.633',17.92276723
'0:12.637',-3.90897149
'0:12.641',-12.81717182
'0:12.645',-8.48273405
'0:12.648',-18.18868366
'0:12.652',-28.1605497
'0:12.656',-36.27100075
'0:12.660',-16.59318509
'0:12.664',-11.99283089
'0:12.668',-16.59318509
'0:12.672',-39.2226731
'0:12.676',-49.75296364
'0:12.680',-20.0766903
'0:12.684',-17.12501795
'0:12.688',-16.59318509
'0:12.691',-34.38299411
'0:12.695',-30.87289727
'0:12.699',-38.15900739
'0:12.703',-35.44665982
'0:12.707',-16.85910152
'0:12.711',-32.7609039
'0:12.715',-44.88669301
'0:12.719',-37.86649932
'0:12.723',-22.23061336
'0:12.727',-18.48119173
'0:12.730',-30.60698084
'0:12.734',-26.29913471
'0:12.738',-22.78903786
'0:12.742',-24.41112807
'0:12.746',-18.18868366
'0:12.750',-12.81717182
'0:12.754',-9.83890783
'0:12.758',-7.95090119
'0:12.762',6.06289455
'0:12.766',13.34900467
'0:12.770',20.6351148
'0:12.773',23.58678714
'0:12.777',23.85270357
'0:12.781',36.53691718
'0:12.785',59.99074611
'0:12.789',68.34052194
'0:12.793',57.27839854
'0:12.797',72.9142845
'0:12.801',98.54862814
'0:12.805',105.2763138
'0:12.809',101.5003005
'0:12.813',123.5979556
'0:12.816',120.3803669
'0:12.820',128.7301427
'0:12.824',136.8140021
'0:12.828',134.3941626
'0:12.832',140.3240989
'0:12.836',151.3862223
'0:12.840',142.478022
'0:12.844',136.8140021
'0:12.848',136.0162528
'0:12.852',125.2200458
'0:12.855',118.7582767
'0:12.859',124.4222966
'0:12.863',118.4923602
'0:12.867',104.1860564
'0:12.871',79.93447819
'0:12.875',56.74656569
'0:12.879',58.90048875
'0:12.883',35.44665982
'0:12.887',23.32087072
'0:12.891',16.85910152
'0:12.895',8.21681762
'0:12.898',-6.88723548
'0:12.902',1.75504842
'0:12.906',-9.5729914
'0:12.910',-14.41267039
'0:12.914',-7.15315191
'0:12.918',-23.58678714
'0:12.922',-15.23701131
'0:12.926',-25.47479378
'0:12.930',-13.88083753
'0:12.934',-22.78903786
'0:12.938',-23.85270357
'0:12.941',-31.67064655
'0:12.945',-25.20887735
'0:12.949',-29.51672348
'0:12.953',-37.86649932
'0:12.957',-39.48858953
'0:12.961',-32.7609039
'0:12.965',-26.83096756
'0:12.969',-29.25080706
'0:12.973',-20.90103122
'0:12.977',-23.32087072
'0:12.980',-17.39093438
'0:12.984',-26.56505114
'0:12.988',-27.62871685
'0:12.992',-19.81077387
'0:12.996',-8.77524212
'0:13.000',-3.90897149
'0:13.004',-10.66324875
'0:13.008',-9.30707497
'0:13.012',-2.02096485
'0:13.016',-9.04115854
'0:13.020',-4.70672077
'0:13.023',4.44080434
'0:13.027',6.32881098
'0:13.031',14.67858681
'0:13.035',7.68498476
'0:13.039',-4.44080434
'0:13.043',4.70672077
'0:13.047',-9.30707497
'0:13.051',-16.0347606
'0:13.055',-23.05495429
'0:13.059',-21.43286408
'0:13.063',-29.25080706
'0:13.066',-40.84476331
'0:13.070',-30.87289727
'0:13.074',-39.2226731
'0:13.078',-38.69084024
'0:13.082',-45.68444229
'0:13.086',-40.57884688
'0:13.090',-45.97695036
'0:13.094',-38.69084024
'0:13.098',-39.48858953
'0:13.102',-46.50878322
'0:13.105',-39.75450595
'0:13.109',-44.62077658
'0:13.113',-38.15900739
'0:13.117',-40.04701402
'0:13.121',-31.67064655
'0:13.125',-24.41112807
'0:13.129',3.37713863
'0:13.133',9.30707497
'0:13.137',7.95090119
'0:13.141',1.75504842
'0:13.145',9.04115854
'0:13.148',19.81077387
'0:13.152',24.94296093
'0:13.156',7.95090119
'0:13.160',2.55279771
'0:13.164',-5.5310617
'0:13.168',-11.19508161
'0:13.172',-22.52312143
'0:13.176',-24.6770445
'0:13.180',-15.76884417
'0:13.184',-7.68498476
'0:13.188',-10.92916518
'0:13.191',-4.99922884
'0:13.195',-8.48273405
'0:13.199',-0.95729914
'0:13.203',7.41906834
'0:13.207',5.5310617
'0:13.211',12.52466375
'0:13.215',7.95090119
'0:13.219',-1.22321557
'0:13.223',7.41906834
'0:13.227',5.79697813
'0:13.230',-2.81871413
'0:13.234',8.21681762
'0:13.238',13.08308825
'0:13.242',6.06289455
'0:13.246',22.78903786
'0:13.250',45.15260944
'0:13.254',54.06080977
'0:13.258',75.06820756
'0:13.262',85.5984981
'0:13.266',88.0183376
'0:13.270',-27.89463327
'0:13.273',-171.3299544
'0:13.277',-310.4308378
'0:13.281',-267.0332768
'0:13.285',-188.0560977
'0:13.289',-130.8840658
'0:13.293',-84.80074882
'0:13.297',-35.44665982
'0:13.301',-20.6351148
'0:13.305',-66.71843173
'0:13.309',-89.37451138
'0:13.313',-97.45837078
'0:13.316',-86.68875546
'0:13.320',-103.1223907
'0:13.324',-113.0942567
'0:13.328',-119.5560259
'0:13.332',-99.08046099
'0:13.336',-90.17226066
'0:13.340',-87.48650474
'0:13.344',-94.21419036
'0:13.348',-100.7025512
'0:13.352',-83.17865861
'0:13.355',-76.15846492
'0:13.359',-72.38245164
'0:13.363',-75.89254849
'0:13.367',-82.08840126
'0:13.371',-66.98434816
'0:13.375',-46.50878322
'0:13.379',-42.20093709
'0:13.383',-42.46685352
'0:13.387',-46.77469965
'0:13.391',-49.19453914
'0:13.395',-31.13881369
'0:13.398',-27.89463327
'0:13.402',-26.56505114
'0:13.406',-28.98489063
'0:13.410',-16.0347606
'0:13.414',-16.0347606
'0:13.418',-12.25874732
'0:13.422',-10.10482426
'0:13.426',3.37713863
'0:13.430',-0.39887464
'0:13.434',15.76884417
'0:13.438',34.64891054
'0:13.441',36.80283361
'0:13.445',36.53691718
'0:13.449',49.46045557
'0:13.453',63.20833488
'0:13.457',80.46631105
'0:13.461',83.97640789
'0:13.465',101.2343841
'0:13.469',113.892006
'0:13.473',126.5762196
'0:13.477',128.1983098
'0:13.480',147.8761255
'0:13.484',148.9397912
'0:13.488',161.8899212
'0:13.492',158.9116572
'0:13.496',175.6378006
'0:13.500',163.246095
'0:13.504',165.4000181
'0:13.508',162.4217541
'0:13.512',174.0157103
'0:13.516',173.2179611
'0:13.520',162.1558377
'0:13.523',165.6659345
'0:13.527',147.0517846
'0:13.531',142.2121056
'0:13.535',140.3240989
'0:13.539',128.1983098
'0:13.543',101.2343841
'0:13.547',85.06666525
'0:13.551',78.57830441
'0:13.555',73.73862542
'0:13.559',61.32032825
'0:13.563',36.80283361
'0:13.566',38.15900739
'0:13.570',30.34106441
'0:13.574',24.11862
'0:13.578',11.99283089
'0:13.582',4.44080434
'0:13.586',-9.30707497
'0:13.590',-16.59318509
'0:13.594',-23.85270357
'0:13.598',-21.96469694
'0:13.602',-44.88669301
'0:13.605',-55.94881641
'0:13.609',-47.04061608
'0:13.613',-72.38245164
'0:13.617',-70.76036143
'0:13.621',-61.87875275
'0:13.625',-57.57090662
'0:13.629',-62.67650203
'0:13.633',-54.59264262
'0:13.637',-54.85855905
'0:13.641',-62.67650203
'0:13.645',-72.11653522
'0:13.648',-60.78849539
'0:13.652',-70.49444501
'0:13.656',-56.21473283
'0:13.660',-63.76675938
'0:13.664',-55.94881641
'0:13.668',-59.45891325
'0:13.672',-53.23646884
'0:13.676',-56.48064926
'0:13.680',-48.66270628
'0:13.684',-40.57884688
'0:13.688',-42.46685352
'0:13.691',-51.08254578
'0:13.695',-39.48858953
'0:13.699',-34.38299411
'0:13.703',-41.64251259
'0:13.707',-40.84476331
'0:13.711',-48.66270628
'0:13.715',-39.2226731
'0:13.719',-36.27100075
'0:13.723',-42.73276995
'0:13.727',-39.48858953
'0:13.730',-31.13881369
'0:13.734',-39.2226731
'0:13.738',-36.53691718
'0:13.742',-42.99868637
'0:13.746',-38.95675667
'0:13.750',-45.97695036
'0:13.754',-38.69084024
'0:13.758',-37.86649932
'0:13.762',-43.8230273
'0:13.766',-53.50238527
'0:13.770',-43.8230273
'0:13.773',-54.3267262
'0:13.777',-69.96261215
'0:13.781',-59.99074611
'0:13.785',-69.96261215
'0:13.789',-59.45891325
'0:13.793',-69.43077929
'0:13.797',-69.96261215
'0:13.801',-61.05441182
'0:13.805',-70.22852858
'0:13.809',-73.73862542
'0:13.813',-67.80868909
'0:13.816',-70.76036143
'0:13.820',-62.67650203
'0:13.824',-54.85855905
'0:13.828',-41.37659616
'0:13.832',-19.54485744
'0:13.836',-7.68498476
'0:13.840',-14.97109488
'0:13.844',-20.34260673
'0:13.848',-6.59472741
'0:13.852',-3.11122221
'0:13.855',-8.48273405
'0:13.859',-15.23701131
'0:13.863',-19.54485744
'0:13.867',-36.53691718
'0:13.871',-48.66270628
'0:13.875',-56.21473283
'0:13.879',-49.75296364
'0:13.883',-38.69084024
'0:13.887',-37.33466646
'0:13.891',-31.40473012
'0:13.895',-38.95675667
'0:13.898',-33.82456961
'0:13.902',-23.85270357
'0:13.906',-37.06875003
'0:13.910',-29.25080706
'0:13.914',-37.60058289
'0:13.918',-34.91482697
'0:13.922',-40.57884688
'0:13.926',-36.53691718
'0:13.930',-28.45305777
'0:13.934',-37.33466646
'0:13.938',-35.1807434
'0:13.941',-10.10482426
'0:13.945',-6.06289455
'0:13.949',34.91482697
'0:13.953',57.54431497
'0:13.957',75.36071563
'0:13.961',101.7662169
'0:13.965',122.8002064
'0:13.969',86.13033096
'0:13.973',-75.09479921
'0:13.977',-226.8533045
'0:13.980',-257.5932436
'0:13.984',-147.3442926
'0:13.988',-69.16486287
'0:13.992',-12.52466375
'0:13.996',59.72482968
'0:14.000',84.77415718
'0:14.004',39.48858953
'0:14.008',7.68498476
'0:14.012',8.48273405
'0:14.016',7.41906834
'0:14.020',0.9307075
'0:14.023',-7.15315191
'0:14.027',-21.96469694
'0:14.031',-8.48273405
'0:14.035',18.74710816
'0:14.039',13.6149211
'0:14.043',10.92916518
'0:14.047',-1.489132
'0:14.051',-7.15315191
'0:14.055',16.0347606
'0:14.059',10.63665711
'0:14.063',11.19508161
'0:14.066',1.489132
'0:14.070',9.83890783
'0:14.074',13.88083753
'0:14.078',24.11862
'0:14.082',27.09688399
'0:14.086',19.54485744
'0:14.090',11.99283089
'0:14.094',29.25080706
'0:14.098',37.33466646
'0:14.102',41.64251259
'0:14.105',21.69878051
'0:14.109',30.60698084
'0:14.113',44.35486015
'0:14.117',50.01888007
'0:14.121',40.84476331
'0:14.125',24.94296093
'0:14.129',33.02682033
'0:14.133',11.99283089
'0:14.137',16.30067702
'0:14.141',23.32087072
'0:14.145',39.2226731
'0:14.148',47.864957
'0:14.152',59.43232161
'0:14.156',63.76675938
'0:14.160',71.31878593
'0:14.164',72.11653522
'0:14.168',65.65476602
'0:14.172',75.89254849
'0:14.176',93.68235751
'0:14.180',100.4100431
'0:14.184',88.55017045
'0:14.188',100.1441267
'0:14.191',108.2279861
'0:14.195',107.6961533
'0:14.199',99.61229385
'0:14.203',105.2763138
'0:14.207',100.7025512
'0:14.211',107.9620697
'0:14.215',106.074063
'0:14.219',98.25612007
'0:14.223',105.0103973
'0:14.227',85.86441453
'0:14.230',92.59210015
'0:14.234',89.10859495
'0:14.238',80.20039462
'0:14.242',57.27839854
'0:14.246',55.94881641
'0:14.250',45.15260944
'0:14.254',24.11862
'0:14.258',30.60698084
'0:14.262',23.32087072
'0:14.266',7.68498476
'0:14.270',-0.95729914
'0:14.273',-7.41906834
'0:14.277',-3.64305506
'0:14.281',4.70672077
'0:14.285',-8.77524212
'0:14.289',0.66479107
'0:14.293',-6.88723548
'0:14.297',-4.70672077
'0:14.301',-11.99283089
'0:14.305',-8.21681762
'0:14.309',-14.41267039
'0:14.313',-21.96469694
'0:14.316',-21.16694765
'0:14.320',-13.6149211
'0:14.324',-24.94296093
'0:14.328',-28.7189742
'0:14.332',-20.90103122
'0:14.336',-37.86649932
'0:14.340',-30.34106441
'0:14.344',-40.57884688
'0:14.348',-43.8230273
'0:14.352',-51.64097028
'0:14.355',-53.79489334
'0:14.359',-63.50084296
'0:14.363',-57.01248212
'0:14.367',-59.45891325
'0:14.371',-66.98434816
'0:14.375',-69.16486287
'0:14.379',-79.40264534
'0:14.383',-88.55017045
'0:14.387',-90.17226066
'0:14.391',-82.62023411
'0:14.395',-102.0321333
'0:14.398',-95.57036415
'0:14.402',-88.84267852
'0:14.406',-90.43817709
'0:14.410',-97.45837078
'0:14.414',-100.4366348
'0:14.418',-80.20039462
'0:14.422',-90.17226066
'0:14.426',-89.37451138
'0:14.430',-79.40264534
'0:14.434',-83.97640789
'0:14.438',-80.73222748
'0:14.441',-74.27045828
'0:14.445',-72.9142845
'0:14.449',-62.4105856
'0:14.453',-67.54277266
'0:14.457',-64.56450867
'0:14.461',-58.10273947
'0:14.465',-56.48064926
'0:14.469',-61.34691989
'0:14.473',-50.55071292
'0:14.477',-49.19453914
'0:14.480',-58.63457233
'0:14.484',-55.12447548
'0:14.488',-59.72482968
'0:14.492',-50.28479649
'0:14.496',-50.28479649
'0:14.500',-43.53051923
'0:14.504',-38.95675667
'0:14.508',-42.46685352
'0:14.512',-33.29273676
'0:14.516',-34.64891054
'0:14.520',-28.45305777
'0:14.523',-23.05495429
'0:14.527',5.5310617
'0:14.531',29.25080706
'0:14.535',43.79643566
'0:14.539',51.61437863
'0:14.543',58.90048875
'0:14.547',55.94881641
'0:14.551',78.57830441
'0:14.555',74.53637471
'0:14.559',66.71843173
'0:14.563',60.25666254
'0:14.566',42.46685352
'0:14.570',32.2024794
'0:14.574',26.27254307
'0:14.578',31.93656298
'0:14.582',25.47479378
'0:14.586',42.20093709
'0:14.590',32.7609039
'0:14.594',26.83096756
'0:14.598',31.67064655
'0:14.602',24.6770445
'0:14.605',26.00662664
'0:14.609',33.29273676
'0:14.613',26.27254307
'0:14.617',30.34106441
'0:14.621',24.11862
'0:14.625',26.56505114
'0:14.629',18.45460009
'0:14.633',26.56505114
'0:14.637',28.7189742
'0:14.641',53.50238527
'0:14.645',57.27839854
'0:14.648',67.54277266
'0:14.652',106.3665711
'0:14.656',137.345835
'0:14.660',146.5199517
'0:14.664',139.5263497
'0:14.668',151.9180552
'0:14.672',48.13087343
'0:14.676',-91.79435087
'0:14.680',-255.1734041
'0:14.684',-240.8936919
'0:14.688',-137.638343
'0:14.691',-74.27045828
'0:14.695',-26.29913471
'0:14.699',18.45460009
'0:14.703',38.95675667
'0:14.707',0.66479107
'0:14.711',-32.7609039
'0:14.715',-39.2226731
'0:14.719',-17.92276723
'0:14.723',-13.34900467
'0:14.727',-30.04855634
'0:14.730',-29.78263991
'0:14.734',-8.77524212
'0:14.738',-6.32881098
'0:14.742',17.6568508
'0:14.746',4.70672077
'0:14.750',5.26514527
'0:14.754',7.15315191
'0:14.758',23.32087072
'0:14.762',16.56659345
'0:14.766',7.68498476
'0:14.770',8.21681762
'0:14.773',21.69878051
'0:14.777',34.91482697
'0:14.781',31.13881369
'0:14.785',26.83096756
'0:14.789',27.36280042
'0:14.793',36.80283361
'0:14.797',47.3065325
'0:14.801',45.15260944
'0:14.805',60.25666254
'0:14.809',45.68444229
'0:14.813',53.50238527
'0:14.816',61.32032825
'0:14.820',74.53637471
'0:14.824',75.89254849
'0:14.828',64.29859224
'0:14.832',55.68289998
'0:14.836',60.52257896
'0:14.840',56.21473283
'0:14.844',59.16640518
'0:14.848',49.726372
'0:14.852',56.21473283
'0:14.855',58.63457233
'0:14.859',69.69669572
'0:14.863',58.90048875
'0:14.867',67.80868909
'0:14.871',72.64836807
'0:14.875',88.28425402
'0:14.879',98.54862814
'0:14.883',90.99660159
'0:14.887',86.66216382
'0:14.891',75.36071563
'0:14.895',87.48650474
'0:14.898',79.66856176
'0:14.902',89.10859495
'0:14.906',71.58470236
'0:14.910',61.61283632
'0:14.914',71.31878593
'0:14.918',76.42438135
'0:14.922',55.12447548
'0:14.926',42.20093709
'0:14.930',32.7609039
'0:14.934',7.68498476
'0:14.938',-4.99922884
'0:14.941',-41.37659616
'0:14.945',-52.97055241
'0:14.949',-78.04647155
'0:14.953',-104.1860564
'0:14.957',-117.9605274
'0:14.961',-123.3320392
'0:14.965',-119.0241931
'0:14.969',-110.9403337
'0:14.973',-104.7444809
'0:14.977',-102.8564743
'0:14.980',-91.79435087
'0:14.984',-71.02627786
'0:14.988',-62.4105856
'0:14.992',-40.04701402
'0:14.996',-23.58678714
'0:15.000',-12.81717182
'0:15.004',-5.5310617
'0:15.008',4.44080434
'0:15.012',9.5729914
'0:15.016',23.85270357
'0:15.020',18.18868366
'0:15.023',27.09688399
'0:15.027',37.86649932
'0:15.031',41.90842902
'0:15.035',39.2226731
'0:15.039',49.46045557
'0:15.043',42.73276995
'0:15.047',39.48858953
'0:15.051',43.53051923
'0:15.055',38.69084024
'0:15.059',47.04061608
'0:15.063',41.64251259
'0:15.066',40.84476331
'0:15.070',44.88669301
'0:15.074',38.15900739
'0:15.078',29.78263991
'0:15.082',41.11067974
'0:15.086',40.57884688
'0:15.090',29.78263991
'0:15.094',38.69084024
'0:15.098',28.45305777
'0:15.102',24.11862
'0:15.105',25.47479378
'0:15.109',30.60698084
'0:15.113',21.96469694
'0:15.117',11.99283089
'0:15.121',7.95090119
'0:15.125',9.83890783
'0:15.129',14.67858681
'0:15.133',5.5310617
'0:15.137',-4.70672077
'0:15.141',-7.95090119
'0:15.145',-5.79697813
'0:15.148',-1.22321557
'0:15.152',4.70672077
'0:15.156',-6.06289455
'0:15.160',7.41906834
'0:15.164',-4.99922884
'0:15.168',0.66479107
'0:15.172',4.99922884
'0:15.176',7.95090119
'0:15.180',5.5310617
'0:15.184',11.99283089
'0:15.188',2.55279771
'0:15.191',6.32881098
'0:15.195',-8.77524212
'0:15.199',4.17488792
'0:15.203',-4.70672077
'0:15.207',-11.72691447
'0:15.211',-8.21681762
'0:15.215',-9.83890783
'0:15.219',16.85910152
'0:15.223',9.5729914
'0:15.227',6.32881098
'0:15.230',-4.70672077
'0:15.234',6.59472741
'0:15.238',-1.489132
'0:15.242',-7.15315191
'0:15.246',-23.32087072
'0:15.250',-18.48119173
'0:15.254',-41.64251259
'0:15.258',-50.55071292
'0:15.262',-55.39039191
'0:15.266',-55.39039191
'0:15.270',-66.18659888
'0:15.273',-57.57090662
'0:15.277',-68.07460551
'0:15.281',-56.74656569
'0:15.285',-55.12447548
'0:15.289',-64.56450867
'0:15.293',-56.48064926
'0:15.297',-52.97055241
'0:15.301',-58.10273947
'0:15.305',-54.06080977
'0:15.309',-46.77469965
'0:15.313',-55.94881641
'0:15.316',-53.23646884
'0:15.320',-42.73276995
'0:15.324',-38.69084024
'0:15.328',-30.04855634
'0:15.332',-7.68498476
'0:15.336',24.11862
'0:15.340',49.726372
'0:15.344',72.9142845
'0:15.348',99.87821028
'0:15.352',121.4440326
'0:15.355',58.90048875
'0:15.359',-83.44457504
'0:15.363',-245.4674545
'0:15.367',-243.047615
'0:15.371',-164.5756772
'0:15.375',-95.57036415
'0:15.379',-51.9068867
'0:15.383',10.63665711
'0:15.387',36.27100075
'0:15.391',5.5310617
'0:15.395',-22.78903786
'0:15.398',-17.6568508
'0:15.402',-8.77524212
'0:15.406',-28.1605497
'0:15.410',-54.06080977
'0:15.414',-52.70463599
'0:15.418',-53.79489334
'0:15.422',-45.41852587
'0:15.426',-43.8230273
'0:15.430',-65.92068245
'0:15.434',-81.5565684
'0:15.438',-71.31878593
'0:15.441',-65.38884959
'0:15.445',-76.15846492
'0:15.449',-78.04647155
'0:15.453',-95.03853129
'0:15.457',-104.1860564
'0:15.461',-83.97640789
'0:15.465',-77.78055513
'0:15.469',-92.0602673
'0:15.473',-107.1643204
'0:15.477',-103.6542236
'0:15.480',-87.22058831
'0:15.484',-79.93447819
'0:15.488',-74.53637471
'0:15.492',-88.28425402
'0:15.496',-86.39624739
'0:15.500',-72.38245164
'0:15.504',-49.75296364
'0:15.508',-42.73276995
'0:15.512',-38.69084024
'0:15.516',-21.96469694
'0:15.520',-9.83890783
'0:15.523',-2.02096485
'0:15.527',-7.95090119
'0:15.531',-19.01302459
'0:15.535',-20.90103122
'0:15.539',3.90897149
'0:15.543',26.56505114
'0:15.547',38.69084024
'0:15.551',61.87875275
'0:15.555',75.36071563
'0:15.559',83.17865861
'0:15.563',60.52257896
'0:15.566',28.1605497
'0:15.570',48.92862271
'0:15.574',40.57884688
'0:15.578',62.14466917
'0:15.582',73.20679257
'0:15.586',91.52843444
'0:15.590',97.99020364
'0:15.594',90.17226066
'0:15.598',110.1159928
'0:15.602',103.92014
'0:15.605',107.6961533
'0:15.609',115.2481798
'0:15.613',106.3665711
'0:15.617',109.052327
'0:15.621',103.1223907
'0:15.625',76.42438135
'0:15.629',54.3267262
'0:15.633',44.08894373
'0:15.637',26.83096756
'0:15.641',20.0766903
'0:15.645',11.19508161
'0:15.648',6.59472741
'0:15.652',-3.64305506
'0:15.656',-21.43286408
'0:15.660',-13.08308825
'0:15.664',-22.23061336
'0:15.668',-9.83890783
'0:15.672',-19.27894101
'0:15.676',-21.43286408
'0:15.680',-29.25080706
'0:15.684',-22.23061336
'0:15.688',-25.74071021
'0:15.691',-19.01302459
'0:15.695',-21.96469694
'0:15.699',-14.41267039
'0:15.703',-22.52312143
'0:15.707',-23.85270357
'0:15.711',-17.6568508
'0:15.715',-22.52312143
'0:15.719',-16.0347606
'0:15.723',-7.41906834
'0:15.727',-7.68498476
'0:15.730',-0.39887464
'0:15.734',-5.79697813
'0:15.738',-31.40473012
'0:15.742',-22.23061336
'0:15.746',-38.95675667
'0:15.750',-47.864957
'0:15.754',-53.50238527
'0:15.758',-64.29859224
'0:15.762',-55.68289998
'0:15.766',-55.39039191
'0:15.770',-47.57244893
'0:15.773',-37.86649932
'0:15.777',-33.55865319
'0:15.781',-39.75450595
'0:15.785',-21.69878051
'0:15.789',-30.34106441
'0:15.793',-21.43286408
'0:15.797',-33.55865319
'0:15.801',-23.85270357
'0:15.805',-21.69878051
'0:15.809',-29.25080706
'0:15.813',-36.27100075
'0:15.816',-33.55865319
'0:15.820',-25.47479378
'0:15.824',-38.15900739
'0:15.828',-27.89463327
'0:15.832',-35.1807434
'0:15.836',-34.11707768
'0:15.840',-26.56505114
'0:15.844',-22.52312143
'0:15.848',-27.09688399
'0:15.852',-33.55865319
'0:15.855',-33.55865319
'0:15.859',-42.99868637
'0:15.863',-38.69084024
'0:15.867',-42.46685352
'0:15.871',-33.55865319
'0:15.875',-50.01888007
'0:15.879',-42.99868637
'0:15.883',-54.06080977
'0:15.887',-41.93502066
'0:15.891',-49.46045557
'0:15.895',-50.01888007
'0:15.898',-58.90048875
'0:15.902',-53.50238527
'0:15.906',-41.93502066
'0:15.910',-34.11707768
'0:15.914',-34.91482697
'0:15.918',-26.83096756
'0:15.922',-21.16694765
'0:15.926',-24.6770445
'0:15.930',-16.85910152
'0:15.934',-19.01302459
'0:15.938',3.37713863
'0:15.941',24.94296093
'0:15.945',23.05495429
'0:15.949',17.6568508
'0:15.953',15.76884417
'0:15.957',19.54485744
'0:15.961',23.58678714
'0:15.965',22.78903786
'0:15.969',18.45460009
'0:15.973',0.9307075
'0:15.977',-11.46099804
'0:15.980',-23.58678714
'0:15.984',-25.20887735
'0:15.988',-30.34106441
'0:15.992',-16.85910152
'0:15.996',-13.6149211
'0:16.000',-24.11862
'0:16.004',-23.32087072
'0:16.008',-28.7189742
'0:16.012',-17.12501795
'0:16.016',-15.50292774
'0:16.020',-9.30707497
'0:16.023',-6.88723548
'0:16.027',-11.19508161
'0:16.031',-15.76884417
'0:16.035',-15.23701131
'0:16.039',-10.37074068
'0:16.043',-7.68498476
'0:16.047',4.70672077
'0:16.051',15.50292774
'0:16.055',31.40473012
'0:16.059',67.80868909
'0:16.063',86.39624739
'0:16.066',100.9684676
'0:16.070',113.6260896
'0:16.074',143.8341958
'0:16.078',84.77415718
'0:16.082',-63.20833488
'0:16.086',-232.251408
'0:16.090',-244.6697052
'0:16.094',-158.6457408
'0:16.098',-117.9605274
'0:16.102',-47.3065325
'0:16.105',37.60058289
'0:16.109',47.57244893
'0:16.113',11.99283089
'0:16.117',-41.11067974
'0:16.121',-57.27839854
'0:16.125',-29.25080706
'0:16.129',9.04115854
'0:16.133',7.68498476
'0:16.137',7.41906834
'0:16.141',8.48273405
'0:16.145',19.81077387
'0:16.148',10.63665711
'0:16.152',-5.5310617
'0:16.156',-7.95090119
'0:16.160',5.79697813
'0:16.164',16.56659345
'0:16.168',11.19508161
'0:16.172',12.81717182
'0:16.176',8.74865047
'0:16.180',19.81077387
'0:16.184',30.87289727
'0:16.188',42.99868637
'0:16.191',30.60698084
'0:16.195',41.90842902
'0:16.199',50.28479649
'0:16.203',45.41852587
'0:16.207',59.99074611
'0:16.211',63.76675938
'0:16.215',57.54431497
'0:16.219',65.38884959
'0:16.223',76.15846492
'0:16.227',75.89254849
'0:16.230',80.73222748
'0:16.234',89.64042781
'0:16.238',79.93447819
'0:16.242',106.898404
'0:16.246',107.1643204
'0:16.250',113.3601732
'0:16.254',106.3665711
'0:16.258',111.738083
'0:16.262',105.8081466
'0:16.266',107.4302368
'0:16.270',98.25612007
'0:16.273',106.3665711
'0:16.277',93.68235751
'0:16.281',104.1860564
'0:16.285',106.898404
'0:16.289',114.1845141
'0:16.293',106.074063
'0:16.297',109.3182435
'0:16.301',118.4923602
'0:16.305',121.709949
'0:16.309',130.3522329
'0:16.313',106.898404
'0:16.316',109.8500763
'0:16.320',117.4021029
'0:16.324',104.1860564
'0:16.328',98.81454456
'0:16.332',92.0602673
'0:16.336',92.32618373
'0:16.340',83.44457504
'0:16.344',72.11653522
'0:16.348',68.07460551
'0:16.352',44.88669301
'0:16.355',43.79643566
'0:16.359',33.82456961
'0:16.363',22.78903786
'0:16.367',20.0766903
'0:16.371',-2.55279771
'0:16.375',-4.17488792
'0:16.379',-15.50292774
'0:16.383',-26.00662664
'0:16.387',-12.25874732
'0:16.391',-19.27894101
'0:16.395',-21.16694765
'0:16.398',-15.76884417
'0:16.402',-26.00662664
'0:16.406',-11.72691447
'0:16.410',-18.74710816
'0:16.414',-5.79697813
'0:16.418',-16.59318509
'0:16.422',-9.5729914
'0:16.426',-10.66324875
'0:16.430',-17.6568508
'0:16.434',-21.16694765
'0:16.438',-17.12501795
'0:16.441',-11.19508161
'0:16.445',-11.19508161
'0:16.449',-16.59318509
'0:16.453',-20.0766903
'0:16.457',-17.39093438
'0:16.461',-27.62871685
'0:16.465',-11.19508161
'0:16.469',-16.59318509
'0:16.473',-4.44080434
'0:16.477',-17.6568508
'0:16.480',-11.19508161
'0:16.484',-10.37074068
'0:16.488',-31.40473012
'0:16.492',-19.54485744
'0:16.496',-34.11707768
'0:16.500',-28.1605497
'0:16.504',-26.83096756
'0:16.508',-30.87289727
'0:16.512',-35.1807434
'0:16.516',-49.19453914
'0:16.520',-44.08894373
'0:16.523',-58.63457233
'0:16.527',-46.77469965
'0:16.531',-51.64097028
'0:16.535',-50.01888007
'0:16.539',-44.62077658
'0:16.543',-57.83682304
'0:16.547',-45.41852587
'0:16.551',-51.08254578
'0:16.555',-50.55071292
'0:16.559',-45.15260944
'0:16.563',-57.27839854
'0:16.566',-59.72482968
'0:16.570',-50.28479649
'0:16.574',-51.9068867
'0:16.578',-61.87875275
'0:16.582',-56.21473283
'0:16.586',-43.2646028
'0:16.590',-50.55071292
'0:16.594',-51.64097028
'0:16.598',-45.41852587
'0:16.602',-40.57884688
'0:16.605',-27.62871685
'0:16.609',-33.82456961
'0:16.613',-19.27894101
'0:16.617',-29.51672348
'0:16.621',-24.11862
'0:16.625',-10.92916518
'0:16.629',-2.28688128
'0:16.633',11.46099804
'0:16.637',2.02096485
'0:16.641',9.30707497
'0:16.645',6.86064384
'0:16.648',-0.95729914
'0:16.652',-4.17488792
'0:16.656',1.22321557
'0:16.660',7.68498476
'0:16.664',6.59472741
'0:16.668',31.13881369
'0:16.672',42.46685352
'0:16.676',47.57244893
'0:16.680',55.94881641
'0:16.684',56.48064926
'0:16.688',64.56450867
'0:16.691',74.00454185
'0:16.695',62.4105856
'0:16.699',56.48064926
'0:16.703',42.73276995
'0:16.707',34.38299411
'0:16.711',26.00662664
'0:16.715',13.08308825
'0:16.719',7.15315191
'0:16.723',10.10482426
'0:16.727',17.6568508
'0:16.730',9.30707497
'0:16.734',12.25874732
'0:16.738',21.96469694
'0:16.742',25.47479378
'0:16.746',18.74710816
'0:16.750',11.19508161
'0:16.754',12.25874732
'0:16.758',20.0766903
'0:16.762',24.11862
'0:16.766',19.27894101
'0:16.770',28.1605497
'0:16.773',43.2646028
'0:16.777',65.09634152
'0:16.781',70.49444501
'0:16.785',115.5140962
'0:16.789',154.3378947
'0:16.793',168.6176069
'0:16.797',193.1616931
'0:16.801',200.7137197
'0:16.805',213.3713417
'0:16.809',65.38884959
'0:16.813',-87.48650474
'0:16.816',-254.9074877
'0:16.820',-184.5460009
'0:16.824',-98.54862814
'0:16.828',-41.37659616
'0:16.832',13.88083753
'0:16.836',68.60643837
'0:16.840',47.864957
'0:16.844',-5.79697813
'0:16.848',-16.0347606
'0:16.852',-4.17488792
'0:16.855',-2.28688128
'0:16.859',-2.02096485
'0:16.863',-18.48119173
'0:16.867',-29.78263991
'0:16.871',-6.06289455
'0:16.875',-6.59472741
'0:16.879',-17.92276723
'0:16.883',-30.04855634
'0:16.887',-42.73276995
'0:16.891',-39.75450595
'0:16.895',-26.00662664
'0:16.898',-19.81077387
'0:16.902',-44.08894373
'0:16.906',-54.85855905
'0:16.910',-54.85855905
'0:16.914',-45.15260944
'0:16.918',-23.05495429
'0:16.922',-43.53051923
'0:16.926',-51.34846221
'0:16.930',-37.33466646
'0:16.934',-0.66479107
'0:16.938',4.70672077
'0:16.941',5.5310617
'0:16.945',0.66479107
'0:16.949',-2.81871413
'0:16.953',14.67858681
'0:16.957',18.74710816
'0:16.961',20.90103122
'0:16.965',18.18868366
'0:16.969',14.67858681
'0:16.973',30.04855634
'0:16.977',33.02682033
'0:16.980',20.6351148
'0:16.984',20.34260673
'0:16.988',31.40473012
'0:16.992',28.7189742
'0:16.996',47.3065325
'0:17.000',51.34846221
'0:17.004',67.80868909
'0:17.008',64.03267581
'0:17.012',77.24872227
'0:17.016',78.84422084
'0:17.020',82.88615054
'0:17.023',84.24232432
'0:17.027',96.36811343
'0:17.031',108.2279861
'0:17.035',109.3182435
'0:17.039',99.34637742
'0:17.043',101.7662169
'0:17.047',112.8283403
'0:17.051',106.898404
'0:17.055',92.88460823
'0:17.059',99.61229385
'0:17.063',101.2343841
'0:17.066',95.83628057
'0:17.070',90.99660159
'0:17.074',92.32618373
'0:17.078',66.98434816
'0:17.082',54.3267262
'0:17.086',49.19453914
'0:17.090',26.56505114
'0:17.094',11.46099804
'0:17.098',-13.08308825
'0:17.102',-40.84476331
'0:17.105',-61.34691989
'0:17.109',-54.3267262
'0:17.113',-25.47479378
'0:17.117',-19.01302459
'0:17.121',-41.11067974
'0:17.125',-71.58470236
'0:17.129',-65.38884959
'0:17.133',-59.16640518
'0:17.137',-55.68289998
'0:17.141',-58.90048875
'0:17.145',-54.06080977
'0:17.148',-47.57244893
'0:17.152',-42.99868637
'0:17.156',-40.57884688
'0:17.160',-43.53051923
'0:17.164',-36.80283361
'0:17.168',-45.41852587
'0:17.172',-41.37659616
'0:17.176',-26.00662664
'0:17.180',-14.70517846
'0:17.184',9.5729914
'0:17.188',4.17488792
'0:17.191',-21.43286408
'0:17.195',-22.78903786
'0:17.199',-30.87289727
'0:17.203',-24.41112807
'0:17.207',-28.1605497
'0:17.211',-36.53691718
'0:17.215',-23.05495429
'0:17.219',-32.22907105
'0:17.223',-24.94296093
'0:17.227',-27.09688399
'0:17.230',-35.1807434
'0:17.234',-23.05495429
'0:17.238',-33.55865319
'0:17.242',-25.47479378
'0:17.246',-26.29913471
'0:17.250',-49.19453914
'0:17.254',-53.23646884
'0:17.258',-49.75296364
'0:17.262',-59.45891325
'0:17.266',-58.3686559
'0:17.270',-33.29273676
'0:17.273',-23.32087072
'0:17.277',-19.54485744
'0:17.281',-10.66324875
'0:17.285',-8.48273405
'0:17.289',0.39887464
'0:17.293',-21.96469694
'0:17.297',-33.82456961
'0:17.301',-26.29913471
'0:17.305',-25.74071021
'0:17.309',-16.85910152
'0:17.313',-37.60058289
'0:17.316',-48.66270628
'0:17.320',-72.38245164
'0:17.324',-41.37659616
'0:17.328',-4.70672077
'0:17.332',-9.83890783
'0:17.336',-0.66479107
'0:17.340',-5.5310617
'0:17.344',-6.59472741
'0:17.348',-18.48119173
'0:17.352',-9.30707497
'0:17.355',-18.74710816
'0:17.359',-22.52312143
'0:17.363',-21.43286408
'0:17.367',-17.12501795
'0:17.371',4.99922884
'0:17.375',10.10482426
'0:17.379',8.48273405
'0:17.383',-2.28688128
'0:17.387',2.55279771
'0:17.391',5.26514527
'0:17.395',23.05495429
'0:17.398',37.06875003
'0:17.402',29.51672348
'0:17.406',22.23061336
'0:17.410',24.38453643
'0:17.414',6.59472741
'0:17.418',3.64305506
'0:17.422',-17.92276723
'0:17.426',-23.58678714
'0:17.430',-53.79489334
'0:17.434',-57.57090662
'0:17.438',-47.57244893
'0:17.441',-37.60058289
'0:17.445',-40.31293045
'0:17.449',-35.71257625
'0:17.453',-40.57884688
'0:17.457',-48.13087343
'0:17.461',-37.86649932
'0:17.465',-39.75450595
'0:17.469',-34.91482697
'0:17.473',-40.31293045
'0:17.477',-48.39678986
'0:17.480',-37.86649932
'0:17.484',-23.85270357
'0:17.488',-34.64891054
'0:17.492',-39.2226731
'0:17.496',-16.59318509
'0:17.500',-8.21681762
'0:17.504',-8.21681762
'0:17.508',14.97109488
'0:17.512',40.04701402
'0:17.516',75.62663206
'0:17.520',85.5984981
'0:17.523',120.9121997
'0:17.527',144.3660286
'0:17.531',-17.12501795
'0:17.535',-162.9801786
'0:17.539',-297.241383
'0:17.543',-233.3416654
'0:17.547',-166.1977674
'0:17.551',-105.0103973
'0:17.555',-60.52257896
'0:17.559',9.30707497
'0:17.563',13.6149211
'0:17.566',-27.89463327
'0:17.570',-32.49498748
'0:17.574',-12.81717182
'0:17.578',-11.19508161
'0:17.582',-17.92276723
'0:17.586',-38.95675667
'0:17.590',-46.50878322
'0:17.594',-16.59318509
'0:17.598',-15.76884417
'0:17.602',-17.39093438
'0:17.605',-34.38299411
'0:17.609',-28.45305777
'0:17.613',-34.64891054
'0:17.617',-18.48119173
'0:17.621',-32.7609039
'0:17.625',-31.40473012
'0:17.629',-42.99868637
'0:17.633',-36.27100075
'0:17.637',-21.43286408
'0:17.641',-17.6568508
'0:17.645',-13.6149211
'0:17.648',-24.6770445
'0:17.652',-4.70672077
'0:17.656',7.95090119
'0:17.660',13.34900467
'0:17.664',4.99922884
'0:17.668',10.10482426
'0:17.672',26.00662664
'0:17.676',36.80283361
'0:17.680',28.7189742
'0:17.684',39.75450595
'0:17.688',43.53051923
'0:17.691',56.48064926
'0:17.695',66.18659888
'0:17.699',75.89254849
'0:17.703',73.20679257
'0:17.707',77.78055513
'0:17.711',88.28425402
'0:17.715',95.57036415
'0:17.719',106.074063
'0:17.723',106.074063
'0:17.727',111.4721665
'0:17.730',104.7444809
'0:17.734',126.0443868
'0:17.738',120.1144504
'0:17.742',122.2683735
'0:17.746',128.9960591
'0:17.750',136.2821692
'0:17.754',139.5263497
'0:17.758',150.295965
'0:17.762',154.0719783
'0:17.766',161.6240048
'0:17.770',152.7158045
'0:17.773',154.8697275
'0:17.777',164.5756772
'0:17.781',168.3516904
'0:17.785',161.8899212
'0:17.789',169.4419478
'0:17.793',169.4419478
'0:17.797',162.6876705
'0:17.801',152.7158045
'0:17.805',131.9743231
'0:17.809',122.5342899
'0:17.813',104.4785645
'0:17.816',96.36811343
'0:17.820',102.5905578
'0:17.824',83.17865861
'0:17.828',75.06820756
'0:17.832',56.74656569
'0:17.836',47.3065325
'0:17.840',37.33466646
'0:17.844',34.64891054
'0:17.848',26.56505114
'0:17.852',23.85270357
'0:17.855',29.51672348
'0:17.859',20.0766903
'0:17.863',34.91482697
'0:17.867',26.83096756
'0:17.871',39.2226731
'0:17.875',43.79643566
'0:17.879',51.08254578
'0:17.883',51.34846221
'0:17.887',60.25666254
'0:17.891',55.12447548
'0:17.895',59.16640518
'0:17.898',50.81662935
'0:17.902',36.53691718
'0:17.906',30.04855634
'0:17.910',23.58678714
'0:17.914',9.83890783
'0:17.918',2.02096485
'0:17.922',4.44080434
'0:17.926',-2.02096485
'0:17.930',6.59472741
'0:17.934',8.21681762
'0:17.938',16.30067702
'0:17.941',4.70672077
'0:17.945',15.76884417
'0:17.949',7.41906834
'0:17.953',7.41906834
'0:17.957',-0.39887464
'0:17.961',4.99922884
'0:17.965',0.13295821
'0:17.969',-7.68498476
'0:17.973',-8.48273405
'0:17.977',-1.75504842
'0:17.980',-11.99283089
'0:17.984',-14.41267039
'0:17.988',-22.23061336
'0:17.992',-24.6770445
'0:17.996',-50.01888007
'0:18.000',-89.64042781
'0:18.004',-106.898404
'0:18.008',-71.02627786
'0:18.012',14.14675396
'0:18.016',50.81662935
'0:18.020',37.33466646
'0:18.023',46.24286679
'0:18.027',18.18868366
'0:18.031',-13.34900467
'0:18.035',-43.53051923
'0:18.039',-44.35486015
'0:18.043',-21.96469694
'0:18.047',-1.75504842
'0:18.051',0.9307075
'0:18.055',4.17488792
'0:18.059',34.91482697
'0:18.063',41.37659616
'0:18.066',32.49498748
'0:18.070',20.90103122
'0:18.074',6.06289455
'0:18.078',2.02096485
'0:18.082',-7.41906834
'0:18.086',0.66479107
'0:18.090',4.17488792
'0:18.094',19.54485744
'0:18.098',31.13881369
'0:18.102',24.6770445
'0:18.105',20.0766903
'0:18.109',23.05495429
'0:18.113',18.74710816
'0:18.117',28.7189742
'0:18.121',23.58678714
'0:18.125',21.43286408
'0:18.129',9.30707497
'0:18.133',-11.99283089
'0:18.137',-35.1807434
'0:18.141',-24.94296093
'0:18.145',-27.89463327
'0:18.148',-39.2226731
'0:18.152',-43.53051923
'0:18.156',-51.64097028
'0:18.160',-42.20093709
'0:18.164',-28.7189742
'0:18.168',-23.58678714
'0:18.172',-27.62871685
'0:18.176',-34.91482697
'0:18.180',-40.84476331
'0:18.184',-74.00454185
'0:18.188',-84.24232432
'0:18.191',-45.15260944
'0:18.195',20.34260673
'0:18.199',46.77469965
'0:18.203',70.22852858
'0:18.207',66.18659888
'0:18.211',72.64836807
'0:18.215',85.5984981
'0:18.219',92.88460823
'0:18.223',116.6043536
'0:18.227',145.1637779
'0:18.230',167.5539412
'0:18.234',-4.44080434
'0:18.238',-145.1903696
'0:18.242',-298.0391323
'0:18.246',-239.8034346
'0:18.250',-159.7359982
'0:18.254',-110.4085008
'0:18.258',-28.98489063
'0:18.262',24.11862
'0:18.266',55.39039191
'0:18.270',-4.44080434
'0:18.273',-5.26514527
'0:18.277',3.37713863
'0:18.281',4.44080434
'0:18.285',-7.68498476
'0:18.289',-16.59318509
'0:18.293',-6.06289455
'0:18.297',14.14675396
'0:18.301',17.12501795
'0:18.305',11.19508161
'0:18.309',4.44080434
'0:18.313',-4.99922884
'0:18.316',10.63665711
'0:18.320',44.88669301
'0:18.324',42.20093709
'0:18.328',8.74865047
'0:18.332',-30.60698084
'0:18.336',-20.0766903
'0:18.340',7.68498476
'0:18.344',36.27100075
'0:18.348',39.2226731
'0:18.352',35.1807434
'0:18.355',29.78263991
'0:18.359',40.57884688
'0:18.363',67.54277266
'0:18.367',85.5984981
'0:18.371',82.08840126
'0:18.375',93.94827394
'0:18.379',89.37451138
'0:18.383',70.22852858
'0:18.387',72.38245164
'0:18.391',65.38884959
'0:18.395',58.90048875
'0:18.398',71.58470236
'0:18.402',85.5984981
'0:18.406',103.3883071
'0:18.410',127.3739689
'0:18.414',151.9180552
'0:18.418',150.295965
'0:18.422',167.8198576
'0:18.426',154.6038111
'0:18.430',129.8204
'0:18.434',105.0103973
'0:18.438',102.0321333
'0:18.441',86.66216382
'0:18.445',105.2763138
'0:18.449',156.7577342
'0:18.453',177.5258072
'0:18.457',194.5178669
'0:18.461',186.1414995
'0:18.465',160.0019146
'0:18.469',145.1637779
'0:18.473',144.3660286
'0:18.477',126.3103032
'0:18.480',120.6462833
'0:18.484',112.8283403
'0:18.488',113.0942567
'0:18.492',109.8500763
'0:18.496',122.8002064
'0:18.500',118.4923602
'0:18.504',114.1845141
'0:18.508',68.8723548
'0:18.512',48.66270628
'0:18.516',26.00662664
'0:18.520',4.44080434
'0:18.523',-14.14675396
'0:18.527',3.90897149
'0:18.531',12.25874732
'0:18.535',21.16694765
'0:18.539',19.54485744
'0:18.543',20.34260673
'0:18.547',-8.21681762
'0:18.551',-17.39093438
'0:18.555',-11.99283089
'0:18.559',-16.0347606
'0:18.563',-12.81717182
'0:18.566',-22.52312143
'0:18.570',-31.93656298
'0:18.574',-13.34900467
'0:18.578',-18.48119173
'0:18.582',-13.08308825
'0:18.586',-4.70672077
'0:18.590',-14.70517846
'0:18.594',-13.34900467
'0:18.598',-3.37713863
'0:18.602',1.75504842
'0:18.605',-3.90897149
'0:18.609',-12.52466375
'0:18.613',-12.81717182
'0:18.617',-4.99922884
'0:18.621',-15.23701131
'0:18.625',-18.48119173
'0:18.629',-11.19508161
'0:18.633',-29.25080706
'0:18.637',-21.69878051
'0:18.641',-15.76884417
'0:18.645',-18.74710816
'0:18.648',-26.29913471
'0:18.652',-28.1605497
'0:18.656',-38.15900739
'0:18.660',-32.22907105
'0:18.664',-50.01888007
'0:18.668',-56.74656569
'0:18.672',-59.72482968
'0:18.676',-71.02627786
'0:18.680',-65.09634152
'0:18.684',-65.92068245
'0:18.688',-72.11653522
'0:18.691',-75.09479921
'0:18.695',-86.68875546
'0:18.699',-96.36811343
'0:18.703',-96.92653793
'0:18.707',-88.28425402
'0:18.711',-107.9620697
'0:18.715',-87.22058831
'0:18.719',-96.92653793
'0:18.723',-96.102197
'0:18.727',-102.3246414
'0:18.730',-106.6324875
'0:18.734',-103.6542236
'0:18.738',-97.72428721
'0:18.742',-81.02473555
'0:18.746',-85.86441453
'0:18.750',-88.84267852
'0:18.754',-86.39624739
'0:18.758',-81.5565684
'0:18.762',-81.02473555
'0:18.766',-69.16486287
'0:18.770',-57.27839854
'0:18.773',-70.49444501
'0:18.777',-64.29859224
'0:18.781',-63.50084296
'0:18.785',-52.97055241
'0:18.789',-41.93502066
'0:18.793',-39.48858953
'0:18.797',-32.22907105
'0:18.801',-45.41852587
'0:18.805',-34.64891054
'0:18.809',-26.00662664
'0:18.813',-9.5729914
'0:18.816',-2.28688128
'0:18.820',3.11122221
'0:18.824',-0.39887464
'0:18.828',-7.41906834
'0:18.832',6.59472741
'0:18.836',11.72691447
'0:18.840',2.28688128
'0:18.844',-13.88083753
'0:18.848',-20.34260673
'0:18.852',-40.84476331
'0:18.855',-37.33466646
'0:18.859',-47.3065325
'0:18.863',-46.24286679
'0:18.867',-36.53691718
'0:18.871',-41.37659616
'0:18.875',-38.15900739
'0:18.879',-31.40473012
'0:18.883',-30.04855634
'0:18.887',-35.44665982
'0:18.891',-24.41112807
'0:18.895',-23.05495429
'0:18.898',-31.93656298
'0:18.902',-13.34900467
'0:18.906',-18.74710816
'0:18.910',-8.48273405
'0:18.914',-7.41906834
'0:18.918',-0.66479107
'0:18.922',18.18868366
'0:18.926',44.35486015
'0:18.930',85.06666525
'0:18.934',102.0321333
'0:18.938',111.4721665
'0:18.941',132.7720724
'0:18.945',157.8479915
'0:18.949',133.8623298
'0:18.953',-48.92862271
'0:18.957',-205.5533987
'0:18.961',-239.8034346
'0:18.965',-143.0098549
'0:18.969',-39.48858953
'0:18.973',25.20887735
'0:18.977',94.77261486
'0:18.980',120.9121997
'0:18.984',63.20833488
'0:18.988',7.41906834
'0:18.992',-1.489132
'0:18.996',-6.88723548
'0:19.000',-27.89463327
'0:19.004',-46.24286679
'0:19.008',-54.59264262
'0:19.012',-68.34052194
'0:19.016',-44.08894373
'0:19.020',-30.87289727
'0:19.023',-44.62077658
'0:19.027',-50.28479649
'0:19.031',-36.27100075
'0:19.035',-32.22907105
'0:19.039',-16.59318509
'0:19.043',-10.37074068
'0:19.047',-30.87289727
'0:19.051',-34.38299411
'0:19.055',-17.92276723
'0:19.059',-19.27894101
'0:19.063',-24.94296093
'0:19.066',-27.36280042
'0:19.070',-34.11707768
'0:19.074',-20.6351148
'0:19.078',-21.16694765
'0:19.082',-8.21681762
'0:19.086',-24.94296093
'0:19.090',-16.85910152
'0:19.094',-6.88723548
'0:19.098',7.95090119
'0:19.102',7.95090119
'0:19.105',10.10482426
'0:19.109',0.66479107
'0:19.113',8.48273405
'0:19.117',21.96469694
'0:19.121',23.58678714
'0:19.125',12.25874732
'0:19.129',3.37713863
'0:19.133',-7.41906834
'0:19.137',4.17488792
'0:19.141',6.06289455
'0:19.145',12.25874732
'0:19.148',34.64891054
'0:19.152',53.79489334
'0:19.156',65.65476602
'0:19.160',86.66216382
'0:19.164',78.84422084
'0:19.168',69.69669572
'0:19.172',71.02627786
'0:19.176',80.20039462
'0:19.180',69.43077929
'0:19.184',64.03267581
'0:19.188',70.76036143
'0:19.191',69.13827122
'0:19.195',77.5146387
'0:19.199',68.8723548
'0:19.203',65.65476602
'0:19.207',71.85061879
'0:19.211',52.43871956
'0:19.215',44.88669301
'0:19.219',37.06875003
'0:19.223',34.09048604
'0:19.227',23.85270357
'0:19.230',4.44080434
'0:19.234',-3.64305506
'0:19.238',-26.83096756
'0:19.242',-29.25080706
'0:19.246',-40.04701402
'0:19.250',-60.25666254
'0:19.254',-52.97055241
'0:19.258',-60.25666254
'0:19.262',-61.34691989
'0:19.266',-70.76036143
'0:19.270',-75.62663206
'0:19.273',-70.22852858
'0:19.277',-62.14466917
'0:19.281',-61.61283632
'0:19.285',-68.8723548
'0:19.289',-73.73862542
'0:19.293',-70.22852858
'0:19.297',-63.20833488
'0:19.301',-62.14466917
'0:19.305',-67.54277266
'0:19.309',-56.74656569
'0:19.313',-54.85855905
'0:19.316',-63.76675938
'0:19.320',-45.15260944
'0:19.324',-50.81662935
'0:19.328',-40.57884688
'0:19.332',-54.59264262
'0:19.336',-47.3065325
'0:19.340',-60.25666254
'0:19.344',-65.09634152
'0:19.348',-55.94881641
'0:19.352',-56.21473283
'0:19.355',-64.29859224
'0:19.359',-59.16640518
'0:19.363',-63.50084296
'0:19.367',-55.68289998
'0:19.371',-57.01248212
'0:19.375',-49.46045557
'0:19.379',-43.2646028
'0:19.383',-46.24286679
'0:19.387',-38.42492381
'0:19.391',-40.84476331
'0:19.395',-34.11707768
'0:19.398',-27.62871685
'0:19.402',-29.51672348
'0:19.406',-36.53691718
'0:19.410',-39.48858953
'0:19.414',-34.91482697
'0:19.418',-28.98489063
'0:19.422',-29.51672348
'0:19.426',-35.1807434
'0:19.430',-38.42492381
'0:19.434',-19.54485744
'0:19.438',-30.60698084
'0:19.441',-28.98489063
'0:19.445',-17.6568508
'0:19.449',-22.52312143
'0:19.453',-20.34260673
'0:19.457',-30.04855634
'0:19.461',-27.89463327
'0:19.465',-17.39093438
'0:19.469',-23.05495429
'0:19.473',-20.90103122
'0:19.477',-14.14675396
'0:19.480',-27.36280042
'0:19.484',-16.0347606
'0:19.488',-22.52312143
'0:19.492',-21.69878051
'0:19.496',-14.97109488
'0:19.500',-11.46099804
'0:19.504',-0.13295821
'0:19.508',-6.06289455
'0:19.512',-5.26514527
'0:19.516',0.9307075
'0:19.520',19.54485744
'0:19.523',30.87289727
'0:19.527',26.27254307
'0:19.531',27.89463327
'0:19.535',18.18868366
'0:19.539',20.34260673
'0:19.543',15.50292774
'0:19.547',-5.26514527
'0:19.551',-3.64305506
'0:19.555',-14.41267039
'0:19.559',-43.2646028
'0:19.563',-46.50878322
'0:19.566',-52.97055241
'0:19.570',-54.06080977
'0:19.574',-64.29859224
'0:19.578',-59.45891325
'0:19.582',-62.14466917
'0:19.586',-68.34052194
'0:19.590',-54.3267262
'0:19.594',-49.75296364
'0:19.598',-59.72482968
'0:19.602',-59.99074611
'0:19.605',-66.18659888
'0:19.609',-54.59264262
'0:19.613',-51.64097028
'0:19.617',-60.25666254
'0:19.621',-58.10273947
'0:19.625',-48.66270628
'0:19.629',-39.48858953
'0:19.633',-37.06875003
'0:19.637',-28.7189742
'0:19.641',20.90103122
'0:19.645',44.88669301
'0:19.648',71.02627786
'0:19.652',91.26251802
'0:19.656',131.4158986
'0:19.660',40.84476331
'0:19.664',-100.7025512
'0:19.668',-246.2652038
'0:19.672',-240.069351
'0:19.676',-142.7439384
'0:19.680',-65.38884959
'0:19.684',-18.18868366
'0:19.688',44.08894373
'0:19.691',71.31878593
'0:19.695',41.37659616
'0:19.699',7.68498476
'0:19.703',2.81871413
'0:19.707',10.63665711
'0:19.711',4.44080434
'0:19.715',-21.96469694
'0:19.719',-23.05495429
'0:19.723',-14.70517846
'0:19.727',-8.48273405
'0:19.730',-11.99283089
'0:19.734',-20.0766903
'0:19.738',-37.60058289
'0:19.742',-30.87289727
'0:19.746',-10.37074068
'0:19.750',-13.6149211
'0:19.754',-19.27894101
'0:19.758',-35.1807434
'0:19.762',-30.04855634
'0:19.766',-27.36280042
'0:19.770',-30.34106441
'0:19.773',-50.01888007
'0:19.777',-49.75296364
'0:19.781',-46.50878322
'0:19.785',-44.88669301
'0:19.789',-46.77469965
'0:19.793',-64.56450867
'0:19.797',-64.29859224
'0:19.801',-62.67650203
'0:19.805',-62.14466917
'0:19.809',-62.94241846
'0:19.813',-64.03267581
'0:19.816',-63.76675938
'0:19.820',-62.67650203
'0:19.824',-46.50878322
'0:19.828',-32.22907105
'0:19.832',-32.49498748
'0:19.836',-30.60698084
'0:19.840',-13.6149211
'0:19.844',0.9307075
'0:19.848',14.97109488
'0:19.852',15.76884417
'0:19.855',18.74710816
'0:19.859',19.81077387
'0:19.863',33.29273676
'0:19.867',45.68444229
'0:19.871',62.14466917
'0:19.875',50.55071292
'0:19.879',53.79489334
'0:19.883',51.08254578
'0:19.887',61.61283632
'0:19.891',60.52257896
'0:19.895',65.38884959
'0:19.898',54.06080977
'0:19.902',68.07460551
'0:19.906',61.61283632
'0:19.910',75.36071563
'0:19.914',79.66856176
'0:19.918',69.69669572
'0:19.922',54.3267262
'0:19.926',48.13087343
'0:19.930',42.99868637
'0:19.934',29.78263991
'0:19.938',36.53691718
'0:19.941',37.33466646
'0:19.945',31.93656298
'0:19.949',27.36280042
'0:19.953',29.51672348
'0:19.957',34.91482697
'0:19.961',36.53691718
'0:19.965',32.49498748
'0:19.969',59.16640518
'0:19.973',59.43232161
'0:19.977',19.54485744
'0:19.980',-6.32881098
'0:19.984',-11.72691447
'0:19.988',-6.88723548
'0:19.992',-9.04115854
'0:19.996',0.39887464
'0:20.000',8.48273405
'0:20.004',5.26514527
'0:20.008',10.92916518
'0:20.012',22.52312143
'0:20.016',14.67858681
'0:20.020',9.04115854
'0:20.023',23.05495429
'0:20.027',11.46099804
'0:20.031',6.59472741
'0:20.035',-1.489132
'0:20.039',8.21681762
'0:20.043',6.59472741
'0:20.047',11.99283089
'0:20.051',6.32881098
'0:20.055',-2.02096485
'0:20.059',7.95090119
'0:20.063',6.59472741
'0:20.066',12.25874732
'0:20.070',6.32881098
'0:20.074',-2.28688128
'0:20.078',-7.68498476
'0:20.082',-8.21681762
'0:20.086',-19.01302459
'0:20.090',-40.84476331
'0:20.094',-34.64891054
'0:20.098',-41.37659616
'0:20.102',-71.85061879
'0:20.105',-64.29859224
'0:20.109',-72.9142845
'0:20.113',-85.06666525
'0:20.117',-74.53637471
'0:20.121',-71.85061879
'0:20.125',-64.29859224
