'0:00.000',-0.16292135
'0:00.003',-0.16292135
'0:00.006',-0.16853933
'0:00.008',-0.16853933
'0:00.011',-0.16853933
'0:00.014',-0.16292135
'0:00.017',-0.15730337
'0:00.019',-0.15730337
'0:00.022',-0.15730337
'0:00.025',-0.16292135
'0:00.028',-0.16853933
'0:00.031',-0.16853933
'0:00.033',-0.15730337
'0:00.036',-0.15168539
'0:00.039',-0.15168539
'0:00.042',-0.16853933
'0:00.044',-0.16853933
'0:00.047',-0.15730337
'0:00.050',-0.14606742
'0:00.053',-0.14044944
'0:00.056',-0.15730337
'0:00.058',-0.16292135
'0:00.061',-0.15730337
'0:00.064',-0.14606742
'0:00.067',-0.15168539
'0:00.069',-0.15730337
'0:00.072',-0.16292135
'0:00.075',-0.16853933
'0:00.078',-0.15730337
'0:00.081',-0.14044944
'0:00.083',-0.13483146
'0:00.086',-0.14044944
'0:00.089',-0.14606742
'0:00.092',-0.15730337
'0:00.094',-0.16292135
'0:00.097',-0.16853933
'0:00.100',-0.1741573
'0:00.103',-0.18539326
'0:00.106',-0.18539326
'0:00.108',-0.17977528
'0:00.111',-0.16853933
'0:00.114',-0.15168539
'0:00.117',-0.15168539
'0:00.119',-0.16292135
'0:00.122',-0.17977528
'0:00.125',-0.18539326
'0:00.128',-0.16853933
'0:00.131',-0.16853933
'0:00.133',-0.17977528
'0:00.136',-0.19101124
'0:00.139',-0.19101124
'0:00.142',-0.1741573
'0:00.144',-0.16292135
'0:00.147',-0.16853933
'0:00.150',-0.18539326
'0:00.153',-0.19101124
'0:00.156',-0.19101124
'0:00.158',-0.17977528
'0:00.161',-0.16853933
'0:00.164',-0.1741573
'0:00.167',-0.18539326
'0:00.169',-0.18539326
'0:00.172',-0.18539326
'0:00.175',-0.19101124
'0:00.178',-0.19662921
'0:00.181',-0.18539326
'0:00.183',-0.16853933
'0:00.186',-0.16853933
'0:00.189',-0.1741573
'0:00.192',-0.18539326
'0:00.194',-0.18539326
'0:00.197',-0.18539326
'0:00.200',-0.17977528
'0:00.203',-0.18539326
'0:00.206',-0.19101124
'0:00.208',-0.17977528
'0:00.211',-0.14044944
'0:00.214',-0.11235955
'0:00.217',-0.1011236
'0:00.219',-0.1011236
'0:00.222',-0.12359551
'0:00.225',-0.14044944
'0:00.228',-0.12921348
'0:00.231',-0.10674157
'0:00.233',-0.1011236
'0:00.236',-0.09550562
'0:00.239',-0.08988764
'0:00.242',-0.08988764
'0:00.244',-0.08988764
'0:00.247',-0.08426966
'0:00.250',-0.08426966
'0:00.253',-0.08988764
'0:00.256',-0.1011236
'0:00.258',-0.10674157
'0:00.261',-0.11235955
'0:00.264',-0.10674157
'0:00.267',-0.12359551
'0:00.269',-0.15168539
'0:00.272',-0.16292135
'0:00.275',-0.16853933
'0:00.278',-0.15730337
'0:00.281',-0.15168539
'0:00.283',-0.15730337
'0:00.286',-0.18539326
'0:00.289',-0.20224719
'0:00.292',-0.21348315
'0:00.294',-0.21348315
'0:00.297',-0.21910112
'0:00.300',-0.2247191
'0:00.303',-0.2247191
'0:00.306',-0.2247191
'0:00.308',-0.2247191
'0:00.311',-0.23033708
'0:00.314',-0.2247191
'0:00.317',-0.2247191
'0:00.319',-0.23595506
'0:00.322',-0.24719101
'0:00.325',-0.24157303
'0:00.328',-0.2247191
'0:00.331',-0.20786517
'0:00.333',-0.2247191
'0:00.336',-0.23033708
'0:00.339',-0.2247191
'0:00.342',-0.23033708
'0:00.344',-0.24157303
'0:00.347',-0.26966292
'0:00.350',-0.30337079
'0:00.353',-0.33707865
'0:00.356',-0.34831461
'0:00.358',-0.30898876
'0:00.361',-0.19101124
'0:00.364',-0.03370787
'0:00.367',0.14606742
'0:00.369',0.35393258
'0:00.372',0.57865169
'0:00.375',0.84831461
'0:00.378',1.16292135
'0:00.381',1.50561798
'0:00.383',1.76404494
'0:00.386',1.79775281
'0:00.389',1.5505618
'0:00.392',1.05617978
'0:00.394',0.46067416
'0:00.397',0.0505618
'0:00.400',-0.07865169
'0:00.403',-0.05617978
'0:00.406',-0.03932584
'0:00.408',-0.07865169
'0:00.411',-0.11797753
'0:00.414',-0.15168539
'0:00.417',-0.18539326
'0:00.419',-0.20224719
'0:00.422',-0.2247191
'0:00.425',-0.24157303
'0:00.428',-0.25842697
'0:00.431',-0.26404494
'0:00.433',-0.26404494
'0:00.436',-0.26404494
'0:00.439',-0.26404494
'0:00.442',-0.25842697
'0:00.444',-0.25280899
'0:00.447',-0.25280899
'0:00.450',-0.24157303
'0:00.453',-0.23595506
'0:00.456',-0.24157303
'0:00.458',-0.24719101
'0:00.461',-0.24157303
'0:00.464',-0.23595506
'0:00.467',-0.23595506
'0:00.469',-0.24157303
'0:00.472',-0.24157303
'0:00.475',-0.24157303
'0:00.478',-0.23595506
'0:00.481',-0.23033708
'0:00.483',-0.21910112
'0:00.486',-0.21910112
'0:00.489',-0.23595506
'0:00.492',-0.23595506
'0:00.494',-0.21348315
'0:00.497',-0.19101124
'0:00.500',-0.19662921
'0:00.503',-0.20224719
'0:00.506',-0.19662921
'0:00.508',-0.19101124
'0:00.511',-0.17977528
'0:00.514',-0.1741573
'0:00.517',-0.17977528
'0:00.519',-0.1741573
'0:00.522',-0.15730337
'0:00.525',-0.15730337
'0:00.528',-0.15730337
'0:00.531',-0.15168539
'0:00.533',-0.14044944
'0:00.536',-0.12921348
'0:00.539',-0.11797753
'0:00.542',-0.10674157
'0:00.544',-0.1011236
'0:00.547',-0.08426966
'0:00.550',-0.07303371
'0:00.553',-0.07865169
'0:00.556',-0.07303371
'0:00.558',-0.0505618
'0:00.561',-0.02247191
'0:00.564',-0.00561798
'0:00.567',0.00561798
'0:00.569',0.02247191
'0:00.572',0.03370787
'0:00.575',0.05617978
'0:00.578',0.07865169
'0:00.581',0.1011236
'0:00.583',0.11797753
'0:00.586',0.12921348
'0:00.589',0.14044944
'0:00.592',0.15730337
'0:00.594',0.16292135
'0:00.597',0.16853933
'0:00.600',0.1741573
'0:00.603',0.18539326
'0:00.606',0.19662921
'0:00.608',0.20224719
'0:00.611',0.20786517
'0:00.614',0.21910112
'0:00.617',0.19662921
'0:00.619',0.18539326
'0:00.622',0.19101124
'0:00.625',0.18539326
'0:00.628',0.15168539
'0:00.631',0.11797753
'0:00.633',0.1011236
'0:00.636',0.09550562
'0:00.639',0.06741573
'0:00.642',0.02808989
'0:00.644',0
'0:00.647',-0.00561798
'0:00.650',-0.03370787
'0:00.653',-0.06741573
'0:00.656',-0.08988764
'0:00.658',-0.10674157
'0:00.661',-0.11797753
'0:00.664',-0.11797753
'0:00.667',-0.11797753
'0:00.669',-0.12359551
'0:00.672',-0.12921348
'0:00.675',-0.13483146
'0:00.678',-0.12921348
'0:00.681',-0.13483146
'0:00.683',-0.14044944
'0:00.686',-0.16853933
'0:00.689',-0.1741573
'0:00.692',-0.16853933
'0:00.694',-0.16853933
'0:00.697',-0.1741573
'0:00.700',-0.1741573
'0:00.703',-0.16853933
'0:00.706',-0.16292135
'0:00.708',-0.16853933
'0:00.711',-0.1741573
'0:00.714',-0.1741573
'0:00.717',-0.15730337
'0:00.719',-0.15168539
'0:00.722',-0.15730337
'0:00.725',-0.1741573
'0:00.728',-0.1741573
'0:00.731',-0.1741573
'0:00.733',-0.16853933
'0:00.736',-0.1741573
'0:00.739',-0.18539326
'0:00.742',-0.19101124
'0:00.744',-0.1741573
'0:00.747',-0.15730337
'0:00.750',-0.15168539
'0:00.753',-0.15730337
'0:00.756',-0.16853933
'0:00.758',-0.16853933
'0:00.761',-0.16292135
'0:00.764',-0.15730337
'0:00.767',-0.16292135
'0:00.769',-0.16853933
'0:00.772',-0.16853933
'0:00.775',-0.16853933
'0:00.778',-0.15730337
'0:00.781',-0.15730337
'0:00.783',-0.15168539
'0:00.786',-0.15730337
'0:00.789',-0.15730337
'0:00.792',-0.16292135
'0:00.794',-0.15168539
'0:00.797',-0.14606742
'0:00.800',-0.15730337
'0:00.803',-0.16292135
'0:00.806',-0.16853933
'0:00.808',-0.15730337
'0:00.811',-0.14606742
'0:00.814',-0.13483146
'0:00.817',-0.14606742
'0:00.819',-0.16292135
'0:00.822',-0.16853933
'0:00.825',-0.15168539
'0:00.828',-0.13483146
'0:00.831',-0.13483146
'0:00.833',-0.13483146
'0:00.836',-0.13483146
'0:00.839',-0.13483146
'0:00.842',-0.15730337
'0:00.844',-0.15730337
'0:00.847',-0.14606742
'0:00.850',-0.14044944
'0:00.853',-0.15168539
'0:00.856',-0.15730337
'0:00.858',-0.15730337
'0:00.861',-0.15730337
'0:00.864',-0.15168539
'0:00.867',-0.15168539
'0:00.869',-0.15730337
'0:00.872',-0.16853933
'0:00.875',-0.16292135
'0:00.878',-0.14606742
'0:00.881',-0.14044944
'0:00.883',-0.15168539
'0:00.886',-0.16853933
'0:00.889',-0.18539326
'0:00.892',-0.17977528
'0:00.894',-0.16292135
'0:00.897',-0.15730337
'0:00.900',-0.16853933
'0:00.903',-0.17977528
'0:00.906',-0.1741573
'0:00.908',-0.16853933
'0:00.911',-0.15730337
'0:00.914',-0.16292135
'0:00.917',-0.16853933
'0:00.919',-0.1741573
'0:00.922',-0.1741573
'0:00.925',-0.1741573
'0:00.928',-0.17977528
'0:00.931',-0.1741573
'0:00.933',-0.1741573
'0:00.936',-0.1741573
'0:00.939',-0.1741573
'0:00.942',-0.16292135
'0:00.944',-0.15730337
'0:00.947',-0.17977528
'0:00.950',-0.18539326
'0:00.953',-0.1741573
'0:00.956',-0.1741573
'0:00.958',-0.18539326
'0:00.961',-0.19101124
'0:00.964',-0.19101124
'0:00.967',-0.1741573
'0:00.969',-0.16853933
'0:00.972',-0.1741573
'0:00.975',-0.18539326
'0:00.978',-0.1741573
'0:00.981',-0.15730337
'0:00.983',-0.16292135
'0:00.986',-0.1741573
'0:00.989',-0.16853933
'0:00.992',-0.15168539
'0:00.994',-0.12359551
'0:00.997',-0.10674157
'0:01.000',-0.10674157
'0:01.003',-0.12359551
'0:01.006',-0.13483146
'0:01.008',-0.13483146
'0:01.011',-0.11797753
'0:01.014',-0.1011236
'0:01.017',-0.08988764
'0:01.019',-0.08426966
'0:01.022',-0.07303371
'0:01.025',-0.07303371
'0:01.028',-0.06741573
'0:01.031',-0.06179775
'0:01.033',-0.06741573
'0:01.036',-0.08426966
'0:01.039',-0.10674157
'0:01.042',-0.11797753
'0:01.044',-0.12359551
'0:01.047',-0.12359551
'0:01.050',-0.12359551
'0:01.053',-0.11797753
'0:01.056',-0.11797753
'0:01.058',-0.14606742
'0:01.061',-0.16853933
'0:01.064',-0.1741573
'0:01.067',-0.1741573
'0:01.069',-0.17977528
'0:01.072',-0.18539326
'0:01.075',-0.19662921
'0:01.078',-0.20786517
'0:01.081',-0.21910112
'0:01.083',-0.21348315
'0:01.086',-0.20786517
'0:01.089',-0.21348315
'0:01.092',-0.21348315
'0:01.094',-0.21348315
'0:01.097',-0.21910112
'0:01.100',-0.23595506
'0:01.103',-0.2247191
'0:01.106',-0.21348315
'0:01.108',-0.21348315
'0:01.111',-0.21910112
'0:01.114',-0.2247191
'0:01.117',-0.2247191
'0:01.119',-0.2247191
'0:01.122',-0.23033708
'0:01.125',-0.23033708
'0:01.128',-0.24157303
'0:01.131',-0.28651685
'0:01.133',-0.3258427
'0:01.136',-0.33707865
'0:01.139',-0.30337079
'0:01.142',-0.20224719
'0:01.144',-0.05617978
'0:01.147',0.11797753
'0:01.150',0.30898876
'0:01.153',0.52247191
'0:01.156',0.78089888
'0:01.158',1.07865169
'0:01.161',1.41011236
'0:01.164',1.71348315
'0:01.167',1.82022472
'0:01.169',1.65168539
'0:01.172',1.24719101
'0:01.175',0.69101124
'0:01.178',0.18539326
'0:01.181',-0.05617978
'0:01.183',-0.06741573
'0:01.186',0
'0:01.189',-0.01123596
'0:01.192',-0.06741573
'0:01.194',-0.1011236
'0:01.197',-0.11797753
'0:01.200',-0.15730337
'0:01.203',-0.19101124
'0:01.206',-0.21348315
'0:01.208',-0.21348315
'0:01.211',-0.2247191
'0:01.214',-0.24157303
'0:01.217',-0.25280899
'0:01.219',-0.24719101
'0:01.222',-0.24719101
'0:01.225',-0.24157303
'0:01.228',-0.23033708
'0:01.231',-0.23595506
'0:01.233',-0.25280899
'0:01.236',-0.25280899
'0:01.239',-0.24157303
'0:01.242',-0.24157303
'0:01.244',-0.24157303
'0:01.247',-0.23595506
'0:01.250',-0.2247191
'0:01.253',-0.2247191
'0:01.256',-0.23595506
'0:01.258',-0.23033708
'0:01.261',-0.21348315
'0:01.264',-0.20786517
'0:01.267',-0.21348315
'0:01.269',-0.21910112
'0:01.272',-0.21910112
'0:01.275',-0.2247191
'0:01.278',-0.21910112
'0:01.281',-0.20224719
'0:01.283',-0.18539326
'0:01.286',-0.18539326
'0:01.289',-0.19101124
'0:01.292',-0.20224719
'0:01.294',-0.19662921
'0:01.297',-0.17977528
'0:01.300',-0.16292135
'0:01.303',-0.15730337
'0:01.306',-0.16853933
'0:01.308',-0.1741573
'0:01.311',-0.15730337
'0:01.314',-0.14044944
'0:01.317',-0.12921348
'0:01.319',-0.12359551
'0:01.322',-0.12359551
'0:01.325',-0.11797753
'0:01.328',-0.10674157
'0:01.331',-0.08426966
'0:01.333',-0.06741573
'0:01.336',-0.06741573
'0:01.339',-0.0505618
'0:01.342',-0.03370787
'0:01.344',-0.01123596
'0:01.347',0
'0:01.350',0.00561798
'0:01.353',0.02247191
'0:01.356',0.0505618
'0:01.358',0.05617978
'0:01.361',0.06741573
'0:01.364',0.08426966
'0:01.367',0.10674157
'0:01.369',0.12359551
'0:01.372',0.12921348
'0:01.375',0.14044944
'0:01.378',0.15730337
'0:01.381',0.1741573
'0:01.383',0.1741573
'0:01.386',0.17977528
'0:01.389',0.19101124
'0:01.392',0.19662921
'0:01.394',0.19662921
'0:01.397',0.18539326
'0:01.400',0.1741573
'0:01.403',0.16853933
'0:01.406',0.15730337
'0:01.408',0.13483146
'0:01.411',0.10674157
'0:01.414',0.08988764
'0:01.417',0.06741573
'0:01.419',0.0505618
'0:01.422',0.03370787
'0:01.425',0.01685393
'0:01.428',0
'0:01.431',-0.01123596
'0:01.433',-0.03370787
'0:01.436',-0.05617978
'0:01.439',-0.08988764
'0:01.442',-0.11235955
'0:01.444',-0.12359551
'0:01.447',-0.12359551
'0:01.450',-0.12359551
'0:01.453',-0.12359551
'0:01.456',-0.13483146
'0:01.458',-0.13483146
'0:01.461',-0.13483146
'0:01.464',-0.14044944
'0:01.467',-0.15168539
'0:01.469',-0.15730337
'0:01.472',-0.16292135
'0:01.475',-0.16853933
'0:01.478',-0.16853933
'0:01.481',-0.15730337
'0:01.483',-0.15730337
'0:01.486',-0.15168539
'0:01.489',-0.15730337
'0:01.492',-0.16292135
'0:01.494',-0.1741573
'0:01.497',-0.1741573
'0:01.500',-0.16292135
'0:01.503',-0.15168539
'0:01.506',-0.15730337
'0:01.508',-0.16853933
'0:01.511',-0.1741573
'0:01.514',-0.16292135
'0:01.517',-0.15168539
'0:01.519',-0.15730337
'0:01.522',-0.16853933
'0:01.525',-0.1741573
'0:01.528',-0.16853933
'0:01.531',-0.15730337
'0:01.533',-0.15730337
'0:01.536',-0.16853933
'0:01.539',-0.1741573
'0:01.542',-0.16853933
'0:01.544',-0.15730337
'0:01.547',-0.15730337
'0:01.550',-0.16853933
'0:01.553',-0.1741573
'0:01.556',-0.1741573
'0:01.558',-0.1741573
'0:01.561',-0.1741573
'0:01.564',-0.15168539
'0:01.567',-0.13483146
'0:01.569',-0.13483146
'0:01.572',-0.15168539
'0:01.575',-0.15730337
'0:01.578',-0.14606742
'0:01.581',-0.14044944
'0:01.583',-0.14044944
'0:01.586',-0.15168539
'0:01.589',-0.16292135
'0:01.592',-0.16853933
'0:01.594',-0.15730337
'0:01.597',-0.14044944
'0:01.600',-0.14044944
'0:01.603',-0.15168539
'0:01.606',-0.15730337
'0:01.608',-0.15730337
'0:01.611',-0.14044944
'0:01.614',-0.13483146
'0:01.617',-0.14044944
'0:01.619',-0.15168539
'0:01.622',-0.15168539
'0:01.625',-0.15168539
'0:01.628',-0.15168539
'0:01.631',-0.14044944
'0:01.633',-0.13483146
'0:01.636',-0.14044944
'0:01.639',-0.15730337
'0:01.642',-0.1741573
'0:01.644',-0.16853933
'0:01.647',-0.15168539
'0:01.650',-0.14606742
'0:01.653',-0.15168539
'0:01.656',-0.16853933
'0:01.658',-0.16853933
'0:01.661',-0.15730337
'0:01.664',-0.14606742
'0:01.667',-0.14044944
'0:01.669',-0.14606742
'0:01.672',-0.14606742
'0:01.675',-0.15730337
'0:01.678',-0.15730337
'0:01.681',-0.15730337
'0:01.683',-0.16853933
'0:01.686',-0.1741573
'0:01.689',-0.1741573
'0:01.692',-0.1741573
'0:01.694',-0.16853933
'0:01.697',-0.16853933
'0:01.700',-0.16853933
'0:01.703',-0.16853933
'0:01.706',-0.1741573
'0:01.708',-0.1741573
'0:01.711',-0.16853933
'0:01.714',-0.16853933
'0:01.717',-0.17977528
'0:01.719',-0.18539326
'0:01.722',-0.18539326
'0:01.725',-0.16853933
'0:01.728',-0.16853933
'0:01.731',-0.16853933
'0:01.733',-0.17977528
'0:01.736',-0.18539326
'0:01.739',-0.1741573
'0:01.742',-0.16853933
'0:01.744',-0.1741573
'0:01.747',-0.1741573
'0:01.750',-0.1741573
'0:01.753',-0.1741573
'0:01.756',-0.17977528
'0:01.758',-0.18539326
'0:01.761',-0.19101124
'0:01.764',-0.18539326
'0:01.767',-0.16853933
'0:01.769',-0.15168539
'0:01.772',-0.15168539
'0:01.775',-0.15168539
'0:01.778',-0.15168539
'0:01.781',-0.14044944
'0:01.783',-0.11797753
'0:01.786',-0.10674157
'0:01.789',-0.11235955
'0:01.792',-0.11797753
'0:01.794',-0.11797753
'0:01.797',-0.11797753
'0:01.800',-0.11235955
'0:01.803',-0.08988764
'0:01.806',-0.07303371
'0:01.808',-0.07303371
'0:01.811',-0.06179775
'0:01.814',-0.05617978
'0:01.817',-0.05617978
'0:01.819',-0.06741573
'0:01.822',-0.07865169
'0:01.825',-0.1011236
'0:01.828',-0.10674157
'0:01.831',-0.1011236
'0:01.833',-0.1011236
'0:01.836',-0.10674157
'0:01.839',-0.12359551
'0:01.842',-0.13483146
'0:01.844',-0.13483146
'0:01.847',-0.13483146
'0:01.850',-0.14044944
'0:01.853',-0.15168539
'0:01.856',-0.16853933
'0:01.858',-0.19101124
'0:01.861',-0.20786517
'0:01.864',-0.20786517
'0:01.867',-0.20786517
'0:01.869',-0.20786517
'0:01.872',-0.20224719
'0:01.875',-0.20786517
'0:01.878',-0.21910112
'0:01.881',-0.21348315
'0:01.883',-0.21910112
'0:01.886',-0.2247191
'0:01.889',-0.23595506
'0:01.892',-0.2247191
'0:01.894',-0.21348315
'0:01.897',-0.20786517
'0:01.900',-0.21348315
'0:01.903',-0.21910112
'0:01.906',-0.2247191
'0:01.908',-0.2247191
'0:01.911',-0.2247191
'0:01.914',-0.2247191
'0:01.917',-0.24157303
'0:01.919',-0.28089888
'0:01.922',-0.32022472
'0:01.925',-0.34269663
'0:01.928',-0.30898876
'0:01.931',-0.20224719
'0:01.933',-0.04494382
'0:01.936',0.12359551
'0:01.939',0.32022472
'0:01.942',0.52808989
'0:01.944',0.7752809
'0:01.947',1.0505618
'0:01.950',1.36516854
'0:01.953',1.66853933
'0:01.956',1.7752809
'0:01.958',1.62921348
'0:01.961',1.25280899
'0:01.964',0.71910112
'0:01.967',0.21910112
'0:01.969',-0.04494382
'0:01.972',-0.07303371
'0:01.975',-0.01685393
'0:01.978',-0.01123596
'0:01.981',-0.03932584
'0:01.983',-0.07865169
'0:01.986',-0.11797753
'0:01.989',-0.15168539
'0:01.992',-0.18539326
'0:01.994',-0.20786517
'0:01.997',-0.21348315
'0:02.000',-0.2247191
'0:02.003',-0.23595506
'0:02.006',-0.24157303
'0:02.008',-0.24719101
'0:02.011',-0.24157303
'0:02.014',-0.23595506
'0:02.017',-0.23595506
'0:02.019',-0.23595506
'0:02.022',-0.24157303
'0:02.025',-0.25280899
'0:02.028',-0.24157303
'0:02.031',-0.2247191
'0:02.033',-0.2247191
'0:02.036',-0.23595506
'0:02.039',-0.23595506
'0:02.042',-0.23033708
'0:02.044',-0.23595506
'0:02.047',-0.2247191
'0:02.050',-0.21910112
'0:02.053',-0.2247191
'0:02.056',-0.23033708
'0:02.058',-0.23033708
'0:02.061',-0.20786517
'0:02.064',-0.20224719
'0:02.067',-0.20786517
'0:02.069',-0.20786517
'0:02.072',-0.20224719
'0:02.075',-0.19101124
'0:02.078',-0.18539326
'0:02.081',-0.18539326
'0:02.083',-0.18539326
'0:02.086',-0.1741573
'0:02.089',-0.1741573
'0:02.092',-0.17977528
'0:02.094',-0.17977528
'0:02.097',-0.16853933
'0:02.100',-0.15730337
'0:02.103',-0.15168539
'0:02.106',-0.15168539
'0:02.108',-0.15168539
'0:02.111',-0.12921348
'0:02.114',-0.11235955
'0:02.117',-0.10674157
'0:02.119',-0.08988764
'0:02.122',-0.07865169
'0:02.125',-0.06741573
'0:02.128',-0.0505618
'0:02.131',-0.03370787
'0:02.133',-0.01123596
'0:02.136',0
'0:02.139',0.00561798
'0:02.142',0.02247191
'0:02.144',0.0505618
'0:02.147',0.07303371
'0:02.150',0.08426966
'0:02.153',0.09550562
'0:02.156',0.1011236
'0:02.158',0.10674157
'0:02.161',0.11797753
'0:02.164',0.14044944
'0:02.167',0.15730337
'0:02.169',0.16853933
'0:02.172',0.16853933
'0:02.175',0.1741573
'0:02.178',0.19101124
'0:02.181',0.20224719
'0:02.183',0.20786517
'0:02.186',0.20786517
'0:02.189',0.19662921
'0:02.192',0.18539326
'0:02.194',0.15730337
'0:02.197',0.14044944
'0:02.200',0.11797753
'0:02.203',0.10674157
'0:02.206',0.08426966
'0:02.208',0.06741573
'0:02.211',0.03932584
'0:02.214',0.02808989
'0:02.217',0.00561798
'0:02.219',-0.01123596
'0:02.222',-0.03370787
'0:02.225',-0.05617978
'0:02.228',-0.07865169
'0:02.231',-0.09550562
'0:02.233',-0.11235955
'0:02.236',-0.12921348
'0:02.239',-0.14606742
'0:02.242',-0.15168539
'0:02.244',-0.14044944
'0:02.247',-0.14606742
'0:02.250',-0.15168539
'0:02.253',-0.14606742
'0:02.256',-0.15168539
'0:02.258',-0.15730337
'0:02.261',-0.16853933
'0:02.264',-0.15730337
'0:02.267',-0.15168539
'0:02.269',-0.15730337
'0:02.272',-0.1741573
'0:02.275',-0.1741573
'0:02.278',-0.16853933
'0:02.281',-0.16853933
'0:02.283',-0.18539326
'0:02.286',-0.18539326
'0:02.289',-0.19101124
'0:02.292',-0.17977528
'0:02.294',-0.15730337
'0:02.297',-0.16853933
'0:02.300',-0.1741573
'0:02.303',-0.17977528
'0:02.306',-0.1741573
'0:02.308',-0.16853933
'0:02.311',-0.16853933
'0:02.314',-0.16853933
'0:02.317',-0.16853933
'0:02.319',-0.16853933
'0:02.322',-0.17977528
'0:02.325',-0.19101124
'0:02.328',-0.19101124
'0:02.331',-0.17977528
'0:02.333',-0.1741573
'0:02.336',-0.16853933
'0:02.339',-0.16292135
'0:02.342',-0.16853933
'0:02.344',-0.16853933
'0:02.347',-0.16853933
'0:02.350',-0.15730337
'0:02.353',-0.14606742
'0:02.356',-0.15730337
'0:02.358',-0.16853933
'0:02.361',-0.16853933
'0:02.364',-0.16292135
'0:02.367',-0.15730337
'0:02.369',-0.16292135
'0:02.372',-0.16853933
'0:02.375',-0.1741573
'0:02.378',-0.16853933
'0:02.381',-0.15730337
'0:02.383',-0.14606742
'0:02.386',-0.14606742
'0:02.389',-0.16853933
'0:02.392',-0.1741573
'0:02.394',-0.15730337
'0:02.397',-0.14044944
'0:02.400',-0.13483146
'0:02.403',-0.14044944
'0:02.406',-0.15730337
'0:02.408',-0.16853933
'0:02.411',-0.1741573
'0:02.414',-0.16853933
'0:02.417',-0.16853933
'0:02.419',-0.1741573
'0:02.422',-0.18539326
'0:02.425',-0.16853933
'0:02.428',-0.15730337
'0:02.431',-0.14606742
'0:02.433',-0.14606742
'0:02.436',-0.15168539
'0:02.439',-0.15730337
'0:02.442',-0.16853933
'0:02.444',-0.1741573
'0:02.447',-0.16853933
'0:02.450',-0.16853933
'0:02.453',-0.1741573
'0:02.456',-0.16853933
'0:02.458',-0.15730337
'0:02.461',-0.15730337
'0:02.464',-0.16853933
'0:02.467',-0.1741573
'0:02.469',-0.17977528
'0:02.472',-0.18539326
'0:02.475',-0.18539326
'0:02.478',-0.1741573
'0:02.481',-0.16853933
'0:02.483',-0.16853933
'0:02.486',-0.17977528
'0:02.489',-0.1741573
'0:02.492',-0.16853933
'0:02.494',-0.1741573
'0:02.497',-0.19101124
'0:02.500',-0.19662921
'0:02.503',-0.19101124
'0:02.506',-0.19101124
'0:02.508',-0.19101124
'0:02.511',-0.19101124
'0:02.514',-0.1741573
'0:02.517',-0.16853933
'0:02.519',-0.18539326
'0:02.522',-0.19662921
'0:02.525',-0.19662921
'0:02.528',-0.19101124
'0:02.531',-0.1741573
'0:02.533',-0.16853933
'0:02.536',-0.1741573
'0:02.539',-0.18539326
'0:02.542',-0.19101124
'0:02.544',-0.18539326
'0:02.547',-0.18539326
'0:02.550',-0.19101124
'0:02.553',-0.19101124
'0:02.556',-0.16853933
'0:02.558',-0.14606742
'0:02.561',-0.12359551
'0:02.564',-0.11797753
'0:02.567',-0.12359551
'0:02.569',-0.13483146
'0:02.572',-0.14044944
'0:02.575',-0.12359551
'0:02.578',-0.10674157
'0:02.581',-0.08988764
'0:02.583',-0.08988764
'0:02.586',-0.08426966
'0:02.589',-0.07865169
'0:02.592',-0.07865169
'0:02.594',-0.08426966
'0:02.597',-0.08988764
'0:02.600',-0.10674157
'0:02.603',-0.12359551
'0:02.606',-0.13483146
'0:02.608',-0.13483146
'0:02.611',-0.11235955
'0:02.614',-0.11797753
'0:02.617',-0.13483146
'0:02.619',-0.15168539
'0:02.622',-0.16853933
'0:02.625',-0.18539326
'0:02.628',-0.18539326
'0:02.631',-0.19101124
'0:02.633',-0.20786517
'0:02.636',-0.21910112
'0:02.639',-0.21910112
'0:02.642',-0.2247191
'0:02.644',-0.23033708
'0:02.647',-0.2247191
'0:02.650',-0.21348315
'0:02.653',-0.20786517
'0:02.656',-0.21910112
'0:02.658',-0.2247191
'0:02.661',-0.23595506
'0:02.664',-0.23033708
'0:02.667',-0.23033708
'0:02.669',-0.23033708
'0:02.672',-0.2247191
'0:02.675',-0.2247191
'0:02.678',-0.23595506
'0:02.681',-0.24157303
'0:02.683',-0.23595506
'0:02.686',-0.23033708
'0:02.689',-0.25280899
'0:02.692',-0.2752809
'0:02.694',-0.29775281
'0:02.697',-0.3258427
'0:02.700',-0.33707865
'0:02.703',-0.28651685
'0:02.706',-0.18539326
'0:02.708',-0.03370787
'0:02.711',0.13483146
'0:02.714',0.33146067
'0:02.717',0.55617978
'0:02.719',0.8258427
'0:02.722',1.12359551
'0:02.725',1.46629213
'0:02.728',1.73595506
'0:02.731',1.7752809
'0:02.733',1.53370787
'0:02.736',1.02808989
'0:02.739',0.43258427
'0:02.742',0.00561798
'0:02.744',-0.13483146
'0:02.747',-0.1011236
'0:02.750',-0.07303371
'0:02.753',-0.09550562
'0:02.756',-0.14044944
'0:02.758',-0.16853933
'0:02.761',-0.17977528
'0:02.764',-0.19101124
'0:02.767',-0.20786517
'0:02.769',-0.23033708
'0:02.772',-0.25842697
'0:02.775',-0.28089888
'0:02.778',-0.2752809
'0:02.781',-0.25842697
'0:02.783',-0.24719101
'0:02.786',-0.25842697
'0:02.789',-0.25842697
'0:02.792',-0.24719101
'0:02.794',-0.23595506
'0:02.797',-0.24157303
'0:02.800',-0.25280899
'0:02.803',-0.25280899
'0:02.806',-0.25842697
'0:02.808',-0.25280899
'0:02.811',-0.23033708
'0:02.814',-0.21910112
'0:02.817',-0.23595506
'0:02.819',-0.24719101
'0:02.822',-0.24719101
'0:02.825',-0.23595506
'0:02.828',-0.21348315
'0:02.831',-0.20224719
'0:02.833',-0.20786517
'0:02.836',-0.21348315
'0:02.839',-0.21910112
'0:02.842',-0.21910112
'0:02.844',-0.20786517
'0:02.847',-0.19662921
'0:02.850',-0.19662921
'0:02.853',-0.19662921
'0:02.856',-0.19101124
'0:02.858',-0.17977528
'0:02.861',-0.1741573
'0:02.864',-0.1741573
'0:02.867',-0.16853933
'0:02.869',-0.15730337
'0:02.872',-0.15168539
'0:02.875',-0.14044944
'0:02.878',-0.13483146
'0:02.881',-0.13483146
'0:02.883',-0.13483146
'0:02.886',-0.12921348
'0:02.889',-0.11797753
'0:02.892',-0.08988764
'0:02.894',-0.06179775
'0:02.897',-0.03932584
'0:02.900',-0.03370787
'0:02.903',-0.02247191
'0:02.906',-0.01685393
'0:02.908',-0.00561798
'0:02.911',0.00561798
'0:02.914',0.02808989
'0:02.917',0.0505618
'0:02.919',0.06179775
'0:02.922',0.07303371
'0:02.925',0.08988764
'0:02.928',0.1011236
'0:02.931',0.11797753
'0:02.933',0.13483146
'0:02.936',0.15168539
'0:02.939',0.16853933
'0:02.942',0.18539326
'0:02.944',0.19101124
'0:02.947',0.20786517
'0:02.950',0.2247191
'0:02.953',0.21910112
'0:02.956',0.21348315
'0:02.958',0.20786517
'0:02.961',0.20224719
'0:02.964',0.19101124
'0:02.967',0.1741573
'0:02.969',0.16853933
'0:02.972',0.15730337
'0:02.975',0.13483146
'0:02.978',0.10674157
'0:02.981',0.08426966
'0:02.983',0.05617978
'0:02.986',0.02808989
'0:02.989',0
'0:02.992',-0.02247191
'0:02.994',-0.04494382
'0:02.997',-0.05617978
'0:03.000',-0.06179775
'0:03.003',-0.07303371
'0:03.006',-0.09550562
'0:03.008',-0.11797753
'0:03.011',-0.12359551
'0:03.014',-0.12359551
'0:03.017',-0.13483146
'0:03.019',-0.14606742
'0:03.022',-0.14606742
'0:03.025',-0.15168539
'0:03.028',-0.16292135
'0:03.031',-0.16853933
'0:03.033',-0.16853933
'0:03.036',-0.16853933
'0:03.039',-0.16292135
'0:03.042',-0.15730337
'0:03.044',-0.15168539
'0:03.047',-0.14044944
'0:03.050',-0.15168539
'0:03.053',-0.16853933
'0:03.056',-0.17977528
'0:03.058',-0.18539326
'0:03.061',-0.18539326
'0:03.064',-0.18539326
'0:03.067',-0.18539326
'0:03.069',-0.1741573
'0:03.072',-0.16853933
'0:03.075',-0.16853933
'0:03.078',-0.1741573
'0:03.081',-0.1741573
'0:03.083',-0.1741573
'0:03.086',-0.16853933
'0:03.089',-0.1741573
'0:03.092',-0.17977528
'0:03.094',-0.18539326
'0:03.097',-0.1741573
'0:03.100',-0.15730337
'0:03.103',-0.16292135
'0:03.106',-0.1741573
'0:03.108',-0.17977528
'0:03.111',-0.16292135
'0:03.114',-0.15168539
'0:03.117',-0.15730337
'0:03.119',-0.15730337
'0:03.122',-0.15168539
'0:03.125',-0.15168539
'0:03.128',-0.15730337
'0:03.131',-0.15730337
'0:03.133',-0.15168539
'0:03.136',-0.15168539
'0:03.139',-0.15730337
'0:03.142',-0.16853933
'0:03.144',-0.16853933
'0:03.147',-0.15168539
'0:03.150',-0.13483146
'0:03.153',-0.14606742
'0:03.156',-0.16292135
'0:03.158',-0.16853933
'0:03.161',-0.15730337
'0:03.164',-0.14606742
'0:03.167',-0.13483146
'0:03.169',-0.14044944
'0:03.172',-0.15730337
'0:03.175',-0.16853933
'0:03.178',-0.15730337
'0:03.181',-0.15168539
'0:03.183',-0.14044944
'0:03.186',-0.14044944
'0:03.189',-0.15168539
'0:03.192',-0.15730337
'0:03.194',-0.16853933
'0:03.197',-0.15730337
'0:03.200',-0.14606742
'0:03.203',-0.14044944
'0:03.206',-0.15168539
'0:03.208',-0.15730337
'0:03.211',-0.15730337
'0:03.214',-0.15168539
'0:03.217',-0.15168539
'0:03.219',-0.15168539
'0:03.222',-0.15730337
'0:03.225',-0.16853933
'0:03.228',-0.16853933
'0:03.231',-0.15168539
'0:03.233',-0.14606742
'0:03.236',-0.15168539
'0:03.239',-0.16853933
'0:03.242',-0.17977528
'0:03.244',-0.1741573
'0:03.247',-0.1741573
'0:03.250',-0.18539326
'0:03.253',-0.19101124
'0:03.256',-0.19101124
'0:03.258',-0.17977528
'0:03.261',-0.16292135
'0:03.264',-0.14044944
'0:03.267',-0.14044944
'0:03.269',-0.15730337
'0:03.272',-0.17977528
'0:03.275',-0.17977528
'0:03.278',-0.1741573
'0:03.281',-0.15730337
'0:03.283',-0.16853933
'0:03.286',-0.19662921
'0:03.289',-0.20224719
'0:03.292',-0.1741573
'0:03.294',-0.15730337
'0:03.297',-0.15730337
'0:03.300',-0.1741573
'0:03.303',-0.17977528
'0:03.306',-0.18539326
'0:03.308',-0.18539326
'0:03.311',-0.18539326
'0:03.314',-0.1741573
'0:03.317',-0.16853933
'0:03.319',-0.15168539
'0:03.322',-0.13483146
'0:03.325',-0.10674157
'0:03.328',-0.1011236
'0:03.331',-0.1011236
'0:03.333',-0.11235955
'0:03.336',-0.11797753
'0:03.339',-0.11235955
'0:03.342',-0.1011236
'0:03.344',-0.08426966
'0:03.347',-0.06741573
'0:03.350',-0.06179775
'0:03.353',-0.06741573
'0:03.356',-0.07865169
'0:03.358',-0.08426966
'0:03.361',-0.08426966
'0:03.364',-0.08426966
'0:03.367',-0.08988764
'0:03.369',-0.1011236
'0:03.372',-0.11797753
'0:03.375',-0.11797753
'0:03.378',-0.11797753
'0:03.381',-0.11797753
'0:03.383',-0.13483146
'0:03.386',-0.15168539
'0:03.389',-0.15730337
'0:03.392',-0.16853933
'0:03.394',-0.18539326
'0:03.397',-0.19662921
'0:03.400',-0.20786517
'0:03.403',-0.20786517
'0:03.406',-0.20224719
'0:03.408',-0.19662921
'0:03.411',-0.20224719
'0:03.414',-0.20786517
'0:03.417',-0.21348315
'0:03.419',-0.21910112
'0:03.422',-0.2247191
'0:03.425',-0.23595506
'0:03.428',-0.2247191
'0:03.431',-0.20224719
'0:03.433',-0.20224719
'0:03.436',-0.2247191
'0:03.439',-0.23595506
'0:03.442',-0.23595506
'0:03.444',-0.23595506
'0:03.447',-0.2247191
'0:03.450',-0.21348315
'0:03.453',-0.20786517
'0:03.456',-0.2247191
'0:03.458',-0.2752809
'0:03.461',-0.32022472
'0:03.464',-0.33707865
'0:03.467',-0.30898876
'0:03.469',-0.21910112
'0:03.472',-0.08988764
'0:03.475',0.06179775
'0:03.478',0.24157303
'0:03.481',0.46067416
'0:03.483',0.70224719
'0:03.486',0.98314607
'0:03.489',1.29213483
'0:03.492',1.58988764
'0:03.494',1.75842697
'0:03.497',1.6741573
'0:03.500',1.32022472
'0:03.503',0.75842697
'0:03.506',0.21348315
'0:03.508',-0.08426966
'0:03.511',-0.12359551
'0:03.514',-0.05617978
'0:03.517',-0.0505618
'0:03.519',-0.09550562
'0:03.522',-0.13483146
'0:03.525',-0.15730337
'0:03.528',-0.1741573
'0:03.531',-0.19101124
'0:03.533',-0.20786517
'0:03.536',-0.23595506
'0:03.539',-0.26404494
'0:03.542',-0.26404494
'0:03.544',-0.24157303
'0:03.547',-0.21910112
'0:03.550',-0.23033708
'0:03.553',-0.24719101
'0:03.556',-0.25842697
'0:03.558',-0.25842697
'0:03.561',-0.24719101
'0:03.564',-0.2247191
'0:03.567',-0.2247191
'0:03.569',-0.23595506
'0:03.572',-0.24719101
'0:03.575',-0.24157303
'0:03.578',-0.23595506
'0:03.581',-0.23033708
'0:03.583',-0.21910112
'0:03.586',-0.21910112
'0:03.589',-0.2247191
'0:03.592',-0.2247191
'0:03.594',-0.21910112
'0:03.597',-0.20786517
'0:03.600',-0.20786517
'0:03.603',-0.21348315
'0:03.606',-0.21348315
'0:03.608',-0.19101124
'0:03.611',-0.1741573
'0:03.614',-0.17977528
'0:03.617',-0.19101124
'0:03.619',-0.19101124
'0:03.622',-0.18539326
'0:03.625',-0.1741573
'0:03.628',-0.16853933
'0:03.631',-0.15168539
'0:03.633',-0.15168539
'0:03.636',-0.15168539
'0:03.639',-0.15168539
'0:03.642',-0.15168539
'0:03.644',-0.14606742
'0:03.647',-0.12921348
'0:03.650',-0.11797753
'0:03.653',-0.11235955
'0:03.656',-0.09550562
'0:03.658',-0.08426966
'0:03.661',-0.06741573
'0:03.664',-0.0505618
'0:03.667',-0.03932584
'0:03.669',-0.02247191
'0:03.672',-0.00561798
'0:03.675',0.00561798
'0:03.678',0.02247191
'0:03.681',0.0505618
'0:03.683',0.07303371
'0:03.686',0.08426966
'0:03.689',0.08426966
'0:03.692',0.09550562
'0:03.694',0.11235955
'0:03.697',0.13483146
'0:03.700',0.14606742
'0:03.703',0.15168539
'0:03.706',0.15168539
'0:03.708',0.16292135
'0:03.711',0.1741573
'0:03.714',0.20786517
'0:03.717',0.21910112
'0:03.719',0.20786517
'0:03.722',0.19662921
'0:03.725',0.19101124
'0:03.728',0.19101124
'0:03.731',0.18539326
'0:03.733',0.17977528
'0:03.736',0.15168539
'0:03.739',0.12359551
'0:03.742',0.09550562
'0:03.744',0.07303371
'0:03.747',0.05617978
'0:03.750',0.03932584
'0:03.753',0.02247191
'0:03.756',0
'0:03.758',-0.02247191
'0:03.761',-0.03932584
'0:03.764',-0.0505618
'0:03.767',-0.06179775
'0:03.769',-0.06741573
'0:03.772',-0.08988764
'0:03.775',-0.11797753
'0:03.778',-0.12359551
'0:03.781',-0.12359551
'0:03.783',-0.13483146
'0:03.786',-0.14044944
'0:03.789',-0.14606742
'0:03.792',-0.14044944
'0:03.794',-0.14044944
'0:03.797',-0.15730337
'0:03.800',-0.16853933
'0:03.803',-0.16292135
'0:03.806',-0.15168539
'0:03.808',-0.15168539
'0:03.811',-0.15730337
'0:03.814',-0.16292135
'0:03.817',-0.16853933
'0:03.819',-0.15730337
'0:03.822',-0.15168539
'0:03.825',-0.15730337
'0:03.828',-0.15730337
'0:03.831',-0.15730337
'0:03.833',-0.15168539
'0:03.836',-0.15730337
'0:03.839',-0.16853933
'0:03.842',-0.1741573
'0:03.844',-0.17977528
'0:03.847',-0.16853933
'0:03.850',-0.15730337
'0:03.853',-0.15730337
'0:03.856',-0.15730337
'0:03.858',-0.15168539
'0:03.861',-0.14606742
'0:03.864',-0.15168539
'0:03.867',-0.15730337
'0:03.869',-0.15730337
'0:03.872',-0.16853933
'0:03.875',-0.1741573
'0:03.878',-0.1741573
'0:03.881',-0.15730337
'0:03.883',-0.14606742
'0:03.886',-0.15168539
'0:03.889',-0.16292135
'0:03.892',-0.1741573
'0:03.894',-0.16853933
'0:03.897',-0.15730337
'0:03.900',-0.14044944
'0:03.903',-0.13483146
'0:03.906',-0.14044944
'0:03.908',-0.14606742
'0:03.911',-0.15168539
'0:03.914',-0.15730337
'0:03.917',-0.15168539
'0:03.919',-0.13483146
'0:03.922',-0.12359551
'0:03.925',-0.14044944
'0:03.928',-0.15168539
'0:03.931',-0.14606742
'0:03.933',-0.14044944
'0:03.936',-0.13483146
'0:03.939',-0.14044944
'0:03.942',-0.14606742
'0:03.944',-0.14044944
'0:03.947',-0.14044944
'0:03.950',-0.14044944
'0:03.953',-0.14044944
'0:03.956',-0.14606742
'0:03.958',-0.15168539
'0:03.961',-0.16292135
'0:03.964',-0.16292135
'0:03.967',-0.15168539
'0:03.969',-0.14606742
'0:03.972',-0.15168539
'0:03.975',-0.15730337
'0:03.978',-0.15730337
'0:03.981',-0.16292135
'0:03.983',-0.16292135
'0:03.986',-0.15730337
'0:03.989',-0.14606742
'0:03.992',-0.13483146
'0:03.994',-0.14044944
'0:03.997',-0.14044944
'0:04.000',-0.15168539
'0:04.003',-0.15730337
'0:04.006',-0.16853933
'0:04.008',-0.16853933
'0:04.011',-0.16853933
'0:04.014',-0.15730337
'0:04.017',-0.16292135
'0:04.019',-0.16853933
'0:04.022',-0.1741573
'0:04.025',-0.1741573
'0:04.028',-0.16853933
'0:04.031',-0.15730337
'0:04.033',-0.15730337
'0:04.036',-0.15730337
'0:04.039',-0.1741573
'0:04.042',-0.17977528
'0:04.044',-0.1741573
'0:04.047',-0.16853933
'0:04.050',-0.15730337
'0:04.053',-0.14606742
'0:04.056',-0.14606742
'0:04.058',-0.15730337
'0:04.061',-0.16292135
'0:04.064',-0.16853933
'0:04.067',-0.1741573
'0:04.069',-0.18539326
'0:04.072',-0.19101124
'0:04.075',-0.17977528
'0:04.078',-0.16853933
'0:04.081',-0.15730337
'0:04.083',-0.15168539
'0:04.086',-0.16853933
'0:04.089',-0.18539326
'0:04.092',-0.19101124
'0:04.094',-0.18539326
'0:04.097',-0.16853933
'0:04.100',-0.15730337
'0:04.103',-0.16853933
'0:04.106',-0.1741573
'0:04.108',-0.16292135
'0:04.111',-0.13483146
'0:04.114',-0.1011236
'0:04.117',-0.08426966
'0:04.119',-0.08988764
'0:04.122',-0.10674157
'0:04.125',-0.12359551
'0:04.128',-0.12359551
'0:04.131',-0.1011236
'0:04.133',-0.08426966
'0:04.136',-0.06741573
'0:04.139',-0.06179775
'0:04.142',-0.06741573
'0:04.144',-0.05617978
'0:04.147',-0.0505618
'0:04.150',-0.0505618
'0:04.153',-0.06179775
'0:04.156',-0.08988764
'0:04.158',-0.1011236
'0:04.161',-0.10674157
'0:04.164',-0.10674157
'0:04.167',-0.11235955
'0:04.169',-0.10674157
'0:04.172',-0.11797753
'0:04.175',-0.13483146
'0:04.178',-0.15168539
'0:04.181',-0.15168539
'0:04.183',-0.15168539
'0:04.186',-0.14606742
'0:04.189',-0.15730337
'0:04.192',-0.17977528
'0:04.194',-0.19101124
'0:04.197',-0.19662921
'0:04.200',-0.20224719
'0:04.203',-0.21348315
'0:04.206',-0.2247191
'0:04.208',-0.2247191
'0:04.211',-0.20786517
'0:04.214',-0.20224719
'0:04.217',-0.20786517
'0:04.219',-0.21348315
'0:04.222',-0.21348315
'0:04.225',-0.21348315
'0:04.228',-0.21348315
'0:04.231',-0.20786517
'0:04.233',-0.20786517
'0:04.236',-0.21348315
'0:04.239',-0.21348315
'0:04.242',-0.21348315
'0:04.244',-0.21348315
'0:04.247',-0.21348315
'0:04.250',-0.24157303
'0:04.253',-0.29213483
'0:04.256',-0.33146067
'0:04.258',-0.3258427
'0:04.261',-0.25842697
'0:04.264',-0.12359551
'0:04.267',0.03932584
'0:04.269',0.21910112
'0:04.272',0.41573034
'0:04.275',0.64044944
'0:04.278',0.8988764
'0:04.281',1.20786517
'0:04.283',1.5505618
'0:04.286',1.78651685
'0:04.289',1.75842697
'0:04.292',1.47752809
'0:04.294',0.98314607
'0:04.297',0.42696629
'0:04.300',0.02247191
'0:04.303',-0.1011236
'0:04.306',-0.0505618
'0:04.308',-0.01685393
'0:04.311',-0.05617978
'0:04.314',-0.1011236
'0:04.317',-0.12359551
'0:04.319',-0.14044944
'0:04.322',-0.1741573
'0:04.325',-0.19662921
'0:04.328',-0.19662921
'0:04.331',-0.20224719
'0:04.333',-0.21348315
'0:04.336',-0.2247191
'0:04.339',-0.21910112
'0:04.342',-0.21348315
'0:04.344',-0.23033708
'0:04.347',-0.24157303
'0:04.350',-0.24157303
'0:04.353',-0.24157303
'0:04.356',-0.24719101
'0:04.358',-0.24157303
'0:04.361',-0.21910112
'0:04.364',-0.20786517
'0:04.367',-0.20786517
'0:04.369',-0.21348315
'0:04.372',-0.2247191
'0:04.375',-0.23595506
'0:04.378',-0.2247191
'0:04.381',-0.20786517
'0:04.383',-0.19101124
'0:04.386',-0.20224719
'0:04.389',-0.20786517
'0:04.392',-0.20224719
'0:04.394',-0.19101124
'0:04.397',-0.17977528
'0:04.400',-0.18539326
'0:04.403',-0.19101124
'0:04.406',-0.19662921
'0:04.408',-0.19101124
'0:04.411',-0.17977528
'0:04.414',-0.16853933
'0:04.417',-0.15730337
'0:04.419',-0.15168539
'0:04.422',-0.15730337
'0:04.425',-0.15730337
'0:04.428',-0.15730337
'0:04.431',-0.15730337
'0:04.433',-0.14044944
'0:04.436',-0.12921348
'0:04.439',-0.12359551
'0:04.442',-0.11797753
'0:04.444',-0.11797753
'0:04.447',-0.10674157
'0:04.450',-0.08988764
'0:04.453',-0.07303371
'0:04.456',-0.06741573
'0:04.458',-0.06179775
'0:04.461',-0.03932584
'0:04.464',-0.01123596
'0:04.467',0
'0:04.469',0.01685393
'0:04.472',0.02247191
'0:04.475',0.02808989
'0:04.478',0.0505618
'0:04.481',0.07303371
'0:04.483',0.09550562
'0:04.486',0.11797753
'0:04.489',0.12921348
'0:04.492',0.14044944
'0:04.494',0.15168539
'0:04.497',0.15730337
'0:04.500',0.1741573
'0:04.503',0.19101124
'0:04.506',0.19101124
'0:04.508',0.18539326
'0:04.511',0.19101124
'0:04.514',0.21348315
'0:04.517',0.21910112
'0:04.519',0.20224719
'0:04.522',0.19662921
'0:04.525',0.19662921
'0:04.528',0.18539326
'0:04.531',0.15730337
'0:04.533',0.13483146
'0:04.536',0.11235955
'0:04.539',0.08988764
'0:04.542',0.07303371
'0:04.544',0.05617978
'0:04.547',0.04494382
'0:04.550',0.01685393
'0:04.553',0
'0:04.556',-0.02247191
'0:04.558',-0.03370787
'0:04.561',-0.0505618
'0:04.564',-0.07303371
'0:04.567',-0.08426966
'0:04.569',-0.09550562
'0:04.572',-0.10674157
'0:04.575',-0.11797753
'0:04.578',-0.12359551
'0:04.581',-0.12359551
'0:04.583',-0.12359551
'0:04.586',-0.13483146
'0:04.589',-0.15168539
'0:04.592',-0.15730337
'0:04.594',-0.15168539
'0:04.597',-0.14044944
'0:04.600',-0.14044944
'0:04.603',-0.14044944
'0:04.606',-0.15168539
'0:04.608',-0.16292135
'0:04.611',-0.1741573
'0:04.614',-0.16853933
'0:04.617',-0.15168539
'0:04.619',-0.15168539
'0:04.622',-0.15168539
'0:04.625',-0.15730337
'0:04.628',-0.15730337
'0:04.631',-0.14044944
'0:04.633',-0.13483146
'0:04.636',-0.13483146
'0:04.639',-0.15730337
'0:04.642',-0.1741573
'0:04.644',-0.17977528
'0:04.647',-0.16853933
'0:04.650',-0.15168539
'0:04.653',-0.14044944
'0:04.656',-0.13483146
'0:04.658',-0.14044944
'0:04.661',-0.15168539
'0:04.664',-0.15168539
'0:04.667',-0.14044944
'0:04.669',-0.14044944
'0:04.672',-0.14606742
'0:04.675',-0.15730337
'0:04.678',-0.15730337
'0:04.681',-0.15168539
'0:04.683',-0.13483146
'0:04.686',-0.12921348
'0:04.689',-0.14044944
'0:04.692',-0.15730337
'0:04.694',-0.15168539
'0:04.697',-0.14044944
'0:04.700',-0.13483146
'0:04.703',-0.14044944
'0:04.706',-0.15730337
'0:04.708',-0.16853933
'0:04.711',-0.16853933
'0:04.714',-0.15730337
'0:04.717',-0.14044944
'0:04.719',-0.13483146
'0:04.722',-0.13483146
'0:04.725',-0.14044944
'0:04.728',-0.15168539
'0:04.731',-0.14606742
'0:04.733',-0.14044944
'0:04.736',-0.12921348
'0:04.739',-0.12921348
'0:04.742',-0.14044944
'0:04.744',-0.14606742
'0:04.747',-0.14606742
'0:04.750',-0.15168539
'0:04.753',-0.15730337
'0:04.756',-0.15168539
'0:04.758',-0.14044944
'0:04.761',-0.13483146
'0:04.764',-0.14044944
'0:04.767',-0.14044944
'0:04.769',-0.13483146
'0:04.772',-0.13483146
'0:04.775',-0.13483146
'0:04.778',-0.12921348
'0:04.781',-0.13483146
'0:04.783',-0.14606742
'0:04.786',-0.16292135
'0:04.789',-0.16853933
'0:04.792',-0.15730337
'0:04.794',-0.14044944
'0:04.797',-0.13483146
'0:04.800',-0.15168539
'0:04.803',-0.16853933
'0:04.806',-0.1741573
'0:04.808',-0.16853933
'0:04.811',-0.15168539
'0:04.814',-0.14044944
'0:04.817',-0.13483146
'0:04.819',-0.15168539
'0:04.822',-0.16853933
'0:04.825',-0.16853933
'0:04.828',-0.15730337
'0:04.831',-0.15730337
'0:04.833',-0.1741573
'0:04.836',-0.17977528
'0:04.839',-0.1741573
'0:04.842',-0.16853933
'0:04.844',-0.16292135
'0:04.847',-0.16292135
'0:04.850',-0.16853933
'0:04.853',-0.16853933
'0:04.856',-0.1741573
'0:04.858',-0.1741573
'0:04.861',-0.17977528
'0:04.864',-0.17977528
'0:04.867',-0.1741573
'0:04.869',-0.1741573
'0:04.872',-0.16853933
'0:04.875',-0.16292135
'0:04.878',-0.15730337
'0:04.881',-0.15168539
'0:04.883',-0.15168539
'0:04.886',-0.15730337
'0:04.889',-0.16853933
'0:04.892',-0.15730337
'0:04.894',-0.15168539
'0:04.897',-0.15168539
'0:04.900',-0.15168539
'0:04.903',-0.15730337
'0:04.906',-0.15168539
'0:04.908',-0.14044944
'0:04.911',-0.12359551
'0:04.914',-0.1011236
'0:04.917',-0.09550562
'0:04.919',-0.10674157
'0:04.922',-0.12359551
'0:04.925',-0.12359551
'0:04.928',-0.10674157
'0:04.931',-0.08426966
'0:04.933',-0.07303371
'0:04.936',-0.06741573
'0:04.939',-0.07303371
'0:04.942',-0.07303371
'0:04.944',-0.06741573
'0:04.947',-0.05617978
'0:04.950',-0.05617978
'0:04.953',-0.08426966
'0:04.956',-0.10674157
'0:04.958',-0.11797753
'0:04.961',-0.11235955
'0:04.964',-0.10674157
'0:04.967',-0.10674157
'0:04.969',-0.11797753
'0:04.972',-0.13483146
'0:04.975',-0.14044944
'0:04.978',-0.13483146
'0:04.981',-0.14044944
'0:04.983',-0.16292135
'0:04.986',-0.18539326
'0:04.989',-0.20224719
'0:04.992',-0.19101124
'0:04.994',-0.19101124
'0:04.997',-0.20786517
'0:05.000',-0.21348315
'0:05.003',-0.20786517
'0:05.006',-0.20224719
'0:05.008',-0.19662921
'0:05.011',-0.20786517
'0:05.014',-0.21910112
'0:05.017',-0.21910112
'0:05.019',-0.21348315
'0:05.022',-0.20786517
'0:05.025',-0.21910112
'0:05.028',-0.21348315
'0:05.031',-0.20224719
'0:05.033',-0.20224719
'0:05.036',-0.21348315
'0:05.039',-0.21348315
'0:05.042',-0.20224719
'0:05.044',-0.20786517
'0:05.047',-0.25280899
'0:05.050',-0.30898876
'0:05.053',-0.34269663
'0:05.056',-0.3258427
'0:05.058',-0.23033708
'0:05.061',-0.07303371
'0:05.064',0.08426966
'0:05.067',0.26966292
'0:05.069',0.47752809
'0:05.072',0.73595506
'0:05.075',1.03370787
'0:05.078',1.36516854
'0:05.081',1.67977528
'0:05.083',1.8258427
'0:05.086',1.70786517
'0:05.089',1.33146067
'0:05.092',0.74157303
'0:05.094',0.20224719
'0:05.097',-0.0505618
'0:05.100',-0.07303371
'0:05.103',-0.02247191
'0:05.106',-0.0505618
'0:05.108',-0.1011236
'0:05.111',-0.14606742
'0:05.114',-0.15730337
'0:05.117',-0.16853933
'0:05.119',-0.18539326
'0:05.122',-0.21910112
'0:05.125',-0.25280899
'0:05.128',-0.25280899
'0:05.131',-0.23595506
'0:05.133',-0.2247191
'0:05.136',-0.23033708
'0:05.139',-0.24157303
'0:05.142',-0.23595506
'0:05.144',-0.23595506
'0:05.147',-0.23595506
'0:05.150',-0.23595506
'0:05.153',-0.2247191
'0:05.156',-0.2247191
'0:05.158',-0.23033708
'0:05.161',-0.21910112
'0:05.164',-0.19662921
'0:05.167',-0.20224719
'0:05.169',-0.21910112
'0:05.172',-0.23033708
'0:05.175',-0.21910112
'0:05.178',-0.21910112
'0:05.181',-0.21910112
'0:05.183',-0.20786517
'0:05.186',-0.19101124
'0:05.189',-0.19101124
'0:05.192',-0.20786517
'0:05.194',-0.20786517
'0:05.197',-0.19101124
'0:05.200',-0.16853933
'0:05.203',-0.16292135
'0:05.206',-0.1741573
'0:05.208',-0.18539326
'0:05.211',-0.1741573
'0:05.214',-0.15730337
'0:05.217',-0.15168539
'0:05.219',-0.15168539
'0:05.222',-0.15730337
'0:05.225',-0.16853933
'0:05.228',-0.15730337
'0:05.231',-0.13483146
'0:05.233',-0.10674157
'0:05.236',-0.10674157
'0:05.239',-0.10674157
'0:05.242',-0.09550562
'0:05.244',-0.08988764
'0:05.247',-0.08988764
'0:05.250',-0.07865169
'0:05.253',-0.0505618
'0:05.256',-0.02247191
'0:05.258',-0.01123596
'0:05.261',0
'0:05.264',0.00561798
'0:05.267',0.03370787
'0:05.269',0.05617978
'0:05.272',0.06179775
'0:05.275',0.07303371
'0:05.278',0.07865169
'0:05.281',0.08426966
'0:05.283',0.10674157
'0:05.286',0.14044944
'0:05.289',0.15730337
'0:05.292',0.16292135
'0:05.294',0.1741573
'0:05.297',0.18539326
'0:05.300',0.19101124
'0:05.303',0.20224719
'0:05.306',0.20224719
'0:05.308',0.19662921
'0:05.311',0.20224719
'0:05.314',0.20786517
'0:05.317',0.20224719
'0:05.319',0.19101124
'0:05.322',0.18539326
'0:05.325',0.16292135
'0:05.328',0.14044944
'0:05.331',0.12359551
'0:05.333',0.10674157
'0:05.336',0.06741573
'0:05.339',0.03370787
'0:05.342',0.01685393
'0:05.344',0
'0:05.347',0
'0:05.350',-0.01123596
'0:05.353',-0.03370787
'0:05.356',-0.05617978
'0:05.358',-0.08426966
'0:05.361',-0.1011236
'0:05.364',-0.10674157
'0:05.367',-0.11235955
'0:05.369',-0.11797753
'0:05.372',-0.12921348
'0:05.375',-0.14044944
'0:05.378',-0.14044944
'0:05.381',-0.14606742
'0:05.383',-0.15168539
'0:05.386',-0.15168539
'0:05.389',-0.14044944
'0:05.392',-0.14606742
'0:05.394',-0.15730337
'0:05.397',-0.15168539
'0:05.400',-0.14044944
'0:05.403',-0.14044944
'0:05.406',-0.15168539
'0:05.408',-0.16292135
'0:05.411',-0.16853933
'0:05.414',-0.16853933
'0:05.417',-0.1741573
'0:05.419',-0.1741573
'0:05.422',-0.16853933
'0:05.425',-0.15730337
'0:05.428',-0.15730337
'0:05.431',-0.16292135
'0:05.433',-0.16853933
'0:05.436',-0.1741573
'0:05.439',-0.18539326
'0:05.442',-0.18539326
'0:05.444',-0.1741573
'0:05.447',-0.15730337
'0:05.450',-0.14606742
'0:05.453',-0.15730337
'0:05.456',-0.16853933
'0:05.458',-0.1741573
'0:05.461',-0.16853933
'0:05.464',-0.15168539
'0:05.467',-0.14044944
'0:05.469',-0.15168539
'0:05.472',-0.15730337
'0:05.475',-0.15730337
'0:05.478',-0.15168539
'0:05.481',-0.14606742
'0:05.483',-0.14044944
'0:05.486',-0.13483146
'0:05.489',-0.14606742
'0:05.492',-0.16292135
'0:05.494',-0.16853933
'0:05.497',-0.15730337
'0:05.500',-0.14606742
'0:05.503',-0.13483146
'0:05.506',-0.14606742
'0:05.508',-0.15168539
'0:05.511',-0.14044944
'0:05.514',-0.12921348
'0:05.517',-0.12921348
'0:05.519',-0.14044944
'0:05.522',-0.15730337
'0:05.525',-0.15730337
'0:05.528',-0.15168539
'0:05.531',-0.15168539
'0:05.533',-0.14606742
'0:05.536',-0.13483146
'0:05.539',-0.13483146
'0:05.542',-0.14044944
'0:05.544',-0.14606742
'0:05.547',-0.14606742
'0:05.550',-0.14606742
'0:05.553',-0.14606742
'0:05.556',-0.14044944
'0:05.558',-0.14044944
'0:05.561',-0.13483146
'0:05.564',-0.14044944
'0:05.567',-0.14044944
'0:05.569',-0.14044944
'0:05.572',-0.15168539
'0:05.575',-0.15730337
'0:05.578',-0.16853933
'0:05.581',-0.16853933
'0:05.583',-0.15730337
'0:05.586',-0.14606742
'0:05.589',-0.15168539
'0:05.592',-0.15168539
'0:05.594',-0.15730337
'0:05.597',-0.16853933
'0:05.600',-0.1741573
'0:05.603',-0.1741573
'0:05.606',-0.17977528
'0:05.608',-0.18539326
'0:05.611',-0.1741573
'0:05.614',-0.15730337
'0:05.617',-0.15168539
'0:05.619',-0.15168539
'0:05.622',-0.16853933
'0:05.625',-0.18539326
'0:05.628',-0.18539326
'0:05.631',-0.1741573
'0:05.633',-0.1741573
'0:05.636',-0.18539326
'0:05.639',-0.19662921
'0:05.642',-0.19662921
'0:05.644',-0.18539326
'0:05.647',-0.16853933
'0:05.650',-0.15730337
'0:05.653',-0.1741573
'0:05.656',-0.18539326
'0:05.658',-0.1741573
'0:05.661',-0.16853933
'0:05.664',-0.16853933
'0:05.667',-0.16853933
'0:05.669',-0.18539326
'0:05.672',-0.19101124
'0:05.675',-0.17977528
'0:05.678',-0.15168539
'0:05.681',-0.13483146
'0:05.683',-0.14044944
'0:05.686',-0.13483146
'0:05.689',-0.11797753
'0:05.692',-0.11235955
'0:05.694',-0.10674157
'0:05.697',-0.11235955
'0:05.700',-0.11797753
'0:05.703',-0.11797753
'0:05.706',-0.11235955
'0:05.708',-0.1011236
'0:05.711',-0.1011236
'0:05.714',-0.07865169
'0:05.717',-0.06741573
'0:05.719',-0.0505618
'0:05.722',-0.0505618
'0:05.725',-0.06741573
'0:05.728',-0.08988764
'0:05.731',-0.10674157
'0:05.733',-0.12359551
'0:05.736',-0.14044944
'0:05.739',-0.14044944
'0:05.742',-0.13483146
'0:05.744',-0.13483146
'0:05.747',-0.14044944
'0:05.750',-0.15730337
'0:05.753',-0.1741573
'0:05.756',-0.17977528
'0:05.758',-0.18539326
'0:05.761',-0.18539326
'0:05.764',-0.17977528
'0:05.767',-0.19101124
'0:05.769',-0.21348315
'0:05.772',-0.21910112
'0:05.775',-0.21348315
'0:05.778',-0.21348315
'0:05.781',-0.21910112
'0:05.783',-0.21910112
'0:05.786',-0.21910112
'0:05.789',-0.2247191
'0:05.792',-0.2247191
'0:05.794',-0.2247191
'0:05.797',-0.21910112
'0:05.800',-0.23033708
'0:05.803',-0.23595506
'0:05.806',-0.2247191
'0:05.808',-0.20786517
'0:05.811',-0.20786517
'0:05.814',-0.20786517
'0:05.817',-0.21910112
'0:05.819',-0.23595506
'0:05.822',-0.2752809
'0:05.825',-0.3258427
'0:05.828',-0.35955056
'0:05.831',-0.34269663
'0:05.833',-0.26404494
'0:05.836',-0.12359551
'0:05.839',0.02808989
'0:05.842',0.21348315
'0:05.844',0.42696629
'0:05.847',0.6741573
'0:05.850',0.96629213
'0:05.853',1.28651685
'0:05.856',1.6011236
'0:05.858',1.78651685
'0:05.861',1.73595506
'0:05.864',1.40449438
'0:05.867',0.84269663
'0:05.869',0.26966292
'0:05.872',-0.06179775
'0:05.875',-0.12921348
'0:05.878',-0.08426966
'0:05.881',-0.06741573
'0:05.883',-0.10674157
'0:05.886',-0.15168539
'0:05.889',-0.1741573
'0:05.892',-0.17977528
'0:05.894',-0.18539326
'0:05.897',-0.20786517
'0:05.900',-0.23595506
'0:05.903',-0.25280899
'0:05.906',-0.26966292
'0:05.908',-0.26966292
'0:05.911',-0.25280899
'0:05.914',-0.24157303
'0:05.917',-0.24157303
'0:05.919',-0.24157303
'0:05.922',-0.24157303
'0:05.925',-0.24157303
'0:05.928',-0.24157303
'0:05.931',-0.23595506
'0:05.933',-0.23033708
'0:05.936',-0.23595506
'0:05.939',-0.24157303
'0:05.942',-0.23595506
'0:05.944',-0.23595506
'0:05.947',-0.23595506
'0:05.950',-0.23033708
'0:05.953',-0.2247191
'0:05.956',-0.21348315
'0:05.958',-0.21348315
'0:05.961',-0.21348315
'0:05.964',-0.20786517
'0:05.967',-0.20224719
'0:05.969',-0.20224719
'0:05.972',-0.20224719
'0:05.975',-0.19662921
'0:05.978',-0.17977528
'0:05.981',-0.17977528
'0:05.983',-0.18539326
'0:05.986',-0.19101124
'0:05.989',-0.19101124
'0:05.992',-0.17977528
'0:05.994',-0.15730337
'0:05.997',-0.15730337
'0:06.000',-0.15730337
'0:06.003',-0.15168539
'0:06.006',-0.14044944
'0:06.008',-0.14044944
'0:06.011',-0.13483146
'0:06.014',-0.11797753
'0:06.017',-0.10674157
'0:06.019',-0.08988764
'0:06.022',-0.07865169
'0:06.025',-0.07865169
'0:06.028',-0.07303371
'0:06.031',-0.05617978
'0:06.033',-0.02247191
'0:06.036',0
'0:06.039',0
'0:06.042',0
'0:06.044',0.02247191
'0:06.047',0.04494382
'0:06.050',0.06741573
'0:06.053',0.08426966
'0:06.056',0.09550562
'0:06.058',0.10674157
'0:06.061',0.12921348
'0:06.064',0.15168539
'0:06.067',0.1741573
'0:06.069',0.1741573
'0:06.072',0.16853933
'0:06.075',0.16292135
'0:06.078',0.17977528
'0:06.081',0.20224719
'0:06.083',0.20786517
'0:06.086',0.20786517
'0:06.089',0.20224719
'0:06.092',0.19101124
'0:06.094',0.18539326
'0:06.097',0.17977528
'0:06.100',0.16853933
'0:06.103',0.15168539
'0:06.106',0.12359551
'0:06.108',0.08988764
'0:06.111',0.06179775
'0:06.114',0.04494382
'0:06.117',0.03370787
'0:06.119',0.01685393
'0:06.122',-0.01685393
'0:06.125',-0.03932584
'0:06.128',-0.0505618
'0:06.131',-0.06741573
'0:06.133',-0.08426966
'0:06.136',-0.1011236
'0:06.139',-0.12359551
'0:06.142',-0.13483146
'0:06.144',-0.14044944
'0:06.147',-0.14606742
'0:06.150',-0.15168539
'0:06.153',-0.15168539
'0:06.156',-0.15168539
'0:06.158',-0.15168539
'0:06.161',-0.16292135
'0:06.164',-0.16853933
'0:06.167',-0.16853933
'0:06.169',-0.16292135
'0:06.172',-0.16853933
'0:06.175',-0.1741573
'0:06.178',-0.16853933
'0:06.181',-0.15730337
'0:06.183',-0.15168539
'0:06.186',-0.15730337
'0:06.189',-0.16853933
'0:06.192',-0.16853933
'0:06.194',-0.1741573
'0:06.197',-0.18539326
'0:06.200',-0.18539326
'0:06.203',-0.1741573
'0:06.206',-0.15730337
'0:06.208',-0.16292135
'0:06.211',-0.16853933
'0:06.214',-0.16292135
'0:06.217',-0.16292135
'0:06.219',-0.16292135
'0:06.222',-0.16292135
'0:06.225',-0.16853933
'0:06.228',-0.16853933
'0:06.231',-0.16853933
'0:06.233',-0.15730337
'0:06.236',-0.15730337
'0:06.239',-0.15730337
'0:06.242',-0.16853933
'0:06.244',-0.16853933
'0:06.247',-0.15730337
'0:06.250',-0.14044944
'0:06.253',-0.14606742
'0:06.256',-0.15168539
'0:06.258',-0.15168539
'0:06.261',-0.14606742
'0:06.264',-0.14044944
'0:06.267',-0.14606742
'0:06.269',-0.15730337
'0:06.272',-0.16853933
'0:06.275',-0.16853933
'0:06.278',-0.15730337
'0:06.281',-0.15730337
'0:06.283',-0.14606742
'0:06.286',-0.13483146
'0:06.289',-0.15168539
'0:06.292',-0.15730337
'0:06.294',-0.15730337
'0:06.297',-0.14044944
'0:06.300',-0.13483146
'0:06.303',-0.13483146
'0:06.306',-0.14606742
'0:06.308',-0.15730337
'0:06.311',-0.15730337
'0:06.314',-0.15730337
'0:06.317',-0.15168539
'0:06.319',-0.14606742
'0:06.322',-0.15168539
'0:06.325',-0.15730337
'0:06.328',-0.16292135
'0:06.331',-0.15168539
'0:06.333',-0.14606742
'0:06.336',-0.15168539
'0:06.339',-0.16853933
'0:06.342',-0.16853933
'0:06.344',-0.16853933
'0:06.347',-0.15730337
'0:06.350',-0.15730337
'0:06.353',-0.15730337
'0:06.356',-0.16292135
'0:06.358',-0.1741573
'0:06.361',-0.1741573
'0:06.364',-0.15730337
'0:06.367',-0.15730337
'0:06.369',-0.16292135
'0:06.372',-0.16853933
'0:06.375',-0.1741573
'0:06.378',-0.1741573
'0:06.381',-0.16853933
'0:06.383',-0.15730337
'0:06.386',-0.15730337
'0:06.389',-0.16853933
'0:06.392',-0.1741573
'0:06.394',-0.18539326
'0:06.397',-0.1741573
'0:06.400',-0.15730337
'0:06.403',-0.16853933
'0:06.406',-0.19101124
'0:06.408',-0.19662921
'0:06.411',-0.1741573
'0:06.414',-0.15730337
'0:06.417',-0.15168539
'0:06.419',-0.16853933
'0:06.422',-0.18539326
'0:06.425',-0.19101124
'0:06.428',-0.17977528
'0:06.431',-0.15168539
'0:06.433',-0.14606742
'0:06.436',-0.15730337
'0:06.439',-0.1741573
'0:06.442',-0.17977528
'0:06.444',-0.16853933
'0:06.447',-0.15730337
'0:06.450',-0.15730337
'0:06.453',-0.1741573
'0:06.456',-0.17977528
'0:06.458',-0.15730337
'0:06.461',-0.12921348
'0:06.464',-0.1011236
'0:06.467',-0.09550562
'0:06.469',-0.10674157
'0:06.472',-0.12359551
'0:06.475',-0.12921348
'0:06.478',-0.12359551
'0:06.481',-0.11235955
'0:06.483',-0.1011236
'0:06.486',-0.08988764
'0:06.489',-0.07865169
'0:06.492',-0.08426966
'0:06.494',-0.07865169
'0:06.497',-0.07303371
'0:06.500',-0.06741573
'0:06.503',-0.07303371
'0:06.506',-0.1011236
'0:06.508',-0.12359551
'0:06.511',-0.12921348
'0:06.514',-0.12359551
'0:06.517',-0.11797753
'0:06.519',-0.12359551
'0:06.522',-0.13483146
'0:06.525',-0.14606742
'0:06.528',-0.15168539
'0:06.531',-0.15168539
'0:06.533',-0.15730337
'0:06.536',-0.16853933
'0:06.539',-0.18539326
'0:06.542',-0.19101124
'0:06.544',-0.19101124
'0:06.547',-0.20224719
'0:06.550',-0.21348315
'0:06.553',-0.2247191
'0:06.556',-0.2247191
'0:06.558',-0.21910112
'0:06.561',-0.21910112
'0:06.564',-0.21348315
'0:06.567',-0.21348315
'0:06.569',-0.21910112
'0:06.572',-0.23033708
'0:06.575',-0.23033708
'0:06.578',-0.21910112
'0:06.581',-0.21348315
'0:06.583',-0.2247191
'0:06.586',-0.23595506
'0:06.589',-0.2247191
'0:06.592',-0.20786517
'0:06.594',-0.20786517
'0:06.597',-0.23033708
'0:06.600',-0.26404494
'0:06.603',-0.30337079
'0:06.606',-0.33146067
'0:06.608',-0.32022472
'0:06.611',-0.23033708
'0:06.614',-0.08426966
'0:06.617',0.07865169
'0:06.619',0.26966292
'0:06.622',0.47752809
'0:06.625',0.71348315
'0:06.628',0.99438202
'0:06.631',1.31460674
'0:06.633',1.63483146
'0:06.636',1.78651685
'0:06.639',1.6741573
'0:06.642',1.33146067
'0:06.644',0.80337079
'0:06.647',0.25842697
'0:06.650',-0.06741573
'0:06.653',-0.14044944
'0:06.656',-0.06741573
'0:06.658',-0.02808989
'0:06.661',-0.06741573
'0:06.664',-0.10674157
'0:06.667',-0.14044944
'0:06.669',-0.17977528
'0:06.672',-0.20786517
'0:06.675',-0.2247191
'0:06.678',-0.23595506
'0:06.681',-0.24157303
'0:06.683',-0.25280899
'0:06.686',-0.25280899
'0:06.689',-0.25280899
'0:06.692',-0.25280899
'0:06.694',-0.24719101
'0:06.697',-0.24157303
'0:06.700',-0.24719101
'0:06.703',-0.25280899
'0:06.706',-0.25280899
'0:06.708',-0.24157303
'0:06.711',-0.23595506
'0:06.714',-0.2247191
'0:06.717',-0.21348315
'0:06.719',-0.21910112
'0:06.722',-0.2247191
'0:06.725',-0.23033708
'0:06.728',-0.21910112
'0:06.731',-0.19662921
'0:06.733',-0.19101124
'0:06.736',-0.20786517
'0:06.739',-0.2247191
'0:06.742',-0.21910112
'0:06.744',-0.20786517
'0:06.747',-0.20786517
'0:06.750',-0.20786517
'0:06.753',-0.20224719
'0:06.756',-0.18539326
'0:06.758',-0.1741573
'0:06.761',-0.18539326
'0:06.764',-0.17977528
'0:06.767',-0.16292135
'0:06.769',-0.15730337
'0:06.772',-0.16853933
'0:06.775',-0.15730337
'0:06.778',-0.15168539
'0:06.781',-0.15168539
'0:06.783',-0.14044944
'0:06.786',-0.13483146
'0:06.789',-0.12921348
'0:06.792',-0.12359551
'0:06.794',-0.12359551
'0:06.797',-0.12359551
'0:06.800',-0.1011236
'0:06.803',-0.07303371
'0:06.806',-0.0505618
'0:06.808',-0.03932584
'0:06.811',-0.03370787
'0:06.814',-0.00561798
'0:06.817',0.00561798
'0:06.819',0.01685393
'0:06.822',0.02247191
'0:06.825',0.04494382
'0:06.828',0.06741573
'0:06.831',0.08426966
'0:06.833',0.08988764
'0:06.836',0.1011236
'0:06.839',0.12359551
'0:06.842',0.14044944
'0:06.844',0.15168539
'0:06.847',0.16853933
'0:06.850',0.18539326
'0:06.853',0.19101124
'0:06.856',0.19662921
'0:06.858',0.20224719
'0:06.861',0.20224719
'0:06.864',0.20786517
'0:06.867',0.21910112
'0:06.869',0.20786517
'0:06.872',0.18539326
'0:06.875',0.16853933
'0:06.878',0.1741573
'0:06.881',0.16292135
'0:06.883',0.13483146
'0:06.886',0.10674157
'0:06.889',0.07303371
'0:06.892',0.03932584
'0:06.894',0.01685393
'0:06.897',0
'0:06.900',-0.01685393
'0:06.903',-0.04494382
'0:06.906',-0.07303371
'0:06.908',-0.08988764
'0:06.911',-0.09550562
'0:06.914',-0.08426966
'0:06.917',-0.09550562
'0:06.919',-0.11235955
'0:06.922',-0.11797753
'0:06.925',-0.12921348
'0:06.928',-0.14044944
'0:06.931',-0.14044944
'0:06.933',-0.14606742
'0:06.936',-0.15168539
'0:06.939',-0.14044944
'0:06.942',-0.13483146
'0:06.944',-0.14044944
'0:06.947',-0.15168539
'0:06.950',-0.15730337
'0:06.953',-0.16292135
'0:06.956',-0.16853933
'0:06.958',-0.16853933
'0:06.961',-0.16292135
'0:06.964',-0.16853933
'0:06.967',-0.16853933
'0:06.969',-0.15730337
'0:06.972',-0.15730337
'0:06.975',-0.16292135
'0:06.978',-0.16853933
'0:06.981',-0.16853933
'0:06.983',-0.15730337
'0:06.986',-0.15168539
'0:06.989',-0.15168539
'0:06.992',-0.14044944
'0:06.994',-0.14044944
'0:06.997',-0.15168539
'0:07.000',-0.16853933
'0:07.003',-0.1741573
'0:07.006',-0.18539326
'0:07.008',-0.19662921
'0:07.011',-0.18539326
'0:07.014',-0.16853933
'0:07.017',-0.15168539
'0:07.019',-0.14606742
'0:07.022',-0.14606742
'0:07.025',-0.15168539
'0:07.028',-0.14606742
'0:07.031',-0.14606742
'0:07.033',-0.14044944
'0:07.036',-0.14606742
'0:07.039',-0.15730337
'0:07.042',-0.1741573
'0:07.044',-0.1741573
'0:07.047',-0.15730337
'0:07.050',-0.15168539
'0:07.053',-0.14044944
'0:07.056',-0.14044944
'0:07.058',-0.14606742
'0:07.061',-0.15168539
'0:07.064',-0.15168539
'0:07.067',-0.14606742
'0:07.069',-0.14606742
'0:07.072',-0.15168539
'0:07.075',-0.15730337
'0:07.078',-0.15730337
'0:07.081',-0.14606742
'0:07.083',-0.14044944
'0:07.086',-0.14044944
'0:07.089',-0.15168539
'0:07.092',-0.15730337
'0:07.094',-0.15730337
'0:07.097',-0.14606742
'0:07.100',-0.14044944
'0:07.103',-0.13483146
'0:07.106',-0.13483146
'0:07.108',-0.14044944
'0:07.111',-0.15730337
'0:07.114',-0.15730337
'0:07.117',-0.15168539
'0:07.119',-0.15168539
'0:07.122',-0.15730337
'0:07.125',-0.16292135
'0:07.128',-0.16292135
'0:07.131',-0.16853933
'0:07.133',-0.15730337
'0:07.136',-0.15168539
'0:07.139',-0.15168539
'0:07.142',-0.15730337
'0:07.144',-0.1741573
'0:07.147',-0.17977528
'0:07.150',-0.16292135
'0:07.153',-0.14606742
'0:07.156',-0.15168539
'0:07.158',-0.16292135
'0:07.161',-0.1741573
'0:07.164',-0.1741573
'0:07.167',-0.16292135
'0:07.169',-0.15730337
'0:07.172',-0.15730337
'0:07.175',-0.16292135
'0:07.178',-0.16292135
'0:07.181',-0.16292135
'0:07.183',-0.15730337
'0:07.186',-0.16292135
'0:07.189',-0.17977528
'0:07.192',-0.19101124
'0:07.194',-0.19101124
'0:07.197',-0.18539326
'0:07.200',-0.1741573
'0:07.203',-0.17977528
'0:07.206',-0.17977528
'0:07.208',-0.1741573
'0:07.211',-0.1741573
'0:07.214',-0.1741573
'0:07.217',-0.1741573
'0:07.219',-0.18539326
'0:07.222',-0.1741573
'0:07.225',-0.16292135
'0:07.228',-0.16292135
'0:07.231',-0.17977528
'0:07.233',-0.19101124
'0:07.236',-0.19101124
'0:07.239',-0.18539326
'0:07.242',-0.1741573
'0:07.244',-0.15730337
'0:07.247',-0.15730337
'0:07.250',-0.16853933
'0:07.253',-0.16853933
'0:07.256',-0.15730337
'0:07.258',-0.13483146
'0:07.261',-0.11797753
'0:07.264',-0.11797753
'0:07.267',-0.12359551
'0:07.269',-0.12921348
'0:07.272',-0.12921348
'0:07.275',-0.11797753
'0:07.278',-0.08426966
'0:07.281',-0.06741573
'0:07.283',-0.06741573
'0:07.286',-0.06741573
'0:07.289',-0.07865169
'0:07.292',-0.07865169
'0:07.294',-0.07865169
'0:07.297',-0.09550562
'0:07.300',-0.10674157
'0:07.303',-0.10674157
'0:07.306',-0.10674157
'0:07.308',-0.11235955
'0:07.311',-0.1011236
'0:07.314',-0.10674157
'0:07.317',-0.13483146
'0:07.319',-0.16292135
'0:07.322',-0.1741573
'0:07.325',-0.1741573
'0:07.328',-0.1741573
'0:07.331',-0.18539326
'0:07.333',-0.18539326
'0:07.336',-0.20224719
'0:07.339',-0.21910112
'0:07.342',-0.23033708
'0:07.344',-0.24157303
'0:07.347',-0.24157303
'0:07.350',-0.2247191
'0:07.353',-0.21348315
'0:07.356',-0.21348315
'0:07.358',-0.21910112
'0:07.361',-0.21910112
'0:07.364',-0.2247191
'0:07.367',-0.2247191
'0:07.369',-0.23595506
'0:07.372',-0.23033708
'0:07.375',-0.2247191
'0:07.378',-0.2247191
'0:07.381',-0.21910112
'0:07.383',-0.21348315
'0:07.386',-0.21910112
'0:07.389',-0.25280899
'0:07.392',-0.28651685
'0:07.394',-0.31460674
'0:07.397',-0.34269663
'0:07.400',-0.34269663
'0:07.403',-0.28089888
'0:07.406',-0.15168539
'0:07.408',0.00561798
'0:07.411',0.19101124
'0:07.414',0.41011236
'0:07.417',0.64606742
'0:07.419',0.91011236
'0:07.422',1.20224719
'0:07.425',1.53370787
'0:07.428',1.75842697
'0:07.431',1.75280899
'0:07.433',1.47191011
'0:07.436',0.96629213
'0:07.439',0.39325843
'0:07.442',0
'0:07.444',-0.11797753
'0:07.447',-0.07865169
'0:07.450',-0.0505618
'0:07.453',-0.08426966
'0:07.456',-0.13483146
'0:07.458',-0.1741573
'0:07.461',-0.19662921
'0:07.464',-0.20224719
'0:07.467',-0.20224719
'0:07.469',-0.2247191
'0:07.472',-0.25842697
'0:07.475',-0.2752809
'0:07.478',-0.26966292
'0:07.481',-0.25842697
'0:07.483',-0.25842697
'0:07.486',-0.25842697
'0:07.489',-0.26404494
'0:07.492',-0.26966292
'0:07.494',-0.25842697
'0:07.497',-0.23595506
'0:07.500',-0.2247191
'0:07.503',-0.23595506
'0:07.506',-0.24719101
'0:07.508',-0.25842697
'0:07.511',-0.25280899
'0:07.514',-0.23595506
'0:07.517',-0.2247191
'0:07.519',-0.21910112
'0:07.522',-0.2247191
'0:07.525',-0.23033708
'0:07.528',-0.2247191
'0:07.531',-0.21910112
'0:07.533',-0.23033708
'0:07.536',-0.23595506
'0:07.539',-0.21910112
'0:07.542',-0.19662921
'0:07.544',-0.18539326
'0:07.547',-0.17977528
'0:07.550',-0.17977528
'0:07.553',-0.18539326
'0:07.556',-0.18539326
'0:07.558',-0.19101124
'0:07.561',-0.20224719
'0:07.564',-0.19101124
'0:07.567',-0.16853933
'0:07.569',-0.15168539
'0:07.572',-0.14044944
'0:07.575',-0.14044944
'0:07.578',-0.13483146
'0:07.581',-0.13483146
'0:07.583',-0.12359551
'0:07.586',-0.11797753
'0:07.589',-0.10674157
'0:07.592',-0.08988764
'0:07.594',-0.08426966
'0:07.597',-0.06741573
'0:07.600',-0.0505618
'0:07.603',-0.03932584
'0:07.606',-0.03932584
'0:07.608',-0.03370787
'0:07.611',-0.00561798
'0:07.614',0.02247191
'0:07.617',0.03932584
'0:07.619',0.0505618
'0:07.622',0.07303371
'0:07.625',0.08988764
'0:07.628',0.10674157
'0:07.631',0.12921348
'0:07.633',0.14044944
'0:07.636',0.14044944
'0:07.639',0.13483146
'0:07.642',0.14044944
'0:07.644',0.16853933
'0:07.647',0.19101124
'0:07.650',0.19662921
'0:07.653',0.20224719
'0:07.656',0.21348315
'0:07.658',0.21910112
'0:07.661',0.20224719
'0:07.664',0.19662921
'0:07.667',0.19101124
'0:07.669',0.17977528
'0:07.672',0.15168539
'0:07.675',0.11797753
'0:07.678',0.09550562
'0:07.681',0.07303371
'0:07.683',0.04494382
'0:07.686',0.02247191
'0:07.689',0
'0:07.692',-0.01123596
'0:07.694',-0.02247191
'0:07.697',-0.03932584
'0:07.700',-0.06179775
'0:07.703',-0.07865169
'0:07.706',-0.10674157
'0:07.708',-0.11797753
'0:07.711',-0.12359551
'0:07.714',-0.11797753
'0:07.717',-0.12359551
'0:07.719',-0.14606742
'0:07.722',-0.15730337
'0:07.725',-0.16292135
'0:07.728',-0.16292135
'0:07.731',-0.15730337
'0:07.733',-0.15730337
'0:07.736',-0.17977528
'0:07.739',-0.19101124
'0:07.742',-0.19101124
'0:07.744',-0.1741573
'0:07.747',-0.15730337
'0:07.750',-0.14044944
'0:07.753',-0.14606742
'0:07.756',-0.15730337
'0:07.758',-0.16853933
'0:07.761',-0.17977528
'0:07.764',-0.18539326
'0:07.767',-0.18539326
'0:07.769',-0.18539326
'0:07.772',-0.18539326
'0:07.775',-0.18539326
'0:07.778',-0.18539326
'0:07.781',-0.18539326
'0:07.783',-0.16853933
'0:07.786',-0.15730337
'0:07.789',-0.16853933
'0:07.792',-0.1741573
'0:07.794',-0.1741573
'0:07.797',-0.16853933
'0:07.800',-0.16853933
'0:07.803',-0.16853933
'0:07.806',-0.1741573
'0:07.808',-0.1741573
'0:07.811',-0.18539326
'0:07.814',-0.17977528
'0:07.817',-0.15730337
'0:07.819',-0.15168539
'0:07.822',-0.15168539
'0:07.825',-0.15730337
'0:07.828',-0.15730337
'0:07.831',-0.15730337
'0:07.833',-0.15730337
'0:07.836',-0.16292135
'0:07.839',-0.16853933
'0:07.842',-0.16853933
'0:07.844',-0.1741573
'0:07.847',-0.16853933
'0:07.850',-0.15168539
'0:07.853',-0.14044944
'0:07.856',-0.14044944
'0:07.858',-0.15168539
'0:07.861',-0.15730337
'0:07.864',-0.15730337
'0:07.867',-0.15730337
'0:07.869',-0.15168539
'0:07.872',-0.14606742
'0:07.875',-0.15730337
'0:07.878',-0.15730337
'0:07.881',-0.15730337
'0:07.883',-0.14606742
'0:07.886',-0.15168539
'0:07.889',-0.16292135
'0:07.892',-0.18539326
'0:07.894',-0.18539326
'0:07.897',-0.16292135
'0:07.900',-0.14606742
'0:07.903',-0.13483146
'0:07.906',-0.14044944
'0:07.908',-0.15730337
'0:07.911',-0.15168539
'0:07.914',-0.14606742
'0:07.917',-0.14044944
'0:07.919',-0.15168539
'0:07.922',-0.16853933
'0:07.925',-0.17977528
'0:07.928',-0.1741573
'0:07.931',-0.16853933
'0:07.933',-0.16853933
'0:07.936',-0.16853933
'0:07.939',-0.17977528
'0:07.942',-0.18539326
'0:07.944',-0.16292135
'0:07.947',-0.14606742
'0:07.950',-0.15168539
'0:07.953',-0.1741573
'0:07.956',-0.17977528
'0:07.958',-0.19101124
'0:07.961',-0.19101124
'0:07.964',-0.17977528
'0:07.967',-0.1741573
'0:07.969',-0.18539326
'0:07.972',-0.18539326
'0:07.975',-0.1741573
'0:07.978',-0.16853933
'0:07.981',-0.1741573
'0:07.983',-0.16853933
'0:07.986',-0.16853933
'0:07.989',-0.16853933
'0:07.992',-0.17977528
'0:07.994',-0.18539326
'0:07.997',-0.18539326
'0:08.000',-0.18539326
'0:08.003',-0.19101124
'0:08.006',-0.19101124
'0:08.008',-0.20224719
'0:08.011',-0.19662921
'0:08.014',-0.17977528
'0:08.017',-0.16853933
'0:08.019',-0.16853933
'0:08.022',-0.16853933
'0:08.025',-0.1741573
'0:08.028',-0.16853933
'0:08.031',-0.14044944
'0:08.033',-0.12359551
'0:08.036',-0.11797753
'0:08.039',-0.12921348
'0:08.042',-0.14044944
'0:08.044',-0.15730337
'0:08.047',-0.15168539
'0:08.050',-0.10674157
'0:08.053',-0.07865169
'0:08.056',-0.07865169
'0:08.058',-0.08426966
'0:08.061',-0.08988764
'0:08.064',-0.08426966
'0:08.067',-0.08426966
'0:08.069',-0.08988764
'0:08.072',-0.10674157
'0:08.075',-0.12359551
'0:08.078',-0.13483146
'0:08.081',-0.12359551
'0:08.083',-0.11797753
'0:08.086',-0.12359551
'0:08.089',-0.13483146
'0:08.092',-0.15168539
'0:08.094',-0.16292135
'0:08.097',-0.15730337
'0:08.100',-0.15730337
'0:08.103',-0.16853933
'0:08.106',-0.19101124
'0:08.108',-0.21348315
'0:08.111',-0.2247191
'0:08.114',-0.21348315
'0:08.117',-0.20224719
'0:08.119',-0.21348315
'0:08.122',-0.23033708
'0:08.125',-0.23033708
'0:08.128',-0.23033708
'0:08.131',-0.23595506
'0:08.133',-0.23033708
'0:08.136',-0.2247191
'0:08.139',-0.2247191
'0:08.142',-0.24157303
'0:08.144',-0.24157303
'0:08.147',-0.21910112
'0:08.150',-0.21910112
'0:08.153',-0.23595506
'0:08.156',-0.24157303
'0:08.158',-0.23033708
'0:08.161',-0.21348315
'0:08.164',-0.20786517
'0:08.167',-0.24719101
'0:08.169',-0.29213483
'0:08.172',-0.33146067
'0:08.175',-0.34269663
'0:08.178',-0.2752809
'0:08.181',-0.13483146
'0:08.183',0.02247191
'0:08.186',0.20224719
'0:08.189',0.39325843
'0:08.192',0.62921348
'0:08.194',0.91011236
'0:08.197',1.23033708
'0:08.200',1.57303371
'0:08.203',1.82022472
'0:08.206',1.80898876
'0:08.208',1.52247191
'0:08.211',1
'0:08.214',0.41011236
'0:08.217',0.00561798
'0:08.219',-0.12359551
'0:08.222',-0.08988764
'0:08.225',-0.07303371
'0:08.228',-0.10674157
'0:08.231',-0.13483146
'0:08.233',-0.15168539
'0:08.236',-0.1741573
'0:08.239',-0.20224719
'0:08.242',-0.23595506
'0:08.244',-0.24719101
'0:08.247',-0.24157303
'0:08.250',-0.24157303
'0:08.253',-0.25280899
'0:08.256',-0.25842697
'0:08.258',-0.26404494
'0:08.261',-0.25842697
'0:08.264',-0.24157303
'0:08.267',-0.23033708
'0:08.269',-0.23595506
'0:08.272',-0.25280899
'0:08.275',-0.25842697
'0:08.278',-0.25280899
'0:08.281',-0.24719101
'0:08.283',-0.24157303
'0:08.286',-0.23033708
'0:08.289',-0.2247191
'0:08.292',-0.23033708
'0:08.294',-0.23595506
'0:08.297',-0.23033708
'0:08.300',-0.2247191
'0:08.303',-0.2247191
'0:08.306',-0.23033708
'0:08.308',-0.21910112
'0:08.311',-0.20786517
'0:08.314',-0.20786517
'0:08.317',-0.20786517
'0:08.319',-0.20786517
'0:08.322',-0.20786517
'0:08.325',-0.20224719
'0:08.328',-0.20224719
'0:08.331',-0.19101124
'0:08.333',-0.16853933
'0:08.336',-0.15730337
'0:08.339',-0.1741573
'0:08.342',-0.18539326
'0:08.344',-0.1741573
'0:08.347',-0.15168539
'0:08.350',-0.15168539
'0:08.353',-0.14044944
'0:08.356',-0.12921348
'0:08.358',-0.12359551
'0:08.361',-0.12359551
'0:08.364',-0.11235955
'0:08.367',-0.08988764
'0:08.369',-0.07303371
'0:08.372',-0.06179775
'0:08.375',-0.05617978
'0:08.378',-0.04494382
'0:08.381',-0.02247191
'0:08.383',0
'0:08.386',0
'0:08.389',0.00561798
'0:08.392',0.03370787
'0:08.394',0.05617978
'0:08.397',0.08988764
'0:08.400',0.10674157
'0:08.403',0.12359551
'0:08.406',0.12359551
'0:08.408',0.11797753
'0:08.411',0.12359551
'0:08.414',0.14044944
'0:08.417',0.1741573
'0:08.419',0.19101124
'0:08.422',0.17977528
'0:08.425',0.1741573
'0:08.428',0.19662921
'0:08.431',0.20786517
'0:08.433',0.20224719
'0:08.436',0.19662921
'0:08.439',0.19101124
'0:08.442',0.1741573
'0:08.444',0.14606742
'0:08.447',0.12921348
'0:08.450',0.11235955
'0:08.453',0.08426966
'0:08.456',0.0505618
'0:08.458',0.03370787
'0:08.461',0.01685393
'0:08.464',0
'0:08.467',-0.00561798
'0:08.469',-0.02808989
'0:08.472',-0.06741573
'0:08.475',-0.1011236
'0:08.478',-0.11797753
'0:08.481',-0.11797753
'0:08.483',-0.12359551
'0:08.486',-0.12359551
'0:08.489',-0.12359551
'0:08.492',-0.12359551
'0:08.494',-0.13483146
'0:08.497',-0.15168539
'0:08.500',-0.16853933
'0:08.503',-0.18539326
'0:08.506',-0.19101124
'0:08.508',-0.19101124
'0:08.511',-0.19101124
'0:08.514',-0.18539326
'0:08.517',-0.16853933
'0:08.519',-0.16853933
'0:08.522',-0.18539326
'0:08.525',-0.19662921
'0:08.528',-0.19662921
'0:08.531',-0.18539326
'0:08.533',-0.16853933
'0:08.536',-0.16292135
'0:08.539',-0.1741573
'0:08.542',-0.19101124
'0:08.544',-0.19101124
'0:08.547',-0.18539326
'0:08.550',-0.17977528
'0:08.553',-0.19101124
'0:08.556',-0.19101124
'0:08.558',-0.18539326
'0:08.561',-0.1741573
'0:08.564',-0.16853933
'0:08.567',-0.1741573
'0:08.569',-0.17977528
'0:08.572',-0.18539326
'0:08.575',-0.18539326
'0:08.578',-0.1741573
'0:08.581',-0.1741573
'0:08.583',-0.19101124
'0:08.586',-0.19662921
'0:08.589',-0.18539326
'0:08.592',-0.19101124
'0:08.594',-0.19662921
'0:08.597',-0.19101124
'0:08.600',-0.1741573
'0:08.603',-0.16853933
'0:08.606',-0.16853933
'0:08.608',-0.16292135
'0:08.611',-0.15730337
'0:08.614',-0.15730337
'0:08.617',-0.16853933
'0:08.619',-0.1741573
'0:08.622',-0.18539326
'0:08.625',-0.18539326
'0:08.628',-0.17977528
'0:08.631',-0.15730337
'0:08.633',-0.15168539
'0:08.636',-0.15730337
'0:08.639',-0.16292135
'0:08.642',-0.15730337
'0:08.644',-0.16292135
'0:08.647',-0.15730337
'0:08.650',-0.15168539
'0:08.653',-0.15168539
'0:08.656',-0.15730337
'0:08.658',-0.16853933
'0:08.661',-0.16853933
'0:08.664',-0.16853933
'0:08.667',-0.15168539
'0:08.669',-0.15168539
'0:08.672',-0.16853933
'0:08.675',-0.1741573
'0:08.678',-0.16853933
'0:08.681',-0.16292135
'0:08.683',-0.16853933
'0:08.686',-0.1741573
'0:08.689',-0.18539326
'0:08.692',-0.18539326
'0:08.694',-0.16853933
'0:08.697',-0.15730337
'0:08.700',-0.16292135
'0:08.703',-0.1741573
'0:08.706',-0.17977528
'0:08.708',-0.18539326
'0:08.711',-0.17977528
'0:08.714',-0.1741573
'0:08.717',-0.18539326
'0:08.719',-0.17977528
'0:08.722',-0.1741573
'0:08.725',-0.17977528
'0:08.728',-0.18539326
'0:08.731',-0.17977528
'0:08.733',-0.1741573
'0:08.736',-0.1741573
'0:08.739',-0.1741573
'0:08.742',-0.17977528
'0:08.744',-0.17977528
'0:08.747',-0.17977528
'0:08.750',-0.17977528
'0:08.753',-0.18539326
'0:08.756',-0.19662921
'0:08.758',-0.20224719
'0:08.761',-0.19662921
'0:08.764',-0.18539326
'0:08.767',-0.17977528
'0:08.769',-0.18539326
'0:08.772',-0.19101124
'0:08.775',-0.19662921
'0:08.778',-0.19101124
'0:08.781',-0.1741573
'0:08.783',-0.1741573
'0:08.786',-0.19101124
'0:08.789',-0.20224719
'0:08.792',-0.19101124
'0:08.794',-0.19101124
'0:08.797',-0.20224719
'0:08.800',-0.20224719
'0:08.803',-0.19101124
'0:08.806',-0.18539326
'0:08.808',-0.17977528
'0:08.811',-0.1741573
'0:08.814',-0.16853933
'0:08.817',-0.15730337
'0:08.819',-0.14044944
'0:08.822',-0.13483146
'0:08.825',-0.14044944
'0:08.828',-0.14606742
'0:08.831',-0.14044944
'0:08.833',-0.12921348
'0:08.836',-0.12359551
'0:08.839',-0.12359551
'0:08.842',-0.11797753
'0:08.844',-0.1011236
'0:08.847',-0.08988764
'0:08.850',-0.08426966
'0:08.853',-0.08426966
'0:08.856',-0.08988764
'0:08.858',-0.09550562
'0:08.861',-0.10674157
'0:08.864',-0.11797753
'0:08.867',-0.12359551
'0:08.869',-0.12359551
'0:08.872',-0.13483146
'0:08.875',-0.15168539
'0:08.878',-0.15168539
'0:08.881',-0.15168539
'0:08.883',-0.14606742
'0:08.886',-0.16853933
'0:08.889',-0.19101124
'0:08.892',-0.20224719
'0:08.894',-0.19662921
'0:08.897',-0.19101124
'0:08.900',-0.20224719
'0:08.903',-0.2247191
'0:08.906',-0.23595506
'0:08.908',-0.24157303
'0:08.911',-0.23595506
'0:08.914',-0.23595506
'0:08.917',-0.23595506
'0:08.919',-0.23595506
'0:08.922',-0.23595506
'0:08.925',-0.24157303
'0:08.928',-0.24157303
'0:08.931',-0.24157303
'0:08.933',-0.24157303
'0:08.936',-0.24157303
'0:08.939',-0.23595506
'0:08.942',-0.23595506
'0:08.944',-0.23595506
'0:08.947',-0.23595506
'0:08.950',-0.23595506
'0:08.953',-0.24157303
'0:08.956',-0.29213483
'0:08.958',-0.33146067
'0:08.961',-0.33707865
'0:08.964',-0.32022472
'0:08.967',-0.25280899
'0:08.969',-0.12359551
'0:08.972',0.03370787
'0:08.975',0.21910112
'0:08.978',0.41011236
'0:08.981',0.64606742
'0:08.983',0.92134831
'0:08.986',1.21910112
'0:08.989',1.53370787
'0:08.992',1.73595506
'0:08.994',1.70224719
'0:08.997',1.41573034
'0:09.000',0.91573034
'0:09.003',0.35393258
'0:09.006',-0.03370787
'0:09.008',-0.14606742
'0:09.011',-0.08426966
'0:09.014',-0.03370787
'0:09.017',-0.07303371
'0:09.019',-0.12359551
'0:09.022',-0.15730337
'0:09.025',-0.18539326
'0:09.028',-0.20786517
'0:09.031',-0.21910112
'0:09.033',-0.2247191
'0:09.036',-0.25280899
'0:09.039',-0.2752809
'0:09.042',-0.2752809
'0:09.044',-0.26404494
'0:09.047',-0.25842697
'0:09.050',-0.25842697
'0:09.053',-0.26404494
'0:09.056',-0.28089888
'0:09.058',-0.28651685
'0:09.061',-0.26404494
'0:09.064',-0.25280899
'0:09.067',-0.25842697
'0:09.069',-0.26404494
'0:09.072',-0.25842697
'0:09.075',-0.25842697
'0:09.078',-0.25842697
'0:09.081',-0.23595506
'0:09.083',-0.2247191
'0:09.086',-0.2247191
'0:09.089',-0.24157303
'0:09.092',-0.23595506
'0:09.094',-0.23595506
'0:09.097',-0.24719101
'0:09.100',-0.24157303
'0:09.103',-0.23595506
'0:09.106',-0.2247191
'0:09.108',-0.2247191
'0:09.111',-0.2247191
'0:09.114',-0.20786517
'0:09.117',-0.20224719
'0:09.119',-0.20786517
'0:09.122',-0.21348315
'0:09.125',-0.20786517
'0:09.128',-0.19101124
'0:09.131',-0.17977528
'0:09.133',-0.17977528
'0:09.136',-0.17977528
'0:09.139',-0.16853933
'0:09.142',-0.15730337
'0:09.144',-0.15730337
'0:09.147',-0.15168539
'0:09.150',-0.14606742
'0:09.153',-0.14044944
'0:09.156',-0.12921348
'0:09.158',-0.10674157
'0:09.161',-0.08426966
'0:09.164',-0.0505618
'0:09.167',-0.03932584
'0:09.169',-0.03932584
'0:09.172',-0.03370787
'0:09.175',-0.02808989
'0:09.178',-0.01685393
'0:09.181',0
'0:09.183',0.02247191
'0:09.186',0.0505618
'0:09.189',0.06741573
'0:09.192',0.08426966
'0:09.194',0.09550562
'0:09.197',0.11235955
'0:09.200',0.12359551
'0:09.203',0.13483146
'0:09.206',0.12921348
'0:09.208',0.13483146
'0:09.211',0.15168539
'0:09.214',0.16853933
'0:09.217',0.15730337
'0:09.219',0.15168539
'0:09.222',0.1741573
'0:09.225',0.19662921
'0:09.228',0.17977528
'0:09.231',0.15730337
'0:09.233',0.14606742
'0:09.236',0.12921348
'0:09.239',0.1011236
'0:09.242',0.07303371
'0:09.244',0.05617978
'0:09.247',0.04494382
'0:09.250',0.02247191
'0:09.253',0
'0:09.256',-0.02808989
'0:09.258',-0.0505618
'0:09.261',-0.06741573
'0:09.264',-0.07303371
'0:09.267',-0.07865169
'0:09.269',-0.08988764
'0:09.272',-0.11797753
'0:09.275',-0.14044944
'0:09.278',-0.15168539
'0:09.281',-0.14606742
'0:09.283',-0.14606742
'0:09.286',-0.15168539
'0:09.289',-0.1741573
'0:09.292',-0.18539326
'0:09.294',-0.1741573
'0:09.297',-0.15730337
'0:09.300',-0.14606742
'0:09.303',-0.15168539
'0:09.306',-0.1741573
'0:09.308',-0.17977528
'0:09.311',-0.1741573
'0:09.314',-0.16853933
'0:09.317',-0.1741573
'0:09.319',-0.18539326
'0:09.322',-0.19662921
'0:09.325',-0.19101124
'0:09.328',-0.1741573
'0:09.331',-0.16292135
'0:09.333',-0.1741573
'0:09.336',-0.18539326
'0:09.339',-0.18539326
'0:09.342',-0.18539326
'0:09.344',-0.17977528
'0:09.347',-0.1741573
'0:09.350',-0.16853933
'0:09.353',-0.1741573
'0:09.356',-0.17977528
'0:09.358',-0.18539326
'0:09.361',-0.16853933
'0:09.364',-0.1741573
'0:09.367',-0.17977528
'0:09.369',-0.1741573
'0:09.372',-0.17977528
'0:09.375',-0.17977528
'0:09.378',-0.1741573
'0:09.381',-0.1741573
'0:09.383',-0.16853933
'0:09.386',-0.15730337
'0:09.389',-0.16292135
'0:09.392',-0.1741573
'0:09.394',-0.19101124
'0:09.397',-0.18539326
'0:09.400',-0.16853933
'0:09.403',-0.16853933
'0:09.406',-0.1741573
'0:09.408',-0.1741573
'0:09.411',-0.16853933
'0:09.414',-0.15730337
'0:09.417',-0.15730337
'0:09.419',-0.15730337
'0:09.422',-0.15730337
'0:09.425',-0.16292135
'0:09.428',-0.15730337
'0:09.431',-0.15168539
'0:09.433',-0.15730337
'0:09.436',-0.16292135
'0:09.439',-0.16853933
'0:09.442',-0.16853933
'0:09.444',-0.15730337
'0:09.447',-0.15168539
'0:09.450',-0.14606742
'0:09.453',-0.15168539
'0:09.456',-0.16853933
'0:09.458',-0.16853933
'0:09.461',-0.15730337
'0:09.464',-0.14606742
'0:09.467',-0.15730337
'0:09.469',-0.16853933
'0:09.472',-0.1741573
'0:09.475',-0.1741573
'0:09.478',-0.16853933
'0:09.481',-0.15730337
'0:09.483',-0.15730337
'0:09.486',-0.16292135
'0:09.489',-0.1741573
'0:09.492',-0.1741573
'0:09.494',-0.16292135
'0:09.497',-0.16853933
'0:09.500',-0.17977528
'0:09.503',-0.18539326
'0:09.506',-0.1741573
'0:09.508',-0.16292135
'0:09.511',-0.15168539
'0:09.514',-0.15168539
'0:09.517',-0.16853933
'0:09.519',-0.1741573
'0:09.522',-0.17977528
'0:09.525',-0.18539326
'0:09.528',-0.19101124
'0:09.531',-0.20224719
'0:09.533',-0.19101124
'0:09.536',-0.1741573
'0:09.539',-0.16292135
'0:09.542',-0.15730337
'0:09.544',-0.16292135
'0:09.547',-0.16853933
'0:09.550',-0.17977528
'0:09.553',-0.18539326
'0:09.556',-0.20224719
'0:09.558',-0.20786517
'0:09.561',-0.20224719
'0:09.564',-0.1741573
'0:09.567',-0.15730337
'0:09.569',-0.16853933
'0:09.572',-0.18539326
'0:09.575',-0.19101124
'0:09.578',-0.18539326
'0:09.581',-0.16853933
'0:09.583',-0.1741573
'0:09.586',-0.18539326
'0:09.589',-0.20224719
'0:09.592',-0.19662921
'0:09.594',-0.1741573
'0:09.597',-0.16853933
'0:09.600',-0.1741573
'0:09.603',-0.18539326
'0:09.606',-0.19101124
'0:09.608',-0.19101124
'0:09.611',-0.18539326
'0:09.614',-0.18539326
'0:09.617',-0.17977528
'0:09.619',-0.16853933
'0:09.622',-0.14606742
'0:09.625',-0.12359551
'0:09.628',-0.10674157
'0:09.631',-0.09550562
'0:09.633',-0.1011236
'0:09.636',-0.12359551
'0:09.639',-0.14044944
'0:09.642',-0.14044944
'0:09.644',-0.11797753
'0:09.647',-0.08988764
'0:09.650',-0.07303371
'0:09.653',-0.07303371
'0:09.656',-0.08426966
'0:09.658',-0.08988764
'0:09.661',-0.08988764
'0:09.664',-0.08426966
'0:09.667',-0.08426966
'0:09.669',-0.08988764
'0:09.672',-0.1011236
'0:09.675',-0.11797753
'0:09.678',-0.12359551
'0:09.681',-0.12921348
'0:09.683',-0.13483146
'0:09.686',-0.12921348
'0:09.689',-0.14044944
'0:09.692',-0.15168539
'0:09.694',-0.15730337
'0:09.697',-0.16292135
'0:09.700',-0.1741573
'0:09.703',-0.19101124
'0:09.706',-0.20224719
'0:09.708',-0.20224719
'0:09.711',-0.20786517
'0:09.714',-0.21910112
'0:09.717',-0.2247191
'0:09.719',-0.21348315
'0:09.722',-0.21348315
'0:09.725',-0.21910112
'0:09.728',-0.2247191
'0:09.731',-0.2247191
'0:09.733',-0.24157303
'0:09.736',-0.24719101
'0:09.739',-0.24157303
'0:09.742',-0.2247191
'0:09.744',-0.20786517
'0:09.747',-0.21348315
'0:09.750',-0.23033708
'0:09.753',-0.2247191
'0:09.756',-0.21910112
'0:09.758',-0.23595506
'0:09.761',-0.25842697
'0:09.764',-0.29213483
'0:09.767',-0.33146067
'0:09.769',-0.35393258
'0:09.772',-0.30898876
'0:09.775',-0.20786517
'0:09.778',-0.05617978
'0:09.781',0.12359551
'0:09.783',0.3258427
'0:09.786',0.53932584
'0:09.789',0.78089888
'0:09.792',1.06179775
'0:09.794',1.38764045
'0:09.797',1.68539326
'0:09.800',1.7752809
'0:09.803',1.59550562
'0:09.806',1.20224719
'0:09.808',0.65730337
'0:09.811',0.15730337
'0:09.814',-0.07303371
'0:09.817',-0.06741573
'0:09.819',-0.00561798
'0:09.822',-0.02808989
'0:09.825',-0.07865169
'0:09.828',-0.09550562
'0:09.831',-0.11797753
'0:09.833',-0.15730337
'0:09.836',-0.19101124
'0:09.839',-0.20224719
'0:09.842',-0.21910112
'0:09.844',-0.24157303
'0:09.847',-0.25842697
'0:09.850',-0.24719101
'0:09.853',-0.24157303
'0:09.856',-0.24157303
'0:09.858',-0.24157303
'0:09.861',-0.23595506
'0:09.864',-0.23595506
'0:09.867',-0.24157303
'0:09.869',-0.24719101
'0:09.872',-0.24719101
'0:09.875',-0.24157303
'0:09.878',-0.23595506
'0:09.881',-0.23595506
'0:09.883',-0.23595506
'0:09.886',-0.23595506
'0:09.889',-0.24157303
'0:09.892',-0.24157303
'0:09.894',-0.23595506
'0:09.897',-0.23595506
'0:09.900',-0.23595506
'0:09.903',-0.2247191
'0:09.906',-0.21348315
'0:09.908',-0.21910112
'0:09.911',-0.21348315
'0:09.914',-0.20786517
'0:09.917',-0.20224719
'0:09.919',-0.19101124
'0:09.922',-0.20224719
'0:09.925',-0.20786517
'0:09.928',-0.20224719
'0:09.931',-0.17977528
'0:09.933',-0.1741573
'0:09.936',-0.16853933
'0:09.939',-0.16853933
'0:09.942',-0.16853933
'0:09.944',-0.14606742
'0:09.947',-0.13483146
'0:09.950',-0.12359551
'0:09.953',-0.11797753
'0:09.956',-0.11797753
'0:09.958',-0.11797753
'0:09.961',-0.11797753
'0:09.964',-0.08988764
'0:09.967',-0.06741573
'0:09.969',-0.0505618
'0:09.972',-0.03932584
'0:09.975',-0.03370787
'0:09.978',-0.02247191
'0:09.981',-0.00561798
'0:09.983',0.01123596
'0:09.986',0.02247191
'0:09.989',0.02247191
'0:09.992',0.03932584
'0:09.994',0.07303371
'0:09.997',0.09550562
'0:10.000',0.1011236
'0:10.003',0.10674157
'0:10.006',0.11797753
'0:10.008',0.13483146
'0:10.011',0.15168539
'0:10.014',0.16853933
'0:10.017',0.1741573
'0:10.019',0.1741573
'0:10.022',0.16853933
'0:10.025',0.17977528
'0:10.028',0.20224719
'0:10.031',0.19662921
'0:10.033',0.18539326
'0:10.036',0.18539326
'0:10.039',0.1741573
'0:10.042',0.15168539
'0:10.044',0.12359551
'0:10.047',0.11235955
'0:10.050',0.1011236
'0:10.053',0.07303371
'0:10.056',0.03370787
'0:10.058',0
'0:10.061',-0.01685393
'0:10.064',-0.02808989
'0:10.067',-0.04494382
'0:10.069',-0.07303371
'0:10.072',-0.1011236
'0:10.075',-0.11235955
'0:10.078',-0.11235955
'0:10.081',-0.10674157
'0:10.083',-0.11797753
'0:10.086',-0.12359551
'0:10.089',-0.13483146
'0:10.092',-0.14606742
'0:10.094',-0.15730337
'0:10.097',-0.15168539
'0:10.100',-0.15168539
'0:10.103',-0.15730337
'0:10.106',-0.16853933
'0:10.108',-0.16853933
'0:10.111',-0.16292135
'0:10.114',-0.15730337
'0:10.117',-0.15168539
'0:10.119',-0.16853933
'0:10.122',-0.18539326
'0:10.125',-0.19101124
'0:10.128',-0.18539326
'0:10.131',-0.16292135
'0:10.133',-0.15730337
'0:10.136',-0.15730337
'0:10.139',-0.16853933
'0:10.142',-0.1741573
'0:10.144',-0.1741573
'0:10.147',-0.1741573
'0:10.150',-0.1741573
'0:10.153',-0.17977528
'0:10.156',-0.19101124
'0:10.158',-0.18539326
'0:10.161',-0.16853933
'0:10.164',-0.15168539
'0:10.167',-0.15168539
'0:10.169',-0.15730337
'0:10.172',-0.16853933
'0:10.175',-0.15730337
'0:10.178',-0.16292135
'0:10.181',-0.16853933
'0:10.183',-0.16853933
'0:10.186',-0.18539326
'0:10.189',-0.18539326
'0:10.192',-0.1741573
'0:10.194',-0.15730337
'0:10.197',-0.15168539
'0:10.200',-0.15168539
'0:10.203',-0.15730337
'0:10.206',-0.16292135
'0:10.208',-0.16292135
'0:10.211',-0.15730337
'0:10.214',-0.15168539
'0:10.217',-0.15730337
'0:10.219',-0.16853933
'0:10.222',-0.1741573
'0:10.225',-0.16853933
'0:10.228',-0.16853933
'0:10.231',-0.15730337
'0:10.233',-0.15730337
'0:10.236',-0.16292135
'0:10.239',-0.16292135
'0:10.242',-0.15730337
'0:10.244',-0.15730337
'0:10.247',-0.15730337
'0:10.250',-0.15168539
'0:10.253',-0.15168539
'0:10.256',-0.14606742
'0:10.258',-0.14606742
'0:10.261',-0.15730337
'0:10.264',-0.16292135
'0:10.267',-0.15730337
'0:10.269',-0.15168539
'0:10.272',-0.14606742
'0:10.275',-0.14606742
'0:10.278',-0.14606742
'0:10.281',-0.15730337
'0:10.283',-0.16853933
'0:10.286',-0.1741573
'0:10.289',-0.18539326
'0:10.292',-0.18539326
'0:10.294',-0.19101124
'0:10.297',-0.18539326
'0:10.300',-0.1741573
'0:10.303',-0.14606742
'0:10.306',-0.13483146
'0:10.308',-0.15168539
'0:10.311',-0.15730337
'0:10.314',-0.16853933
'0:10.317',-0.1741573
'0:10.319',-0.18539326
'0:10.322',-0.19662921
'0:10.325',-0.20224719
'0:10.328',-0.19662921
'0:10.331',-0.17977528
'0:10.333',-0.15730337
'0:10.336',-0.15168539
'0:10.339',-0.16853933
'0:10.342',-0.17977528
'0:10.344',-0.18539326
'0:10.347',-0.1741573
'0:10.350',-0.16853933
'0:10.353',-0.17977528
'0:10.356',-0.19101124
'0:10.358',-0.18539326
'0:10.361',-0.1741573
'0:10.364',-0.16292135
'0:10.367',-0.15730337
'0:10.369',-0.16853933
'0:10.372',-0.19101124
'0:10.375',-0.19101124
'0:10.378',-0.18539326
'0:10.381',-0.1741573
'0:10.383',-0.18539326
'0:10.386',-0.18539326
'0:10.389',-0.19101124
'0:10.392',-0.18539326
'0:10.394',-0.18539326
'0:10.397',-0.18539326
'0:10.400',-0.19101124
'0:10.403',-0.18539326
'0:10.406',-0.18539326
'0:10.408',-0.18539326
'0:10.411',-0.1741573
'0:10.414',-0.1741573
'0:10.417',-0.16853933
'0:10.419',-0.15730337
'0:10.422',-0.15168539
'0:10.425',-0.14044944
'0:10.428',-0.11797753
'0:10.431',-0.11797753
'0:10.433',-0.12921348
'0:10.436',-0.12359551
'0:10.439',-0.12359551
'0:10.442',-0.11235955
'0:10.444',-0.1011236
'0:10.447',-0.08988764
'0:10.450',-0.08988764
'0:10.453',-0.09550562
'0:10.456',-0.1011236
'0:10.458',-0.1011236
'0:10.461',-0.08426966
'0:10.464',-0.07303371
'0:10.467',-0.07865169
'0:10.469',-0.1011236
'0:10.472',-0.11797753
'0:10.475',-0.11797753
'0:10.478',-0.12359551
'0:10.481',-0.12359551
'0:10.483',-0.13483146
'0:10.486',-0.14606742
'0:10.489',-0.15730337
'0:10.492',-0.1741573
'0:10.494',-0.19101124
'0:10.497',-0.20224719
'0:10.500',-0.19101124
'0:10.503',-0.19101124
'0:10.506',-0.21910112
'0:10.508',-0.2247191
'0:10.511',-0.20786517
'0:10.514',-0.20224719
'0:10.517',-0.21348315
'0:10.519',-0.23033708
'0:10.522',-0.23595506
'0:10.525',-0.23595506
'0:10.528',-0.24719101
'0:10.531',-0.25280899
'0:10.533',-0.23595506
'0:10.536',-0.21910112
'0:10.539',-0.21910112
'0:10.542',-0.2247191
'0:10.544',-0.2247191
'0:10.547',-0.21910112
'0:10.550',-0.2247191
'0:10.553',-0.23595506
'0:10.556',-0.24157303
'0:10.558',-0.25280899
'0:10.561',-0.29775281
'0:10.564',-0.33707865
'0:10.567',-0.34269663
'0:10.569',-0.30898876
'0:10.572',-0.20224719
'0:10.575',-0.04494382
'0:10.578',0.11797753
'0:10.581',0.32022472
'0:10.583',0.54494382
'0:10.586',0.80898876
'0:10.589',1.1011236
'0:10.592',1.42696629
'0:10.594',1.70224719
'0:10.597',1.7752809
'0:10.600',1.58426966
'0:10.603',1.13483146
'0:10.606',0.55617978
'0:10.608',0.10674157
'0:10.611',-0.08426966
'0:10.614',-0.07303371
'0:10.617',-0.04494382
'0:10.619',-0.07303371
'0:10.622',-0.11797753
'0:10.625',-0.14044944
'0:10.628',-0.15730337
'0:10.631',-0.16853933
'0:10.633',-0.20224719
'0:10.636',-0.24157303
'0:10.639',-0.28651685
'0:10.642',-0.29213483
'0:10.644',-0.28651685
'0:10.647',-0.25842697
'0:10.650',-0.25842697
'0:10.653',-0.25842697
'0:10.656',-0.25280899
'0:10.658',-0.25280899
'0:10.661',-0.25842697
'0:10.664',-0.25842697
'0:10.667',-0.24157303
'0:10.669',-0.23595506
'0:10.672',-0.24719101
'0:10.675',-0.24719101
'0:10.678',-0.24719101
'0:10.681',-0.23595506
'0:10.683',-0.23595506
'0:10.686',-0.23595506
'0:10.689',-0.23595506
'0:10.692',-0.23033708
'0:10.694',-0.23595506
'0:10.697',-0.23595506
'0:10.700',-0.21910112
'0:10.703',-0.20786517
'0:10.706',-0.21348315
'0:10.708',-0.2247191
'0:10.711',-0.21348315
'0:10.714',-0.19662921
'0:10.717',-0.19101124
'0:10.719',-0.19662921
'0:10.722',-0.19101124
'0:10.725',-0.18539326
'0:10.728',-0.16853933
'0:10.731',-0.15730337
'0:10.733',-0.1741573
'0:10.736',-0.17977528
'0:10.739',-0.17977528
'0:10.742',-0.1741573
'0:10.744',-0.15168539
'0:10.747',-0.14044944
'0:10.750',-0.14606742
'0:10.753',-0.13483146
'0:10.756',-0.11797753
'0:10.758',-0.1011236
'0:10.761',-0.08426966
'0:10.764',-0.05617978
'0:10.767',-0.0505618
'0:10.769',-0.04494382
'0:10.772',-0.0505618
'0:10.775',-0.03370787
'0:10.778',-0.01123596
'0:10.781',0.00561798
'0:10.783',0.02247191
'0:10.786',0.03370787
'0:10.789',0.0505618
'0:10.792',0.08426966
'0:10.794',0.10674157
'0:10.797',0.12359551
'0:10.800',0.12921348
'0:10.803',0.13483146
'0:10.806',0.14044944
'0:10.808',0.15168539
'0:10.811',0.15730337
'0:10.814',0.17977528
'0:10.817',0.19662921
'0:10.819',0.19101124
'0:10.822',0.19101124
'0:10.825',0.19101124
'0:10.828',0.20224719
'0:10.831',0.20786517
'0:10.833',0.20224719
'0:10.836',0.18539326
'0:10.839',0.14606742
'0:10.842',0.12359551
'0:10.844',0.1011236
'0:10.847',0.08426966
'0:10.850',0.05617978
'0:10.853',0.02808989
'0:10.856',0
'0:10.858',-0.02247191
'0:10.861',-0.03932584
'0:10.864',-0.05617978
'0:10.867',-0.06741573
'0:10.869',-0.08988764
'0:10.872',-0.11235955
'0:10.875',-0.12921348
'0:10.878',-0.13483146
'0:10.881',-0.12921348
'0:10.883',-0.13483146
'0:10.886',-0.15168539
'0:10.889',-0.16292135
'0:10.892',-0.16853933
'0:10.894',-0.16853933
'0:10.897',-0.15730337
'0:10.900',-0.15168539
'0:10.903',-0.16853933
'0:10.906',-0.18539326
'0:10.908',-0.18539326
'0:10.911',-0.18539326
'0:10.914',-0.16853933
'0:10.917',-0.1741573
'0:10.919',-0.19101124
'0:10.922',-0.19662921
'0:10.925',-0.1741573
'0:10.928',-0.16292135
'0:10.931',-0.15730337
'0:10.933',-0.15730337
'0:10.936',-0.16853933
'0:10.939',-0.1741573
'0:10.942',-0.1741573
'0:10.944',-0.18539326
'0:10.947',-0.18539326
'0:10.950',-0.18539326
'0:10.953',-0.1741573
'0:10.956',-0.1741573
'0:10.958',-0.18539326
'0:10.961',-0.19662921
'0:10.964',-0.19101124
'0:10.967',-0.1741573
'0:10.969',-0.15730337
'0:10.972',-0.16292135
'0:10.975',-0.15730337
'0:10.978',-0.15730337
'0:10.981',-0.16292135
'0:10.983',-0.16853933
'0:10.986',-0.1741573
'0:10.989',-0.19101124
'0:10.992',-0.18539326
'0:10.994',-0.1741573
'0:10.997',-0.15730337
'0:11.000',-0.15168539
'0:11.003',-0.15730337
'0:11.006',-0.16853933
'0:11.008',-0.1741573
'0:11.011',-0.1741573
'0:11.014',-0.16853933
'0:11.017',-0.15730337
'0:11.019',-0.15730337
'0:11.022',-0.16292135
'0:11.025',-0.16292135
'0:11.028',-0.16292135
'0:11.031',-0.15730337
'0:11.033',-0.15730337
'0:11.036',-0.15730337
'0:11.039',-0.15730337
'0:11.042',-0.16292135
'0:11.044',-0.16292135
'0:11.047',-0.15730337
'0:11.050',-0.15168539
'0:11.053',-0.15730337
'0:11.056',-0.16853933
'0:11.058',-0.15730337
'0:11.061',-0.15168539
'0:11.064',-0.14044944
'0:11.067',-0.13483146
'0:11.069',-0.14044944
'0:11.072',-0.15168539
'0:11.075',-0.15730337
'0:11.078',-0.15730337
'0:11.081',-0.15730337
'0:11.083',-0.15730337
'0:11.086',-0.1741573
'0:11.089',-0.18539326
'0:11.092',-0.18539326
'0:11.094',-0.16853933
'0:11.097',-0.16292135
'0:11.100',-0.1741573
'0:11.103',-0.17977528
'0:11.106',-0.18539326
'0:11.108',-0.18539326
'0:11.111',-0.18539326
'0:11.114',-0.18539326
'0:11.117',-0.18539326
'0:11.119',-0.1741573
'0:11.122',-0.1741573
'0:11.125',-0.16853933
'0:11.128',-0.16853933
'0:11.131',-0.1741573
'0:11.133',-0.16853933
'0:11.136',-0.1741573
'0:11.139',-0.17977528
'0:11.142',-0.18539326
'0:11.144',-0.19101124
'0:11.147',-0.18539326
'0:11.150',-0.17977528
'0:11.153',-0.1741573
'0:11.156',-0.18539326
'0:11.158',-0.19662921
'0:11.161',-0.18539326
'0:11.164',-0.16853933
'0:11.167',-0.16853933
'0:11.169',-0.17977528
'0:11.172',-0.19101124
'0:11.175',-0.19101124
'0:11.178',-0.19101124
'0:11.181',-0.18539326
'0:11.183',-0.18539326
'0:11.186',-0.18539326
'0:11.189',-0.19662921
'0:11.192',-0.19101124
'0:11.194',-0.1741573
'0:11.197',-0.16853933
'0:11.200',-0.16853933
'0:11.203',-0.1741573
'0:11.206',-0.16292135
'0:11.208',-0.14606742
'0:11.211',-0.13483146
'0:11.214',-0.12359551
'0:11.217',-0.14044944
'0:11.219',-0.14606742
'0:11.222',-0.14044944
'0:11.225',-0.12359551
'0:11.228',-0.1011236
'0:11.231',-0.07865169
'0:11.233',-0.06179775
'0:11.236',-0.06179775
'0:11.239',-0.07865169
'0:11.242',-0.09550562
'0:11.244',-0.09550562
'0:11.247',-0.1011236
'0:11.250',-0.10674157
'0:11.253',-0.10674157
'0:11.256',-0.10674157
'0:11.258',-0.1011236
'0:11.261',-0.11235955
'0:11.264',-0.12359551
'0:11.267',-0.14044944
'0:11.269',-0.15730337
'0:11.272',-0.15730337
'0:11.275',-0.15730337
'0:11.278',-0.15730337
'0:11.281',-0.16853933
'0:11.283',-0.18539326
'0:11.286',-0.20224719
'0:11.289',-0.2247191
'0:11.292',-0.24157303
'0:11.294',-0.24719101
'0:11.297',-0.23595506
'0:11.300',-0.20786517
'0:11.303',-0.20224719
'0:11.306',-0.21910112
'0:11.308',-0.2247191
'0:11.311',-0.2247191
'0:11.314',-0.2247191
'0:11.317',-0.24157303
'0:11.319',-0.25280899
'0:11.322',-0.24157303
'0:11.325',-0.23033708
'0:11.328',-0.23033708
'0:11.331',-0.23033708
'0:11.333',-0.21910112
'0:11.336',-0.21910112
'0:11.339',-0.2247191
'0:11.342',-0.23033708
'0:11.344',-0.25280899
'0:11.347',-0.28089888
'0:11.350',-0.3258427
'0:11.353',-0.34831461
'0:11.356',-0.32022472
'0:11.358',-0.20224719
'0:11.361',-0.03370787
'0:11.364',0.15168539
'0:11.367',0.34269663
'0:11.369',0.54494382
'0:11.372',0.79213483
'0:11.375',1.09550562
'0:11.378',1.43258427
'0:11.381',1.70224719
'0:11.383',1.75280899
'0:11.386',1.53370787
'0:11.389',1.07303371
'0:11.392',0.49438202
'0:11.394',0.0505618
'0:11.397',-0.10674157
'0:11.400',-0.07303371
'0:11.403',-0.03370787
'0:11.406',-0.06741573
'0:11.408',-0.11235955
'0:11.411',-0.14044944
'0:11.414',-0.15168539
'0:11.417',-0.18539326
'0:11.419',-0.21910112
'0:11.422',-0.24157303
'0:11.425',-0.25280899
'0:11.428',-0.25280899
'0:11.431',-0.25280899
'0:11.433',-0.24719101
'0:11.436',-0.24157303
'0:11.439',-0.24719101
'0:11.442',-0.25842697
'0:11.444',-0.24719101
'0:11.447',-0.23595506
'0:11.450',-0.24157303
'0:11.453',-0.25842697
'0:11.456',-0.25842697
'0:11.458',-0.26966292
'0:11.461',-0.2752809
'0:11.464',-0.25280899
'0:11.467',-0.23595506
'0:11.469',-0.23595506
'0:11.472',-0.24157303
'0:11.475',-0.23595506
'0:11.478',-0.2247191
'0:11.481',-0.21910112
'0:11.483',-0.21910112
'0:11.486',-0.21910112
'0:11.489',-0.21910112
'0:11.492',-0.2247191
'0:11.494',-0.2247191
'0:11.497',-0.20224719
'0:11.500',-0.19101124
'0:11.503',-0.20224719
'0:11.506',-0.20224719
'0:11.508',-0.20224719
'0:11.511',-0.19101124
'0:11.514',-0.16853933
'0:11.517',-0.16853933
'0:11.519',-0.1741573
'0:11.522',-0.1741573
'0:11.525',-0.16292135
'0:11.528',-0.15168539
'0:11.531',-0.13483146
'0:11.533',-0.13483146
'0:11.536',-0.14044944
'0:11.539',-0.13483146
'0:11.542',-0.11797753
'0:11.544',-0.1011236
'0:11.547',-0.08426966
'0:11.550',-0.07865169
'0:11.553',-0.06741573
'0:11.556',-0.05617978
'0:11.558',-0.0505618
'0:11.561',-0.03932584
'0:11.564',-0.02247191
'0:11.567',-0.00561798
'0:11.569',0.01123596
'0:11.572',0.03370787
'0:11.575',0.05617978
'0:11.578',0.07303371
'0:11.581',0.08988764
'0:11.583',0.1011236
'0:11.586',0.10674157
'0:11.589',0.12359551
'0:11.592',0.14606742
'0:11.594',0.15168539
'0:11.597',0.15730337
'0:11.600',0.1741573
'0:11.603',0.1741573
'0:11.606',0.15730337
'0:11.608',0.16853933
'0:11.611',0.18539326
'0:11.614',0.20786517
'0:11.617',0.19101124
'0:11.619',0.1741573
'0:11.622',0.15168539
'0:11.625',0.13483146
'0:11.628',0.12359551
'0:11.631',0.1011236
'0:11.633',0.06741573
'0:11.636',0.03932584
'0:11.639',0.01123596
'0:11.642',-0.00561798
'0:11.644',-0.01685393
'0:11.647',-0.03370787
'0:11.650',-0.03932584
'0:11.653',-0.05617978
'0:11.656',-0.08426966
'0:11.658',-0.10674157
'0:11.661',-0.11797753
'0:11.664',-0.12359551
'0:11.667',-0.13483146
'0:11.669',-0.14044944
'0:11.672',-0.15168539
'0:11.675',-0.15730337
'0:11.678',-0.15730337
'0:11.681',-0.15168539
'0:11.683',-0.14606742
'0:11.686',-0.15168539
'0:11.689',-0.16853933
'0:11.692',-0.1741573
'0:11.694',-0.1741573
'0:11.697',-0.15730337
'0:11.700',-0.15168539
'0:11.703',-0.15730337
'0:11.706',-0.16853933
'0:11.708',-0.16853933
'0:11.711',-0.16292135
'0:11.714',-0.15730337
'0:11.717',-0.16853933
'0:11.719',-0.17977528
'0:11.722',-0.18539326
'0:11.725',-0.17977528
'0:11.728',-0.16853933
'0:11.731',-0.15730337
'0:11.733',-0.16853933
'0:11.736',-0.1741573
'0:11.739',-0.1741573
'0:11.742',-0.15730337
'0:11.744',-0.15730337
'0:11.747',-0.16292135
'0:11.750',-0.16853933
'0:11.753',-0.16853933
'0:11.756',-0.16292135
'0:11.758',-0.15730337
'0:11.761',-0.15730337
'0:11.764',-0.16853933
'0:11.767',-0.1741573
'0:11.769',-0.1741573
'0:11.772',-0.16853933
'0:11.775',-0.16292135
'0:11.778',-0.15730337
'0:11.781',-0.15168539
'0:11.783',-0.15168539
'0:11.786',-0.15168539
'0:11.789',-0.15730337
'0:11.792',-0.15730337
'0:11.794',-0.15730337
'0:11.797',-0.16292135
'0:11.800',-0.16292135
'0:11.803',-0.15730337
'0:11.806',-0.15168539
'0:11.808',-0.14606742
'0:11.811',-0.15168539
'0:11.814',-0.15730337
'0:11.817',-0.15168539
'0:11.819',-0.15168539
'0:11.822',-0.15168539
'0:11.825',-0.15168539
'0:11.828',-0.15168539
'0:11.831',-0.14606742
'0:11.833',-0.14044944
'0:11.836',-0.14606742
'0:11.839',-0.15730337
'0:11.842',-0.15730337
'0:11.844',-0.15730337
'0:11.847',-0.15168539
'0:11.850',-0.15168539
'0:11.853',-0.15730337
'0:11.856',-0.15730337
'0:11.858',-0.15168539
'0:11.861',-0.15730337
'0:11.864',-0.17977528
'0:11.867',-0.17977528
'0:11.869',-0.15730337
'0:11.872',-0.14606742
'0:11.875',-0.14044944
'0:11.878',-0.15168539
'0:11.881',-0.15168539
'0:11.883',-0.15168539
'0:11.886',-0.15730337
'0:11.889',-0.1741573
'0:11.892',-0.1741573
'0:11.894',-0.1741573
'0:11.897',-0.18539326
'0:11.900',-0.17977528
'0:11.903',-0.15730337
'0:11.906',-0.15168539
'0:11.908',-0.15730337
'0:11.911',-0.18539326
'0:11.914',-0.17977528
'0:11.917',-0.16853933
'0:11.919',-0.15730337
'0:11.922',-0.1741573
'0:11.925',-0.18539326
'0:11.928',-0.17977528
'0:11.931',-0.15730337
'0:11.933',-0.15730337
'0:11.936',-0.1741573
'0:11.939',-0.17977528
'0:11.942',-0.19101124
'0:11.944',-0.19101124
'0:11.947',-0.1741573
'0:11.950',-0.16292135
'0:11.953',-0.16853933
'0:11.956',-0.17977528
'0:11.958',-0.17977528
'0:11.961',-0.1741573
'0:11.964',-0.16853933
'0:11.967',-0.1741573
'0:11.969',-0.17977528
'0:11.972',-0.19101124
'0:11.975',-0.19101124
'0:11.978',-0.18539326
'0:11.981',-0.1741573
'0:11.983',-0.1741573
'0:11.986',-0.16853933
'0:11.989',-0.1741573
'0:11.992',-0.1741573
'0:11.994',-0.1741573
'0:11.997',-0.16853933
'0:12.000',-0.15730337
'0:12.003',-0.15168539
'0:12.006',-0.15168539
'0:12.008',-0.12921348
'0:12.011',-0.12359551
'0:12.014',-0.11797753
'0:12.017',-0.11797753
'0:12.019',-0.11797753
'0:12.022',-0.12359551
'0:12.025',-0.11797753
'0:12.028',-0.10674157
'0:12.031',-0.09550562
'0:12.033',-0.07865169
'0:12.036',-0.06741573
'0:12.039',-0.07303371
'0:12.042',-0.07865169
'0:12.044',-0.08426966
'0:12.047',-0.08426966
'0:12.050',-0.08988764
'0:12.053',-0.1011236
'0:12.056',-0.11235955
'0:12.058',-0.11235955
'0:12.061',-0.11797753
'0:12.064',-0.11235955
'0:12.067',-0.11797753
'0:12.069',-0.12921348
'0:12.072',-0.14044944
'0:12.075',-0.15730337
'0:12.078',-0.1741573
'0:12.081',-0.18539326
'0:12.083',-0.19101124
'0:12.086',-0.20224719
'0:12.089',-0.20224719
'0:12.092',-0.20224719
'0:12.094',-0.20224719
'0:12.097',-0.21348315
'0:12.100',-0.21348315
'0:12.103',-0.21348315
'0:12.106',-0.21910112
'0:12.108',-0.2247191
'0:12.111',-0.23033708
'0:12.114',-0.21910112
'0:12.117',-0.21910112
'0:12.119',-0.2247191
'0:12.122',-0.23033708
'0:12.125',-0.2247191
'0:12.128',-0.2247191
'0:12.131',-0.21348315
'0:12.133',-0.20786517
'0:12.136',-0.21348315
'0:12.139',-0.23595506
'0:12.142',-0.26404494
'0:12.144',-0.29213483
'0:12.147',-0.30898876
'0:12.150',-0.3258427
'0:12.153',-0.30337079
'0:12.156',-0.20786517
'0:12.158',-0.06179775
'0:12.161',0.1011236
'0:12.164',0.30337079
'0:12.167',0.51685393
'0:12.169',0.76966292
'0:12.172',1.04494382
'0:12.175',1.36516854
'0:12.178',1.66853933
'0:12.181',1.79213483
'0:12.183',1.64044944
'0:12.186',1.24719101
'0:12.189',0.69101124
'0:12.192',0.18539326
'0:12.194',-0.07303371
'0:12.197',-0.08426966
'0:12.200',-0.00561798
'0:12.203',0
'0:12.206',-0.0505618
'0:12.208',-0.08426966
'0:12.211',-0.1011236
'0:12.214',-0.13483146
'0:12.217',-0.18539326
'0:12.219',-0.21348315
'0:12.222',-0.23033708
'0:12.225',-0.23033708
'0:12.228',-0.23595506
'0:12.231',-0.23595506
'0:12.233',-0.23033708
'0:12.236',-0.2247191
'0:12.239',-0.23595506
'0:12.242',-0.24719101
'0:12.244',-0.24719101
'0:12.247',-0.23595506
'0:12.250',-0.23033708
'0:12.253',-0.24157303
'0:12.256',-0.24719101
'0:12.258',-0.24157303
'0:12.261',-0.23595506
'0:12.264',-0.2247191
'0:12.267',-0.21910112
'0:12.269',-0.20786517
'0:12.272',-0.21348315
'0:12.275',-0.23033708
'0:12.278',-0.23595506
'0:12.281',-0.21910112
'0:12.283',-0.21348315
'0:12.286',-0.21348315
'0:12.289',-0.21348315
'0:12.292',-0.21348315
'0:12.294',-0.20786517
'0:12.297',-0.20224719
'0:12.300',-0.19101124
'0:12.303',-0.17977528
'0:12.306',-0.17977528
'0:12.308',-0.18539326
'0:12.311',-0.18539326
'0:12.314',-0.1741573
'0:12.317',-0.16853933
'0:12.319',-0.15730337
'0:12.322',-0.15730337
'0:12.325',-0.15730337
'0:12.328',-0.16292135
'0:12.331',-0.15168539
'0:12.333',-0.12921348
'0:12.336',-0.11235955
'0:12.339',-0.10674157
'0:12.342',-0.1011236
'0:12.344',-0.08988764
'0:12.347',-0.05617978
'0:12.350',-0.0505618
'0:12.353',-0.0505618
'0:12.356',-0.04494382
'0:12.358',-0.03370787
'0:12.361',-0.00561798
'0:12.364',0.01123596
'0:12.367',0.02247191
'0:12.369',0.03932584
'0:12.372',0.0505618
'0:12.375',0.06179775
'0:12.378',0.08988764
'0:12.381',0.11797753
'0:12.383',0.13483146
'0:12.386',0.13483146
'0:12.389',0.12359551
'0:12.392',0.14044944
'0:12.394',0.16292135
'0:12.397',0.17977528
'0:12.400',0.19101124
'0:12.403',0.19101124
'0:12.406',0.18539326
'0:12.408',0.19101124
'0:12.411',0.19101124
'0:12.414',0.19101124
'0:12.417',0.17977528
'0:12.419',0.16292135
'0:12.422',0.13483146
'0:12.425',0.11235955
'0:12.428',0.08988764
'0:12.431',0.07865169
'0:12.433',0.06741573
'0:12.436',0.03932584
'0:12.439',0.01685393
'0:12.442',0
'0:12.444',-0.03370787
'0:12.447',-0.05617978
'0:12.450',-0.06741573
'0:12.453',-0.07865169
'0:12.456',-0.09550562
'0:12.458',-0.10674157
'0:12.461',-0.12359551
'0:12.464',-0.12359551
'0:12.467',-0.12921348
'0:12.469',-0.13483146
'0:12.472',-0.15168539
'0:12.475',-0.15730337
'0:12.478',-0.15168539
'0:12.481',-0.14044944
'0:12.483',-0.14044944
'0:12.486',-0.15730337
'0:12.489',-0.1741573
'0:12.492',-0.1741573
'0:12.494',-0.16292135
'0:12.497',-0.15168539
'0:12.500',-0.15168539
'0:12.503',-0.15730337
'0:12.506',-0.1741573
'0:12.508',-0.1741573
'0:12.511',-0.1741573
'0:12.514',-0.16853933
'0:12.517',-0.16853933
'0:12.519',-0.1741573
'0:12.522',-0.1741573
'0:12.525',-0.16853933
'0:12.528',-0.15168539
'0:12.531',-0.14044944
'0:12.533',-0.14606742
'0:12.536',-0.16292135
'0:12.539',-0.1741573
'0:12.542',-0.16853933
'0:12.544',-0.15168539
'0:12.547',-0.15168539
'0:12.550',-0.16292135
'0:12.553',-0.16853933
'0:12.556',-0.1741573
'0:12.558',-0.1741573
'0:12.561',-0.16853933
'0:12.564',-0.15730337
'0:12.567',-0.15168539
'0:12.569',-0.14606742
'0:12.572',-0.14606742
'0:12.575',-0.15168539
'0:12.578',-0.15168539
'0:12.581',-0.14606742
'0:12.583',-0.15168539
'0:12.586',-0.15730337
'0:12.589',-0.16292135
'0:12.592',-0.16853933
'0:12.594',-0.16292135
'0:12.597',-0.15168539
'0:12.600',-0.14606742
'0:12.603',-0.15168539
'0:12.606',-0.16292135
'0:12.608',-0.16853933
'0:12.611',-0.16853933
'0:12.614',-0.16853933
'0:12.617',-0.15730337
'0:12.619',-0.15168539
'0:12.622',-0.14044944
'0:12.625',-0.13483146
'0:12.628',-0.13483146
'0:12.631',-0.12921348
'0:12.633',-0.14044944
'0:12.636',-0.15730337
'0:12.639',-0.16853933
'0:12.642',-0.16292135
'0:12.644',-0.15730337
'0:12.647',-0.15168539
'0:12.650',-0.15730337
'0:12.653',-0.16853933
'0:12.656',-0.16853933
'0:12.658',-0.15168539
'0:12.661',-0.14044944
'0:12.664',-0.13483146
'0:12.667',-0.14606742
'0:12.669',-0.15730337
'0:12.672',-0.16292135
'0:12.675',-0.15730337
'0:12.678',-0.15168539
'0:12.681',-0.15730337
'0:12.683',-0.16853933
'0:12.686',-0.16853933
'0:12.689',-0.16292135
'0:12.692',-0.15730337
'0:12.694',-0.15168539
'0:12.697',-0.15168539
'0:12.700',-0.15168539
'0:12.703',-0.16292135
'0:12.706',-0.1741573
'0:12.708',-0.16853933
'0:12.711',-0.16853933
'0:12.714',-0.16292135
'0:12.717',-0.16853933
'0:12.719',-0.15730337
'0:12.722',-0.15730337
'0:12.725',-0.15730337
'0:12.728',-0.1741573
'0:12.731',-0.18539326
'0:12.733',-0.18539326
'0:12.736',-0.1741573
'0:12.739',-0.1741573
'0:12.742',-0.18539326
'0:12.744',-0.19662921
'0:12.747',-0.17977528
'0:12.750',-0.16292135
'0:12.753',-0.16853933
'0:12.756',-0.1741573
'0:12.758',-0.18539326
'0:12.761',-0.18539326
'0:12.764',-0.1741573
'0:12.767',-0.15730337
'0:12.769',-0.16853933
'0:12.772',-0.18539326
'0:12.775',-0.20224719
'0:12.778',-0.19101124
'0:12.781',-0.1741573
'0:12.783',-0.15730337
'0:12.786',-0.15168539
'0:12.789',-0.15730337
'0:12.792',-0.15730337
'0:12.794',-0.15168539
'0:12.797',-0.13483146
'0:12.800',-0.12359551
'0:12.803',-0.12359551
'0:12.806',-0.11797753
'0:12.808',-0.10674157
'0:12.811',-0.11797753
'0:12.814',-0.11797753
'0:12.817',-0.11235955
'0:12.819',-0.08988764
'0:12.822',-0.07303371
'0:12.825',-0.06741573
'0:12.828',-0.06741573
'0:12.831',-0.07303371
'0:12.833',-0.07303371
'0:12.836',-0.07303371
'0:12.839',-0.08426966
'0:12.842',-0.09550562
'0:12.844',-0.10674157
'0:12.847',-0.10674157
'0:12.850',-0.10674157
'0:12.853',-0.11235955
'0:12.856',-0.11797753
'0:12.858',-0.12359551
'0:12.861',-0.14044944
'0:12.864',-0.15168539
'0:12.867',-0.15168539
'0:12.869',-0.15168539
'0:12.872',-0.16853933
'0:12.875',-0.18539326
'0:12.878',-0.20224719
'0:12.881',-0.20224719
'0:12.883',-0.20786517
'0:12.886',-0.21910112
'0:12.889',-0.23595506
'0:12.892',-0.21910112
'0:12.894',-0.20224719
'0:12.897',-0.19101124
'0:12.900',-0.20224719
'0:12.903',-0.2247191
'0:12.906',-0.23595506
'0:12.908',-0.2247191
'0:12.911',-0.2247191
'0:12.914',-0.2247191
'0:12.917',-0.21348315
'0:12.919',-0.21348315
'0:12.922',-0.2247191
'0:12.925',-0.23033708
'0:12.928',-0.21348315
'0:12.931',-0.19662921
'0:12.933',-0.21910112
'0:12.936',-0.26966292
'0:12.939',-0.3258427
'0:12.942',-0.35393258
'0:12.944',-0.3258427
'0:12.947',-0.21348315
'0:12.950',-0.06179775
'0:12.953',0.1011236
'0:12.956',0.28089888
'0:12.958',0.48876404
'0:12.961',0.73033708
'0:12.964',1.01685393
'0:12.967',1.34831461
'0:12.969',1.66292135
'0:12.972',1.79213483
'0:12.975',1.64606742
'0:12.978',1.24157303
'0:12.981',0.66853933
'0:12.983',0.1741573
'0:12.986',-0.05617978
'0:12.989',-0.07865169
'0:12.992',-0.02247191
'0:12.994',-0.03370787
'0:12.997',-0.06741573
'0:13.000',-0.1011236
'0:13.003',-0.15168539
'0:13.006',-0.19101124
'0:13.008',-0.20786517
'0:13.011',-0.21910112
'0:13.014',-0.23595506
'0:13.017',-0.25280899
'0:13.019',-0.25842697
'0:13.022',-0.25842697
'0:13.025',-0.25842697
'0:13.028',-0.26966292
'0:13.031',-0.25842697
'0:13.033',-0.24157303
'0:13.036',-0.23595506
'0:13.039',-0.24719101
'0:13.042',-0.24719101
'0:13.044',-0.25280899
'0:13.047',-0.25842697
'0:13.050',-0.25280899
'0:13.053',-0.23595506
'0:13.056',-0.23595506
'0:13.058',-0.23595506
'0:13.061',-0.2247191
'0:13.064',-0.20786517
'0:13.067',-0.19101124
'0:13.069',-0.19101124
'0:13.072',-0.21348315
'0:13.075',-0.21910112
'0:13.078',-0.21348315
'0:13.081',-0.20786517
'0:13.083',-0.20786517
'0:13.086',-0.20224719
'0:13.089',-0.19101124
'0:13.092',-0.18539326
'0:13.094',-0.19101124
'0:13.097',-0.20224719
'0:13.100',-0.19101124
'0:13.103',-0.1741573
'0:13.106',-0.16853933
'0:13.108',-0.17977528
'0:13.111',-0.17977528
'0:13.114',-0.15730337
'0:13.117',-0.14606742
'0:13.119',-0.13483146
'0:13.122',-0.12359551
'0:13.125',-0.12359551
'0:13.128',-0.12921348
'0:13.131',-0.11235955
'0:13.133',-0.08988764
'0:13.136',-0.08426966
'0:13.139',-0.08426966
'0:13.142',-0.06741573
'0:13.144',-0.05617978
'0:13.147',-0.03370787
'0:13.150',-0.00561798
'0:13.153',0.00561798
'0:13.156',0.01685393
'0:13.158',0.03932584
'0:13.161',0.05617978
'0:13.164',0.06741573
'0:13.167',0.08988764
'0:13.169',0.1011236
'0:13.172',0.1011236
'0:13.175',0.11797753
'0:13.178',0.13483146
'0:13.181',0.15168539
'0:13.183',0.16853933
'0:13.186',0.1741573
'0:13.189',0.1741573
'0:13.192',0.19101124
'0:13.194',0.20786517
'0:13.197',0.20786517
'0:13.200',0.20224719
'0:13.203',0.19662921
'0:13.206',0.18539326
'0:13.208',0.17977528
'0:13.211',0.1741573
'0:13.214',0.16853933
'0:13.217',0.14044944
'0:13.219',0.12359551
'0:13.222',0.08988764
'0:13.225',0.06741573
'0:13.228',0.04494382
'0:13.231',0.03370787
'0:13.233',0.01685393
'0:13.236',-0.00561798
'0:13.239',-0.03370787
'0:13.242',-0.05617978
'0:13.244',-0.07303371
'0:13.247',-0.07865169
'0:13.250',-0.08426966
'0:13.253',-0.08988764
'0:13.256',-0.10674157
'0:13.258',-0.12359551
'0:13.261',-0.13483146
'0:13.264',-0.14044944
'0:13.267',-0.14044944
'0:13.269',-0.14044944
'0:13.272',-0.15168539
'0:13.275',-0.15168539
'0:13.278',-0.15730337
'0:13.281',-0.15730337
'0:13.283',-0.15730337
'0:13.286',-0.15730337
'0:13.289',-0.15730337
'0:13.292',-0.16292135
'0:13.294',-0.1741573
'0:13.297',-0.16853933
'0:13.300',-0.15168539
'0:13.303',-0.13483146
'0:13.306',-0.14606742
'0:13.308',-0.16292135
'0:13.311',-0.16853933
'0:13.314',-0.15730337
'0:13.317',-0.15168539
'0:13.319',-0.16853933
'0:13.322',-0.18539326
'0:13.325',-0.18539326
'0:13.328',-0.17977528
'0:13.331',-0.16853933
'0:13.333',-0.15730337
'0:13.336',-0.15730337
'0:13.339',-0.1741573
'0:13.342',-0.17977528
'0:13.344',-0.16853933
'0:13.347',-0.14044944
'0:13.350',-0.14606742
'0:13.353',-0.15730337
'0:13.356',-0.1741573
'0:13.358',-0.16853933
'0:13.361',-0.15730337
'0:13.364',-0.14044944
'0:13.367',-0.14044944
'0:13.369',-0.14606742
'0:13.372',-0.15730337
'0:13.375',-0.16292135
'0:13.378',-0.15168539
'0:13.381',-0.14044944
'0:13.383',-0.13483146
'0:13.386',-0.14044944
'0:13.389',-0.15168539
'0:13.392',-0.15730337
'0:13.394',-0.15168539
'0:13.397',-0.14606742
'0:13.400',-0.14606742
'0:13.403',-0.14044944
'0:13.406',-0.14606742
'0:13.408',-0.15730337
'0:13.411',-0.15730337
'0:13.414',-0.14606742
'0:13.417',-0.12359551
'0:13.419',-0.11797753
'0:13.422',-0.13483146
'0:13.425',-0.15168539
'0:13.428',-0.15730337
'0:13.431',-0.15730337
'0:13.433',-0.14606742
'0:13.436',-0.14606742
'0:13.439',-0.15730337
'0:13.442',-0.16853933
'0:13.444',-0.15730337
'0:13.447',-0.14606742
'0:13.450',-0.14044944
'0:13.453',-0.13483146
'0:13.456',-0.14044944
'0:13.458',-0.14606742
'0:13.461',-0.15730337
'0:13.464',-0.15168539
'0:13.467',-0.14606742
'0:13.469',-0.14044944
'0:13.472',-0.15730337
'0:13.475',-0.1741573
'0:13.478',-0.17977528
'0:13.481',-0.1741573
'0:13.483',-0.16292135
'0:13.486',-0.15168539
'0:13.489',-0.15168539
'0:13.492',-0.15730337
'0:13.494',-0.16853933
'0:13.497',-0.15730337
'0:13.500',-0.15168539
'0:13.503',-0.15730337
'0:13.506',-0.1741573
'0:13.508',-0.1741573
'0:13.511',-0.16853933
'0:13.514',-0.15730337
'0:13.517',-0.15168539
'0:13.519',-0.15168539
'0:13.522',-0.15730337
'0:13.525',-0.16292135
'0:13.528',-0.16292135
'0:13.531',-0.15730337
'0:13.533',-0.15168539
'0:13.536',-0.15168539
'0:13.539',-0.16853933
'0:13.542',-0.18539326
'0:13.544',-0.18539326
'0:13.547',-0.16853933
'0:13.550',-0.15168539
'0:13.553',-0.14044944
'0:13.556',-0.14606742
'0:13.558',-0.14606742
'0:13.561',-0.13483146
'0:13.564',-0.11235955
'0:13.567',-0.08988764
'0:13.569',-0.09550562
'0:13.572',-0.10674157
'0:13.575',-0.11235955
'0:13.578',-0.1011236
'0:13.581',-0.08988764
'0:13.583',-0.08988764
'0:13.586',-0.08426966
'0:13.589',-0.07303371
'0:13.592',-0.05617978
'0:13.594',-0.03932584
'0:13.597',-0.03932584
'0:13.600',-0.04494382
'0:13.603',-0.05617978
'0:13.606',-0.07303371
'0:13.608',-0.08426966
'0:13.611',-0.09550562
'0:13.614',-0.09550562
'0:13.617',-0.11235955
'0:13.619',-0.12359551
'0:13.622',-0.12921348
'0:13.625',-0.12359551
'0:13.628',-0.13483146
'0:13.631',-0.13483146
'0:13.633',-0.15730337
'0:13.636',-0.1741573
'0:13.639',-0.19662921
'0:13.642',-0.19662921
'0:13.644',-0.19101124
'0:13.647',-0.19101124
'0:13.650',-0.20224719
'0:13.653',-0.21348315
'0:13.656',-0.23033708
'0:13.658',-0.23595506
'0:13.661',-0.2247191
'0:13.664',-0.19101124
'0:13.667',-0.17977528
'0:13.669',-0.19101124
'0:13.672',-0.20786517
'0:13.675',-0.21910112
'0:13.678',-0.20786517
'0:13.681',-0.20786517
'0:13.683',-0.21348315
'0:13.686',-0.21910112
'0:13.689',-0.20786517
'0:13.692',-0.20224719
'0:13.694',-0.21348315
'0:13.697',-0.25280899
'0:13.700',-0.29213483
'0:13.703',-0.32022472
'0:13.706',-0.3258427
'0:13.708',-0.26404494
'0:13.711',-0.13483146
'0:13.714',0.02808989
'0:13.717',0.20224719
'0:13.719',0.38764045
'0:13.722',0.61235955
'0:13.725',0.88202247
'0:13.728',1.18539326
'0:13.731',1.51685393
'0:13.733',1.74157303
'0:13.736',1.73033708
'0:13.739',1.43820225
'0:13.742',0.8988764
'0:13.744',0.33146067
'0:13.747',0
'0:13.750',-0.08426966
'0:13.753',-0.03932584
'0:13.756',-0.01685393
'0:13.758',-0.05617978
'0:13.761',-0.1011236
'0:13.764',-0.13483146
'0:13.767',-0.14606742
'0:13.769',-0.15168539
'0:13.772',-0.18539326
'0:13.775',-0.21910112
'0:13.778',-0.25280899
'0:13.781',-0.25842697
'0:13.783',-0.24157303
'0:13.786',-0.23595506
'0:13.789',-0.24157303
'0:13.792',-0.24157303
'0:13.794',-0.2247191
'0:13.797',-0.21910112
'0:13.800',-0.2247191
'0:13.803',-0.23595506
'0:13.806',-0.23595506
'0:13.808',-0.23033708
'0:13.811',-0.23595506
'0:13.814',-0.23033708
'0:13.817',-0.2247191
'0:13.819',-0.2247191
'0:13.822',-0.23595506
'0:13.825',-0.2247191
'0:13.828',-0.21348315
'0:13.831',-0.20224719
'0:13.833',-0.19101124
'0:13.836',-0.19101124
'0:13.839',-0.20224719
'0:13.842',-0.20224719
'0:13.844',-0.20786517
'0:13.847',-0.20224719
'0:13.850',-0.19101124
'0:13.853',-0.19101124
'0:13.856',-0.19662921
'0:13.858',-0.19101124
'0:13.861',-0.17977528
'0:13.864',-0.16853933
'0:13.867',-0.15168539
'0:13.869',-0.14044944
'0:13.872',-0.15168539
'0:13.875',-0.15730337
'0:13.878',-0.15168539
'0:13.881',-0.12359551
'0:13.883',-0.11797753
'0:13.886',-0.11235955
'0:13.889',-0.11797753
'0:13.892',-0.11235955
'0:13.894',-0.08988764
'0:13.897',-0.06179775
'0:13.900',-0.05617978
'0:13.903',-0.05617978
'0:13.906',-0.0505618
'0:13.908',-0.03932584
'0:13.911',-0.02247191
'0:13.914',0
'0:13.917',0.02247191
'0:13.919',0.03370787
'0:13.922',0.03932584
'0:13.925',0.05617978
'0:13.928',0.08426966
'0:13.931',0.1011236
'0:13.933',0.12359551
'0:13.936',0.13483146
'0:13.939',0.14044944
'0:13.942',0.15730337
'0:13.944',0.16292135
'0:13.947',0.1741573
'0:13.950',0.19101124
'0:13.953',0.20224719
'0:13.956',0.19662921
'0:13.958',0.20224719
'0:13.961',0.20224719
'0:13.964',0.20224719
'0:13.967',0.19662921
'0:13.969',0.19101124
'0:13.972',0.1741573
'0:13.975',0.16853933
'0:13.978',0.14044944
'0:13.981',0.12921348
'0:13.983',0.11797753
'0:13.986',0.09550562
'0:13.989',0.05617978
'0:13.992',0.03370787
'0:13.994',0.01685393
'0:13.997',0.00561798
'0:14.000',-0.00561798
'0:14.003',-0.03370787
'0:14.006',-0.06741573
'0:14.008',-0.07865169
'0:14.011',-0.07865169
'0:14.014',-0.07865169
'0:14.017',-0.1011236
'0:14.019',-0.11797753
'0:14.022',-0.12921348
'0:14.025',-0.12921348
'0:14.028',-0.12359551
'0:14.031',-0.12359551
'0:14.033',-0.12359551
'0:14.036',-0.12921348
'0:14.039',-0.15168539
'0:14.042',-0.15168539
'0:14.044',-0.14606742
'0:14.047',-0.13483146
'0:14.050',-0.13483146
'0:14.053',-0.13483146
'0:14.056',-0.14044944
'0:14.058',-0.15168539
'0:14.061',-0.15168539
'0:14.064',-0.14044944
'0:14.067',-0.13483146
'0:14.069',-0.14044944
'0:14.072',-0.15730337
'0:14.075',-0.16292135
'0:14.078',-0.14044944
'0:14.081',-0.12359551
'0:14.083',-0.13483146
'0:14.086',-0.15168539
'0:14.089',-0.16292135
'0:14.092',-0.15730337
'0:14.094',-0.15730337
'0:14.097',-0.14606742
'0:14.100',-0.14044944
'0:14.103',-0.13483146
'0:14.106',-0.15168539
'0:14.108',-0.16292135
'0:14.111',-0.15168539
'0:14.114',-0.12921348
'0:14.117',-0.12359551
'0:14.119',-0.13483146
'0:14.122',-0.14044944
'0:14.125',-0.14606742
'0:14.128',-0.14044944
'0:14.131',-0.13483146
'0:14.133',-0.13483146
'0:14.136',-0.12921348
'0:14.139',-0.12359551
'0:14.142',-0.12359551
'0:14.144',-0.13483146
'0:14.147',-0.14044944
'0:14.150',-0.13483146
'0:14.153',-0.12921348
'0:14.156',-0.14044944
'0:14.158',-0.14606742
'0:14.161',-0.13483146
'0:14.164',-0.13483146
'0:14.167',-0.13483146
'0:14.169',-0.12921348
'0:14.172',-0.12921348
'0:14.175',-0.11797753
'0:14.178',-0.10674157
'0:14.181',-0.11235955
'0:14.183',-0.12921348
'0:14.186',-0.14044944
'0:14.189',-0.14606742
'0:14.192',-0.14044944
'0:14.194',-0.13483146
'0:14.197',-0.13483146
'0:14.200',-0.13483146
'0:14.203',-0.14606742
'0:14.206',-0.14044944
'0:14.208',-0.12359551
'0:14.211',-0.11797753
'0:14.214',-0.11797753
'0:14.217',-0.12359551
'0:14.219',-0.13483146
'0:14.222',-0.14606742
'0:14.225',-0.14044944
'0:14.228',-0.14044944
'0:14.231',-0.13483146
'0:14.233',-0.14044944
'0:14.236',-0.15730337
'0:14.239',-0.16853933
'0:14.242',-0.16292135
'0:14.244',-0.15168539
'0:14.247',-0.13483146
'0:14.250',-0.14044944
'0:14.253',-0.14606742
'0:14.256',-0.15168539
'0:14.258',-0.15168539
'0:14.261',-0.15168539
'0:14.264',-0.14606742
'0:14.267',-0.14606742
'0:14.269',-0.15730337
'0:14.272',-0.16853933
'0:14.275',-0.16292135
'0:14.278',-0.15168539
'0:14.281',-0.13483146
'0:14.283',-0.13483146
'0:14.286',-0.14044944
'0:14.289',-0.15730337
'0:14.292',-0.16853933
'0:14.294',-0.16853933
'0:14.297',-0.15168539
'0:14.300',-0.15168539
'0:14.303',-0.15730337
'0:14.306',-0.16853933
'0:14.308',-0.16853933
'0:14.311',-0.15730337
'0:14.314',-0.14606742
'0:14.317',-0.14044944
'0:14.319',-0.14606742
'0:14.322',-0.15168539
'0:14.325',-0.15168539
'0:14.328',-0.14044944
'0:14.331',-0.14044944
'0:14.333',-0.15168539
'0:14.336',-0.15168539
'0:14.339',-0.12921348
'0:14.342',-0.1011236
'0:14.344',-0.1011236
'0:14.347',-0.09550562
'0:14.350',-0.08988764
'0:14.353',-0.08426966
'0:14.356',-0.08988764
'0:14.358',-0.1011236
'0:14.361',-0.09550562
'0:14.364',-0.06741573
'0:14.367',-0.0505618
'0:14.369',-0.03932584
'0:14.372',-0.05617978
'0:14.375',-0.05617978
'0:14.378',-0.0505618
'0:14.381',-0.0505618
'0:14.383',-0.06179775
'0:14.386',-0.07303371
'0:14.389',-0.08426966
'0:14.392',-0.1011236
'0:14.394',-0.11797753
'0:14.397',-0.11797753
'0:14.400',-0.10674157
'0:14.403',-0.12359551
'0:14.406',-0.14044944
'0:14.408',-0.14606742
'0:14.411',-0.15168539
'0:14.414',-0.15730337
'0:14.417',-0.16853933
'0:14.419',-0.18539326
'0:14.422',-0.19101124
'0:14.425',-0.19101124
'0:14.428',-0.19101124
'0:14.431',-0.20224719
'0:14.433',-0.20224719
'0:14.436',-0.19101124
'0:14.439',-0.20224719
'0:14.442',-0.21910112
'0:14.444',-0.21910112
'0:14.447',-0.20224719
'0:14.450',-0.19101124
'0:14.453',-0.20224719
'0:14.456',-0.2247191
'0:14.458',-0.21910112
'0:14.461',-0.20224719
'0:14.464',-0.19101124
'0:14.467',-0.20224719
'0:14.469',-0.20786517
'0:14.472',-0.21910112
'0:14.475',-0.24719101
'0:14.478',-0.28651685
'0:14.481',-0.32022472
'0:14.483',-0.31460674
'0:14.486',-0.24157303
'0:14.489',-0.12359551
'0:14.492',0.02808989
'0:14.494',0.2247191
'0:14.497',0.45505618
'0:14.500',0.69101124
'0:14.503',0.9494382
'0:14.506',1.24157303
'0:14.508',1.56179775
'0:14.511',1.76404494
'0:14.514',1.7247191
'0:14.517',1.43258427
'0:14.519',0.91573034
'0:14.522',0.35955056
'0:14.525',0.01123596
'0:14.528',-0.05617978
'0:14.531',0.00561798
'0:14.533',0.02247191
'0:14.536',-0.01123596
'0:14.539',-0.06179775
'0:14.542',-0.08426966
'0:14.544',-0.11797753
'0:14.547',-0.15168539
'0:14.550',-0.1741573
'0:14.553',-0.19101124
'0:14.556',-0.21348315
'0:14.558',-0.2247191
'0:14.561',-0.23595506
'0:14.564',-0.23033708
'0:14.567',-0.21348315
'0:14.569',-0.20786517
'0:14.572',-0.23595506
'0:14.575',-0.24719101
'0:14.578',-0.23595506
'0:14.581',-0.20786517
'0:14.583',-0.20786517
'0:14.586',-0.2247191
'0:14.589',-0.23595506
'0:14.592',-0.2247191
'0:14.594',-0.23595506
'0:14.597',-0.23033708
'0:14.600',-0.2247191
'0:14.603',-0.21910112
'0:14.606',-0.21348315
'0:14.608',-0.20224719
'0:14.611',-0.19662921
'0:14.614',-0.19101124
'0:14.617',-0.18539326
'0:14.619',-0.18539326
'0:14.622',-0.19662921
'0:14.625',-0.20224719
'0:14.628',-0.19662921
'0:14.631',-0.19101124
'0:14.633',-0.18539326
'0:14.636',-0.1741573
'0:14.639',-0.1741573
'0:14.642',-0.16292135
'0:14.644',-0.16853933
'0:14.647',-0.16853933
'0:14.650',-0.15730337
'0:14.653',-0.14044944
'0:14.656',-0.13483146
'0:14.658',-0.13483146
'0:14.661',-0.14044944
'0:14.664',-0.12359551
'0:14.667',-0.11235955
'0:14.669',-0.10674157
'0:14.672',-0.11235955
'0:14.675',-0.08988764
'0:14.678',-0.07303371
'0:14.681',-0.0505618
'0:14.683',-0.03370787
'0:14.686',-0.02247191
'0:14.689',-0.01123596
