'0:00.000',0.31
'0:00.003',0.32
'0:00.006',0.333
'0:00.008',0.35
'0:00.011',0.367
'0:00.014',0.363
'0:00.017',0.347
'0:00.019',0.323
'0:00.022',0.303
'0:00.025',0.287
'0:00.028',0.28
'0:00.031',0.287
'0:00.033',0.3
'0:00.036',0.297
'0:00.039',0.297
'0:00.042',0.297
'0:00.044',0.3
'0:00.047',0.307
'0:00.050',0.317
'0:00.053',0.34
'0:00.056',0.347
'0:00.058',0.347
'0:00.061',0.34
'0:00.064',0.327
'0:00.067',0.327
'0:00.069',0.307
'0:00.072',0.293
'0:00.075',0.297
'0:00.078',0.293
'0:00.081',0.297
'0:00.083',0.31
'0:00.086',0.317
'0:00.089',0.32
'0:00.092',0.32
'0:00.094',0.313
'0:00.097',0.303
'0:00.100',0.307
'0:00.103',0.29
'0:00.106',0.283
'0:00.108',0.277
'0:00.111',0.28
'0:00.114',0.273
'0:00.117',0.267
'0:00.119',0.28
'0:00.122',0.287
'0:00.125',0.29
'0:00.128',0.287
'0:00.131',0.27
'0:00.133',0.263
'0:00.136',0.26
'0:00.139',0.25
'0:00.142',0.26
'0:00.144',0.273
'0:00.147',0.287
'0:00.150',0.28
'0:00.153',0.283
'0:00.156',0.287
'0:00.158',0.273
'0:00.161',0.273
'0:00.164',0.27
'0:00.167',0.27
'0:00.169',0.263
'0:00.172',0.263
'0:00.175',0.25
'0:00.178',0.243
'0:00.181',0.237
'0:00.183',0.22
'0:00.186',0.227
'0:00.189',0.227
'0:00.192',0.243
'0:00.194',0.243
'0:00.197',0.247
'0:00.200',0.257
'0:00.203',0.26
'0:00.206',0.257
'0:00.208',0.247
'0:00.211',0.24
'0:00.214',0.25
'0:00.217',0.257
'0:00.219',0.27
'0:00.222',0.273
'0:00.225',0.287
'0:00.228',0.287
'0:00.231',0.28
'0:00.233',0.287
'0:00.236',0.287
'0:00.239',0.263
'0:00.242',0.263
'0:00.244',0.27
'0:00.247',0.267
'0:00.250',0.26
'0:00.253',0.257
'0:00.256',0.263
'0:00.258',0.273
'0:00.261',0.277
'0:00.264',0.277
'0:00.267',0.277
'0:00.269',0.263
'0:00.272',0.263
'0:00.275',0.27
'0:00.278',0.273
'0:00.281',0.29
'0:00.283',0.29
'0:00.286',0.293
'0:00.289',0.3
'0:00.292',0.287
'0:00.294',0.29
'0:00.297',0.29
'0:00.300',0.277
'0:00.303',0.273
'0:00.306',0.277
'0:00.308',0.277
'0:00.311',0.263
'0:00.314',0.273
'0:00.317',0.267
'0:00.319',0.28
'0:00.322',0.283
'0:00.325',0.273
'0:00.328',0.27
'0:00.331',0.253
'0:00.333',0.26
'0:00.336',0.257
'0:00.339',0.25
'0:00.342',0.26
'0:00.344',0.26
'0:00.347',0.277
'0:00.350',0.28
'0:00.353',0.287
'0:00.356',0.29
'0:00.358',0.273
'0:00.361',0.273
'0:00.364',0.257
'0:00.367',0.26
'0:00.369',0.26
'0:00.372',0.267
'0:00.375',0.263
'0:00.378',0.28
'0:00.381',0.287
'0:00.383',0.297
'0:00.386',0.307
'0:00.389',0.297
'0:00.392',0.28
'0:00.394',0.273
'0:00.397',0.25
'0:00.400',0.26
'0:00.403',0.25
'0:00.406',0.253
'0:00.408',0.263
'0:00.411',0.257
'0:00.414',0.267
'0:00.417',0.27
'0:00.419',0.273
'0:00.422',0.27
'0:00.425',0.257
'0:00.428',0.257
'0:00.431',0.25
'0:00.433',0.257
'0:00.436',0.28
'0:00.439',0.273
'0:00.442',0.293
'0:00.444',0.287
'0:00.447',0.293
'0:00.450',0.303
'0:00.453',0.303
'0:00.456',0.31
'0:00.458',0.303
'0:00.461',0.297
'0:00.464',0.287
'0:00.467',0.28
'0:00.469',0.263
'0:00.472',0.273
'0:00.475',0.28
'0:00.478',0.28
'0:00.481',0.293
'0:00.483',0.287
'0:00.486',0.277
'0:00.489',0.273
'0:00.492',0.267
'0:00.494',0.263
'0:00.497',0.257
'0:00.500',0.25
'0:00.503',0.24
'0:00.506',0.233
'0:00.508',0.247
'0:00.511',0.27
'0:00.514',0.297
'0:00.517',0.313
'0:00.519',0.327
'0:00.522',0.313
'0:00.525',0.32
'0:00.528',0.32
'0:00.531',0.317
'0:00.533',0.32
'0:00.536',0.313
'0:00.539',0.31
'0:00.542',0.317
'0:00.544',0.323
'0:00.547',0.333
'0:00.550',0.327
'0:00.553',0.333
'0:00.556',0.333
'0:00.558',0.32
'0:00.561',0.31
'0:00.564',0.32
'0:00.567',0.34
'0:00.569',0.343
'0:00.572',0.353
'0:00.575',0.367
'0:00.578',0.377
'0:00.581',0.383
'0:00.583',0.39
'0:00.586',0.397
'0:00.589',0.403
'0:00.592',0.4
'0:00.594',0.397
'0:00.597',0.377
'0:00.600',0.38
'0:00.603',0.373
'0:00.606',0.37
'0:00.608',0.37
'0:00.611',0.36
'0:00.614',0.367
'0:00.617',0.357
'0:00.619',0.347
'0:00.622',0.343
'0:00.625',0.317
'0:00.628',0.297
'0:00.631',0.277
'0:00.633',0.27
'0:00.636',0.26
'0:00.639',0.27
'0:00.642',0.287
'0:00.644',0.293
'0:00.647',0.293
'0:00.650',0.297
'0:00.653',0.29
'0:00.656',0.28
'0:00.658',0.277
'0:00.661',0.273
'0:00.664',0.263
'0:00.667',0.28
'0:00.669',0.273
'0:00.672',0.283
'0:00.675',0.29
'0:00.678',0.287
'0:00.681',0.3
'0:00.683',0.303
'0:00.686',0.303
'0:00.689',0.303
'0:00.692',0.283
'0:00.694',0.283
'0:00.697',0.293
'0:00.700',0.287
'0:00.703',0.28
'0:00.706',0.28
'0:00.708',0.3
'0:00.711',0.3
'0:00.714',0.317
'0:00.717',0.323
'0:00.719',0.37
'0:00.722',0.447
'0:00.725',0.56
'0:00.728',0.7
'0:00.731',0.863
'0:00.733',1.08
'0:00.736',1.32
'0:00.739',1.543
'0:00.742',1.72
'0:00.744',1.783
'0:00.747',1.71
'0:00.750',1.493
'0:00.753',1.17
'0:00.756',0.793
'0:00.758',0.45
'0:00.761',0.197
'0:00.764',0.047
'0:00.767',0.007
'0:00.769',0.013
'0:00.772',0.04
'0:00.775',0.07
'0:00.778',0.087
'0:00.781',0.1
'0:00.783',0.093
'0:00.786',0.123
'0:00.789',0.14
'0:00.792',0.163
'0:00.794',0.213
'0:00.797',0.237
'0:00.800',0.267
'0:00.803',0.283
'0:00.806',0.27
'0:00.808',0.27
'0:00.811',0.26
'0:00.814',0.263
'0:00.817',0.263
'0:00.819',0.273
'0:00.822',0.27
'0:00.825',0.273
'0:00.828',0.257
'0:00.831',0.26
'0:00.833',0.263
'0:00.836',0.28
'0:00.839',0.28
'0:00.842',0.28
'0:00.844',0.283
'0:00.847',0.287
'0:00.850',0.287
'0:00.853',0.297
'0:00.856',0.3
'0:00.858',0.297
'0:00.861',0.303
'0:00.864',0.3
'0:00.867',0.303
'0:00.869',0.303
'0:00.872',0.303
'0:00.875',0.31
'0:00.878',0.323
'0:00.881',0.32
'0:00.883',0.307
'0:00.886',0.317
'0:00.889',0.303
'0:00.892',0.303
'0:00.894',0.307
'0:00.897',0.293
'0:00.900',0.287
'0:00.903',0.28
'0:00.906',0.28
'0:00.908',0.32
'0:00.911',0.327
'0:00.914',0.33
'0:00.917',0.347
'0:00.919',0.353
'0:00.922',0.36
'0:00.925',0.367
'0:00.928',0.347
'0:00.931',0.333
'0:00.933',0.333
'0:00.936',0.317
'0:00.939',0.317
'0:00.942',0.327
'0:00.944',0.323
'0:00.947',0.333
'0:00.950',0.33
'0:00.953',0.33
'0:00.956',0.33
'0:00.958',0.33
'0:00.961',0.333
'0:00.964',0.337
'0:00.967',0.357
'0:00.969',0.36
'0:00.972',0.35
'0:00.975',0.357
'0:00.978',0.34
'0:00.981',0.323
'0:00.983',0.293
'0:00.986',0.287
'0:00.989',0.31
'0:00.992',0.327
'0:00.994',0.353
'0:00.997',0.343
'0:01.000',0.34
'0:01.003',0.317
'0:01.006',0.287
'0:01.008',0.27
'0:01.011',0.263
'0:01.014',0.273
'0:01.017',0.287
'0:01.019',0.287
'0:01.022',0.297
'0:01.025',0.303
'0:01.028',0.313
'0:01.031',0.31
'0:01.033',0.307
'0:01.036',0.31
'0:01.039',0.31
'0:01.042',0.317
'0:01.044',0.327
'0:01.047',0.333
'0:01.050',0.35
'0:01.053',0.357
'0:01.056',0.357
'0:01.058',0.343
'0:01.061',0.33
'0:01.064',0.317
'0:01.067',0.297
'0:01.069',0.273
'0:01.072',0.257
'0:01.075',0.233
'0:01.078',0.227
'0:01.081',0.227
'0:01.083',0.227
'0:01.086',0.233
'0:01.089',0.24
'0:01.092',0.233
'0:01.094',0.217
'0:01.097',0.203
'0:01.100',0.183
'0:01.103',0.167
'0:01.106',0.16
'0:01.108',0.157
'0:01.111',0.163
'0:01.114',0.173
'0:01.117',0.2
'0:01.119',0.213
'0:01.122',0.217
'0:01.125',0.217
'0:01.128',0.213
'0:01.131',0.203
'0:01.133',0.203
'0:01.136',0.203
'0:01.139',0.21
'0:01.142',0.2
'0:01.144',0.217
'0:01.147',0.227
'0:01.150',0.21
'0:01.153',0.22
'0:01.156',0.2
'0:01.158',0.193
'0:01.161',0.183
'0:01.164',0.18
'0:01.167',0.193
'0:01.169',0.193
'0:01.172',0.203
'0:01.175',0.197
'0:01.178',0.21
'0:01.181',0.217
'0:01.183',0.233
'0:01.186',0.25
'0:01.189',0.25
'0:01.192',0.253
'0:01.194',0.233
'0:01.197',0.227
'0:01.200',0.2
'0:01.203',0.18
'0:01.206',0.17
'0:01.208',0.17
'0:01.211',0.18
'0:01.214',0.197
'0:01.217',0.217
'0:01.219',0.227
'0:01.222',0.227
'0:01.225',0.227
'0:01.228',0.223
'0:01.231',0.227
'0:01.233',0.227
'0:01.236',0.213
'0:01.239',0.207
'0:01.242',0.21
'0:01.244',0.203
'0:01.247',0.203
'0:01.250',0.187
'0:01.253',0.193
'0:01.256',0.187
'0:01.258',0.193
'0:01.261',0.187
'0:01.264',0.18
'0:01.267',0.18
'0:01.269',0.19
'0:01.272',0.187
'0:01.275',0.177
'0:01.278',0.187
'0:01.281',0.193
'0:01.283',0.2
'0:01.286',0.197
'0:01.289',0.19
'0:01.292',0.187
'0:01.294',0.163
'0:01.297',0.14
'0:01.300',0.137
'0:01.303',0.147
'0:01.306',0.147
'0:01.308',0.157
'0:01.311',0.183
'0:01.314',0.187
'0:01.317',0.187
'0:01.319',0.183
'0:01.322',0.183
'0:01.325',0.173
'0:01.328',0.163
'0:01.331',0.163
'0:01.333',0.17
'0:01.336',0.163
'0:01.339',0.163
'0:01.342',0.157
'0:01.344',0.153
'0:01.347',0.147
'0:01.350',0.15
'0:01.353',0.143
'0:01.356',0.133
'0:01.358',0.133
'0:01.361',0.137
'0:01.364',0.133
'0:01.367',0.153
'0:01.369',0.153
'0:01.372',0.17
'0:01.375',0.16
'0:01.378',0.163
'0:01.381',0.157
'0:01.383',0.147
'0:01.386',0.157
'0:01.389',0.147
'0:01.392',0.15
'0:01.394',0.147
'0:01.397',0.153
'0:01.400',0.157
'0:01.403',0.163
'0:01.406',0.167
'0:01.408',0.147
'0:01.411',0.14
'0:01.414',0.12
'0:01.417',0.13
'0:01.419',0.147
'0:01.422',0.157
'0:01.425',0.19
'0:01.428',0.197
'0:01.431',0.193
'0:01.433',0.19
'0:01.436',0.18
'0:01.439',0.163
'0:01.442',0.18
'0:01.444',0.21
'0:01.447',0.23
'0:01.450',0.253
'0:01.453',0.267
'0:01.456',0.273
'0:01.458',0.277
'0:01.461',0.253
'0:01.464',0.233
'0:01.467',0.203
'0:01.469',0.17
'0:01.472',0.153
'0:01.475',0.15
'0:01.478',0.15
'0:01.481',0.153
'0:01.483',0.153
'0:01.486',0.157
'0:01.489',0.15
'0:01.492',0.147
'0:01.494',0.123
'0:01.497',0.083
'0:01.500',0.057
'0:01.503',0.05
'0:01.506',0.06
'0:01.508',0.063
'0:01.511',0.087
'0:01.514',0.107
'0:01.517',0.113
'0:01.519',0.117
'0:01.522',0.11
'0:01.525',0.107
'0:01.528',0.097
'0:01.531',0.09
'0:01.533',0.077
'0:01.536',0.087
'0:01.539',0.087
'0:01.542',0.097
'0:01.544',0.127
'0:01.547',0.123
'0:01.550',0.13
'0:01.553',0.123
'0:01.556',0.13
'0:01.558',0.133
'0:01.561',0.133
'0:01.564',0.137
'0:01.567',0.147
'0:01.569',0.157
'0:01.572',0.187
'0:01.575',0.253
'0:01.578',0.373
'0:01.581',0.503
'0:01.583',0.67
'0:01.586',0.883
'0:01.589',1.137
'0:01.592',1.4
'0:01.594',1.597
'0:01.597',1.68
'0:01.600',1.6
'0:01.603',1.337
'0:01.606',0.97
'0:01.608',0.543
'0:01.611',0.167
'0:01.614',-0.11
'0:01.617',-0.247
'0:01.619',-0.253
'0:01.622',-0.217
'0:01.625',-0.16
'0:01.628',-0.13
'0:01.631',-0.083
'0:01.633',-0.063
'0:01.636',-0.06
'0:01.639',-0.027
'0:01.642',0.007
'0:01.644',0.067
'0:01.647',0.107
'0:01.650',0.13
'0:01.653',0.153
'0:01.656',0.147
'0:01.658',0.137
'0:01.661',0.117
'0:01.664',0.117
'0:01.667',0.11
'0:01.669',0.1
'0:01.672',0.117
'0:01.675',0.127
'0:01.678',0.157
'0:01.681',0.167
'0:01.683',0.173
'0:01.686',0.177
'0:01.689',0.163
'0:01.692',0.163
'0:01.694',0.15
'0:01.697',0.143
'0:01.700',0.133
'0:01.703',0.133
'0:01.706',0.137
'0:01.708',0.143
'0:01.711',0.17
'0:01.714',0.203
'0:01.717',0.227
'0:01.719',0.25
'0:01.722',0.243
'0:01.725',0.243
'0:01.728',0.233
'0:01.731',0.217
'0:01.733',0.23
'0:01.736',0.223
'0:01.739',0.227
'0:01.742',0.223
'0:01.744',0.233
'0:01.747',0.247
'0:01.750',0.247
'0:01.753',0.263
'0:01.756',0.257
'0:01.758',0.25
'0:01.761',0.25
'0:01.764',0.257
'0:01.767',0.253
'0:01.769',0.25
'0:01.772',0.27
'0:01.775',0.263
'0:01.778',0.28
'0:01.781',0.273
'0:01.783',0.28
'0:01.786',0.297
'0:01.789',0.297
'0:01.792',0.297
'0:01.794',0.287
'0:01.797',0.287
'0:01.800',0.303
'0:01.803',0.31
'0:01.806',0.323
'0:01.808',0.327
'0:01.811',0.33
'0:01.814',0.32
'0:01.817',0.327
'0:01.819',0.343
'0:01.822',0.34
'0:01.825',0.35
'0:01.828',0.35
'0:01.831',0.35
'0:01.833',0.35
'0:01.836',0.347
'0:01.839',0.34
'0:01.842',0.327
'0:01.844',0.333
'0:01.847',0.333
'0:01.850',0.337
'0:01.853',0.337
'0:01.856',0.337
'0:01.858',0.33
'0:01.861',0.32
'0:01.864',0.31
'0:01.867',0.303
'0:01.869',0.287
'0:01.872',0.273
'0:01.875',0.267
'0:01.878',0.27
'0:01.881',0.28
'0:01.883',0.28
'0:01.886',0.297
'0:01.889',0.297
'0:01.892',0.3
'0:01.894',0.297
'0:01.897',0.293
'0:01.900',0.287
'0:01.903',0.28
'0:01.906',0.27
'0:01.908',0.26
'0:01.911',0.273
'0:01.914',0.27
'0:01.917',0.257
'0:01.919',0.26
'0:01.922',0.223
'0:01.925',0.207
'0:01.928',0.187
'0:01.931',0.177
'0:01.933',0.157
'0:01.936',0.147
'0:01.939',0.127
'0:01.942',0.133
'0:01.944',0.14
'0:01.947',0.147
'0:01.950',0.147
'0:01.953',0.157
'0:01.956',0.153
'0:01.958',0.147
'0:01.961',0.133
'0:01.964',0.123
'0:01.967',0.107
'0:01.969',0.123
'0:01.972',0.133
'0:01.975',0.14
'0:01.978',0.143
'0:01.981',0.153
'0:01.983',0.16
'0:01.986',0.157
'0:01.989',0.143
'0:01.992',0.147
'0:01.994',0.143
'0:01.997',0.143
'0:02.000',0.143
'0:02.003',0.133
'0:02.006',0.14
'0:02.008',0.137
'0:02.011',0.153
'0:02.014',0.153
'0:02.017',0.167
'0:02.019',0.18
'0:02.022',0.177
'0:02.025',0.173
'0:02.028',0.163
'0:02.031',0.147
'0:02.033',0.13
'0:02.036',0.12
'0:02.039',0.11
'0:02.042',0.117
'0:02.044',0.137
'0:02.047',0.167
'0:02.050',0.17
'0:02.053',0.177
'0:02.056',0.18
'0:02.058',0.193
'0:02.061',0.187
'0:02.064',0.18
'0:02.067',0.17
'0:02.069',0.163
'0:02.072',0.15
'0:02.075',0.157
'0:02.078',0.167
'0:02.081',0.177
'0:02.083',0.18
'0:02.086',0.197
'0:02.089',0.137
'0:02.092',0.19
'0:02.094',0.19
'0:02.097',0.187
'0:02.100',0.2
'0:02.103',0.19
'0:02.106',0.193
'0:02.108',0.22
'0:02.111',0.243
'0:02.114',0.253
'0:02.117',0.263
'0:02.119',0.257
'0:02.122',0.25
'0:02.125',0.227
'0:02.128',0.203
'0:02.131',0.17
'0:02.133',0.15
'0:02.136',0.12
'0:02.139',0.11
'0:02.142',0.093
'0:02.144',0.103
'0:02.147',0.093
'0:02.150',0.083
'0:02.153',0.09
'0:02.156',0.087
'0:02.158',0.077
'0:02.161',0.063
'0:02.164',0.057
'0:02.167',0.053
'0:02.169',0.05
'0:02.172',0.053
'0:02.175',0.057
'0:02.178',0.06
'0:02.181',0.063
'0:02.183',0.087
'0:02.186',0.097
'0:02.189',0.083
'0:02.192',0.093
'0:02.194',0.1
'0:02.197',0.097
'0:02.200',0.11
'0:02.203',0.11
'0:02.206',0.1
'0:02.208',0.1
'0:02.211',0.083
'0:02.214',0.063
'0:02.217',0.053
'0:02.219',0.067
'0:02.222',0.07
'0:02.225',0.063
'0:02.228',0.07
'0:02.231',0.07
'0:02.233',0.057
'0:02.236',0.047
'0:02.239',0.077
'0:02.242',0.143
'0:02.244',0.257
'0:02.247',0.407
'0:02.250',0.62
'0:02.253',0.863
'0:02.256',1.157
'0:02.258',1.43
'0:02.261',1.617
'0:02.264',1.643
'0:02.267',1.493
'0:02.269',1.183
'0:02.272',0.763
'0:02.275',0.347
'0:02.278',0.033
'0:02.281',-0.167
'0:02.283',-0.23
'0:02.286',-0.217
'0:02.289',-0.17
'0:02.292',-0.127
'0:02.294',-0.113
'0:02.297',-0.073
'0:02.300',-0.053
'0:02.303',-0.03
'0:02.306',-0.007
'0:02.308',0.013
'0:02.311',0.053
'0:02.314',0.067
'0:02.317',0.083
'0:02.319',0.097
'0:02.322',0.093
'0:02.325',0.093
'0:02.328',0.037
'0:02.331',0.087
'0:02.333',0.073
'0:02.336',0.067
'0:02.339',0.08
'0:02.342',0.087
'0:02.344',0.1
'0:02.347',0.11
'0:02.350',0.133
'0:02.353',0.147
'0:02.356',0.137
'0:02.358',0.147
'0:02.361',0.14
'0:02.364',0.133
'0:02.367',0.12
'0:02.369',0.103
'0:02.372',0.113
'0:02.375',0.113
'0:02.378',0.133
'0:02.381',0.133
'0:02.383',0.157
'0:02.386',0.157
'0:02.389',0.163
'0:02.392',0.163
'0:02.394',0.153
'0:02.397',0.153
'0:02.400',0.157
'0:02.403',0.15
'0:02.406',0.143
'0:02.408',0.14
'0:02.411',0.147
'0:02.414',0.16
'0:02.417',0.173
'0:02.419',0.19
'0:02.422',0.193
'0:02.425',0.207
'0:02.428',0.193
'0:02.431',0.197
'0:02.433',0.21
'0:02.436',0.2
'0:02.439',0.197
'0:02.442',0.207
'0:02.444',0.22
'0:02.447',0.22
'0:02.450',0.24
'0:02.453',0.257
'0:02.456',0.25
'0:02.458',0.25
'0:02.461',0.233
'0:02.464',0.24
'0:02.467',0.233
'0:02.469',0.243
'0:02.472',0.24
'0:02.475',0.24
'0:02.478',0.263
'0:02.481',0.253
'0:02.483',0.263
'0:02.486',0.263
'0:02.489',0.267
'0:02.492',0.257
'0:02.494',0.25
'0:02.497',0.24
'0:02.500',0.237
'0:02.503',0.227
'0:02.506',0.22
'0:02.508',0.213
'0:02.511',0.223
'0:02.514',0.233
'0:02.517',0.24
'0:02.519',0.233
'0:02.522',0.227
'0:02.525',0.203
'0:02.528',0.2
'0:02.531',0.2
'0:02.533',0.19
'0:02.536',0.19
'0:02.539',0.187
'0:02.542',0.193
'0:02.544',0.213
'0:02.547',0.223
'0:02.550',0.237
'0:02.553',0.23
'0:02.556',0.223
'0:02.558',0.217
'0:02.561',0.203
'0:02.564',0.193
'0:02.567',0.177
'0:02.569',0.177
'0:02.572',0.163
'0:02.575',0.163
'0:02.578',0.167
'0:02.581',0.15
'0:02.583',0.147
'0:02.586',0.14
'0:02.589',0.12
'0:02.592',0.117
'0:02.594',0.093
'0:02.597',0.097
'0:02.600',0.09
'0:02.603',0.077
'0:02.606',0.087
'0:02.608',0.073
'0:02.611',0.07
'0:02.614',0.067
'0:02.617',0.077
'0:02.619',0.083
'0:02.622',0.08
'0:02.625',0.087
'0:02.628',0.07
'0:02.631',0.073
'0:02.633',0.087
'0:02.636',0.083
'0:02.639',0.077
'0:02.642',0.083
'0:02.644',0.087
'0:02.647',0.07
'0:02.650',0.087
'0:02.653',0.093
'0:02.656',0.08
'0:02.658',0.09
'0:02.661',0.087
'0:02.664',0.073
'0:02.667',0.063
'0:02.669',0.077
'0:02.672',0.073
'0:02.675',0.07
'0:02.678',0.093
'0:02.681',0.087
'0:02.683',0.093
'0:02.686',0.09
'0:02.689',0.077
'0:02.692',0.063
'0:02.694',0.06
'0:02.697',0.063
'0:02.700',0.06
'0:02.703',0.053
'0:02.706',0.05
'0:02.708',0.053
'0:02.711',0.07
'0:02.714',0.07
'0:02.717',0.077
'0:02.719',0.093
'0:02.722',0.09
'0:02.725',0.08
'0:02.728',0.07
'0:02.731',0.067
'0:02.733',0.047
'0:02.736',0.04
'0:02.739',0.043
'0:02.742',0.04
'0:02.744',0.057
'0:02.747',0.05
'0:02.750',0.07
'0:02.753',0.077
'0:02.756',0.073
'0:02.758',0.06
'0:02.761',0.043
'0:02.764',0.047
'0:02.767',0.047
'0:02.769',0.047
'0:02.772',0.04
'0:02.775',0.04
'0:02.778',0.057
'0:02.781',0.05
'0:02.783',0.047
'0:02.786',0.043
'0:02.789',0.047
'0:02.792',0.057
'0:02.794',0.04
'0:02.797',0.023
'0:02.800',0.023
'0:02.803',0.023
'0:02.806',0.013
'0:02.808',0.017
'0:02.811',0.027
'0:02.814',0.023
'0:02.817',0.023
'0:02.819',0.027
'0:02.822',0.023
'0:02.825',0.017
'0:02.828',0.007
'0:02.831',0
'0:02.833',-0.02
'0:02.836',-0.017
'0:02.839',-0.02
'0:02.842',-0.007
'0:02.844',0
'0:02.847',-0.007
'0:02.850',0.007
'0:02.853',0
'0:02.856',0.003
'0:02.858',0.007
'0:02.861',0
'0:02.864',0.01
'0:02.867',-0.007
'0:02.869',0.007
'0:02.872',0.023
'0:02.875',0.023
'0:02.878',0.04
'0:02.881',0.04
'0:02.883',0.047
'0:02.886',0.047
'0:02.889',0.043
'0:02.892',0.043
'0:02.894',0.03
'0:02.897',0.03
'0:02.900',0.04
'0:02.903',0.057
'0:02.906',0.07
'0:02.908',0.077
'0:02.911',0.083
'0:02.914',0.083
'0:02.917',0.1
'0:02.919',0.077
'0:02.922',0.073
'0:02.925',0.053
'0:02.928',0.033
'0:02.931',0.017
'0:02.933',-0.013
'0:02.936',-0.017
'0:02.939',-0.03
'0:02.942',-0.03
'0:02.944',-0.043
'0:02.947',-0.05
'0:02.950',-0.053
'0:02.953',-0.073
'0:02.956',-0.093
'0:02.958',-0.107
'0:02.961',-0.107
'0:02.964',-0.11
'0:02.967',-0.113
'0:02.969',-0.107
'0:02.972',-0.107
'0:02.975',-0.1
'0:02.978',-0.073
'0:02.981',-0.077
'0:02.983',-0.067
'0:02.986',-0.077
'0:02.989',-0.067
'0:02.992',-0.067
'0:02.994',-0.09
'0:02.997',-0.1
'0:03.000',-0.107
'0:03.003',-0.1
'0:03.006',-0.103
'0:03.008',-0.083
'0:03.011',-0.067
'0:03.014',-0.067
'0:03.017',-0.06
'0:03.019',-0.067
'0:03.022',-0.063
'0:03.025',-0.06
'0:03.028',-0.073
'0:03.031',-0.07
'0:03.033',-0.077
'0:03.036',-0.063
'0:03.039',-0.04
'0:03.042',0
'0:03.044',0.093
'0:03.047',0.233
'0:03.050',0.4
'0:03.053',0.583
'0:03.056',0.81
'0:03.058',1.067
'0:03.061',1.29
'0:03.064',1.43
'0:03.067',1.433
'0:03.069',1.3
'0:03.072',1.013
'0:03.075',0.637
'0:03.078',0.25
'0:03.081',-0.083
'0:03.083',-0.29
'0:03.086',-0.387
'0:03.089',-0.397
'0:03.092',-0.347
'0:03.094',-0.3
'0:03.097',-0.27
'0:03.100',-0.263
'0:03.103',-0.263
'0:03.106',-0.263
'0:03.108',-0.247
'0:03.111',-0.21
'0:03.114',-0.19
'0:03.117',-0.137
'0:03.119',-0.103
'0:03.122',-0.083
'0:03.125',-0.073
'0:03.128',-0.083
'0:03.131',-0.1
'0:03.133',-0.1
'0:03.136',-0.1
'0:03.139',-0.123
'0:03.142',-0.113
'0:03.144',-0.08
'0:03.147',-0.083
'0:03.150',-0.067
'0:03.153',-0.07
'0:03.156',-0.06
'0:03.158',-0.073
'0:03.161',-0.087
'0:03.164',-0.083
'0:03.167',-0.077
'0:03.169',-0.073
'0:03.172',-0.09
'0:03.175',-0.093
'0:03.178',-0.077
'0:03.181',-0.073
'0:03.183',-0.053
'0:03.186',-0.057
'0:03.189',-0.047
'0:03.192',-0.047
'0:03.194',-0.04
'0:03.197',-0.043
'0:03.200',-0.037
'0:03.203',-0.037
'0:03.206',-0.04
'0:03.208',-0.033
'0:03.211',-0.013
'0:03.214',-0.02
'0:03.217',-0.01
'0:03.219',-0.02
'0:03.222',-0.02
'0:03.225',-0.02
'0:03.228',-0.013
'0:03.231',-0.02
'0:03.233',-0.03
'0:03.236',-0.037
'0:03.239',-0.04
'0:03.242',-0.017
'0:03.244',-0.007
'0:03.247',0.003
'0:03.250',0.01
'0:03.253',0.017
'0:03.256',0.017
'0:03.258',0.017
'0:03.261',0.013
'0:03.264',0.017
'0:03.267',0.007
'0:03.269',0.017
'0:03.272',0.013
'0:03.275',0.013
'0:03.278',0.033
'0:03.281',0.037
'0:03.283',0.04
'0:03.286',0.053
'0:03.289',0.05
'0:03.292',0.063
'0:03.294',0.047
'0:03.297',0.033
'0:03.300',0.017
'0:03.303',0.023
'0:03.306',0.017
'0:03.308',0.023
'0:03.311',0.047
'0:03.314',0.037
'0:03.317',0.023
'0:03.319',0.007
'0:03.322',0.007
'0:03.325',-0.007
'0:03.328',-0.02
'0:03.331',-0.023
'0:03.333',-0.023
'0:03.336',-0.027
'0:03.339',-0.03
'0:03.342',-0.017
'0:03.344',-0.007
'0:03.347',0
'0:03.350',0.017
'0:03.353',0.007
'0:03.356',0.013
'0:03.358',0.02
'0:03.361',0.003
'0:03.364',0.017
'0:03.367',0.007
'0:03.369',0
'0:03.372',-0.01
'0:03.375',-0.023
'0:03.378',-0.023
'0:03.381',-0.047
'0:03.383',-0.047
'0:03.386',-0.073
'0:03.389',-0.07
'0:03.392',-0.073
'0:03.394',-0.083
'0:03.397',-0.097
'0:03.400',-0.107
'0:03.403',-0.12
'0:03.406',-0.14
'0:03.408',-0.137
'0:03.411',-0.13
'0:03.414',-0.113
'0:03.417',-0.08
'0:03.419',-0.08
'0:03.422',-0.067
'0:03.425',-0.067
'0:03.428',-0.06
'0:03.431',-0.06
'0:03.433',-0.077
'0:03.436',-0.093
'0:03.439',-0.08
'0:03.442',-0.067
'0:03.444',-0.06
'0:03.447',-0.067
'0:03.450',-0.06
'0:03.453',-0.047
'0:03.456',-0.043
'0:03.458',-0.037
'0:03.461',-0.053
'0:03.464',-0.06
'0:03.467',-0.067
'0:03.469',-0.057
'0:03.472',-0.057
'0:03.475',-0.043
'0:03.478',-0.03
'0:03.481',-0.04
'0:03.483',-0.023
'0:03.486',-0.023
'0:03.489',-0.02
'0:03.492',-0.03
'0:03.494',-0.047
'0:03.497',-0.043
'0:03.500',-0.043
'0:03.503',-0.043
'0:03.506',-0.047
'0:03.508',-0.057
'0:03.511',-0.05
'0:03.514',-0.053
'0:03.517',-0.043
'0:03.519',-0.05
'0:03.522',-0.04
'0:03.525',-0.03
'0:03.528',-0.04
'0:03.531',-0.043
'0:03.533',-0.067
'0:03.536',-0.06
'0:03.539',-0.06
'0:03.542',-0.053
'0:03.544',-0.043
'0:03.547',-0.043
'0:03.550',-0.05
'0:03.553',-0.053
'0:03.556',-0.033
'0:03.558',-0.037
'0:03.561',-0.033
'0:03.564',-0.03
'0:03.567',-0.023
'0:03.569',-0.017
'0:03.572',-0.017
'0:03.575',-0.007
'0:03.578',-0.01
'0:03.581',-0.01
'0:03.583',0
'0:03.586',0
'0:03.589',-0.003
'0:03.592',-0.007
'0:03.594',-0.017
'0:03.597',0
'0:03.600',0
'0:03.603',0.007
'0:03.606',0.017
'0:03.608',0.02
'0:03.611',0.03
'0:03.614',0.04
'0:03.617',0.057
'0:03.619',0.047
'0:03.622',0.05
'0:03.625',0.043
'0:03.628',0.023
'0:03.631',0.007
'0:03.633',-0.007
'0:03.636',-0.02
'0:03.639',-0.043
'0:03.642',-0.053
'0:03.644',-0.067
'0:03.647',-0.07
'0:03.650',-0.07
'0:03.653',-0.09
'0:03.656',-0.09
'0:03.658',-0.1
'0:03.661',-0.113
'0:03.664',-0.117
'0:03.667',-0.123
'0:03.669',-0.14
'0:03.672',-0.133
'0:03.675',-0.123
'0:03.678',-0.113
'0:03.681',-0.107
'0:03.683',-0.097
'0:03.686',-0.103
'0:03.689',-0.1
'0:03.692',-0.117
'0:03.694',-0.13
'0:03.697',-0.12
'0:03.700',-0.137
'0:03.703',-0.12
'0:03.706',-0.113
'0:03.708',-0.103
'0:03.711',-0.083
'0:03.714',-0.083
'0:03.717',-0.083
'0:03.719',-0.083
'0:03.722',-0.083
'0:03.725',-0.1
'0:03.728',-0.113
'0:03.731',-0.12
'0:03.733',-0.117
'0:03.736',-0.107
'0:03.739',-0.117
'0:03.742',-0.123
'0:03.744',-0.113
'0:03.747',-0.083
'0:03.750',-0.007
'0:03.753',0.1
'0:03.756',0.247
'0:03.758',0.43
'0:03.761',0.683
'0:03.764',0.997
'0:03.767',1.29
'0:03.769',1.503
'0:03.772',1.547
'0:03.775',1.393
'0:03.778',1.063
'0:03.781',0.637
'0:03.783',0.21
'0:03.786',-0.153
'0:03.789',-0.353
'0:03.792',-0.43
'0:03.794',-0.427
'0:03.797',-0.377
'0:03.800',-0.333
'0:03.803',-0.3
'0:03.806',-0.273
'0:03.808',-0.24
'0:03.811',-0.203
'0:03.814',-0.183
'0:03.817',-0.147
'0:03.819',-0.123
'0:03.822',-0.097
'0:03.825',-0.087
'0:03.828',-0.1
'0:03.831',-0.1
'0:03.833',-0.107
'0:03.836',-0.113
'0:03.839',-0.123
'0:03.842',-0.113
'0:03.844',-0.103
'0:03.847',-0.09
'0:03.850',-0.077
'0:03.853',-0.077
'0:03.856',-0.083
'0:03.858',-0.1
'0:03.861',-0.087
'0:03.864',-0.093
'0:03.867',-0.107
'0:03.869',-0.1
'0:03.872',-0.1
'0:03.875',-0.087
'0:03.878',-0.067
'0:03.881',-0.06
'0:03.883',-0.047
'0:03.886',-0.053
'0:03.889',-0.047
'0:03.892',-0.06
'0:03.894',-0.06
'0:03.897',-0.063
'0:03.900',-0.067
'0:03.903',-0.073
'0:03.906',-0.08
'0:03.908',-0.053
'0:03.911',-0.037
'0:03.914',-0.033
'0:03.917',-0.02
'0:03.919',-0.023
'0:03.922',-0.017
'0:03.925',-0.02
'0:03.928',-0.037
'0:03.931',-0.037
'0:03.933',-0.047
'0:03.936',-0.043
'0:03.939',-0.043
'0:03.942',-0.027
'0:03.944',-0.02
'0:03.947',-0.007
'0:03.950',0
'0:03.953',0.007
'0:03.956',0.007
'0:03.958',-0.003
'0:03.961',0.007
'0:03.964',0
'0:03.967',0
'0:03.969',0.003
'0:03.972',0
'0:03.975',0.017
'0:03.978',0.027
'0:03.981',0.03
'0:03.983',0.047
'0:03.986',0.04
'0:03.989',0.04
'0:03.992',0.03
'0:03.994',0.03
'0:03.997',0.023
'0:04.000',0.017
'0:04.003',0.017
'0:04.006',0.013
'0:04.008',0.02
'0:04.011',0.023
'0:04.014',0.017
'0:04.017',0.003
'0:04.019',-0.003
'0:04.022',0
'0:04.025',-0.013
'0:04.028',-0.03
'0:04.031',-0.043
'0:04.033',-0.053
'0:04.036',-0.057
'0:04.039',-0.05
'0:04.042',-0.037
'0:04.044',-0.013
'0:04.047',-0.013
'0:04.050',0.007
'0:04.053',0.01
'0:04.056',0.02
'0:04.058',0.023
'0:04.061',0.007
'0:04.064',-0.003
'0:04.067',-0.01
'0:04.069',-0.02
'0:04.072',-0.033
'0:04.075',-0.02
'0:04.078',-0.013
'0:04.081',-0.013
'0:04.083',-0.007
'0:04.086',-0.013
'0:04.089',-0.02
'0:04.092',-0.053
'0:04.094',-0.067
'0:04.097',-0.077
'0:04.100',-0.08
'0:04.103',-0.09
'0:04.106',-0.11
'0:04.108',-0.08
'0:04.111',-0.077
'0:04.114',-0.087
'0:04.117',-0.087
'0:04.119',-0.097
'0:04.122',-0.103
'0:04.125',-0.113
'0:04.128',-0.1
'0:04.131',-0.087
'0:04.133',-0.1
'0:04.136',-0.1
'0:04.139',-0.103
'0:04.142',-0.1
'0:04.144',-0.1
'0:04.147',-0.09
'0:04.150',-0.08
'0:04.153',-0.09
'0:04.156',-0.09
'0:04.158',-0.093
'0:04.161',-0.097
'0:04.164',-0.103
'0:04.167',-0.097
'0:04.169',-0.1
'0:04.172',-0.113
'0:04.175',-0.097
'0:04.178',-0.083
'0:04.181',-0.09
'0:04.183',-0.083
'0:04.186',-0.077
'0:04.189',-0.077
'0:04.192',-0.103
'0:04.194',-0.107
'0:04.197',-0.1
'0:04.200',-0.127
'0:04.203',-0.117
'0:04.206',-0.107
'0:04.208',-0.103
'0:04.211',-0.097
'0:04.214',-0.093
'0:04.217',-0.09
'0:04.219',-0.1
'0:04.222',-0.1
'0:04.225',-0.11
'0:04.228',-0.113
'0:04.231',-0.127
'0:04.233',-0.15
'0:04.236',-0.15
'0:04.239',-0.17
'0:04.242',-0.153
'0:04.244',-0.143
'0:04.247',-0.13
'0:04.250',-0.117
'0:04.253',-0.123
'0:04.256',-0.113
'0:04.258',-0.123
'0:04.261',-0.123
'0:04.264',-0.123
'0:04.267',-0.143
'0:04.269',-0.14
'0:04.272',-0.147
'0:04.275',-0.137
'0:04.278',-0.133
'0:04.281',-0.133
'0:04.283',-0.123
'0:04.286',-0.13
'0:04.289',-0.123
'0:04.292',-0.13
'0:04.294',-0.137
'0:04.297',-0.147
'0:04.300',-0.153
'0:04.303',-0.153
'0:04.306',-0.17
'0:04.308',-0.16
'0:04.311',-0.16
'0:04.314',-0.153
'0:04.317',-0.147
'0:04.319',-0.13
'0:04.322',-0.133
'0:04.325',-0.13
'0:04.328',-0.147
'0:04.331',-0.15
'0:04.333',-0.16
'0:04.336',-0.153
'0:04.339',-0.163
'0:04.342',-0.15
'0:04.344',-0.157
'0:04.347',-0.163
'0:04.350',-0.16
'0:04.353',-0.17
'0:04.356',-0.177
'0:04.358',-0.16
'0:04.361',-0.167
'0:04.364',-0.17
'0:04.367',-0.183
'0:04.369',-0.18
'0:04.372',-0.193
'0:04.375',-0.177
'0:04.378',-0.153
'0:04.381',-0.16
'0:04.383',-0.157
'0:04.386',-0.16
'0:04.389',-0.157
'0:04.392',-0.17
'0:04.394',-0.167
'0:04.397',-0.183
'0:04.400',-0.19
'0:04.403',-0.187
'0:04.406',-0.187
'0:04.408',-0.17
'0:04.411',-0.153
'0:04.414',-0.147
'0:04.417',-0.147
'0:04.419',-0.147
'0:04.422',-0.153
'0:04.425',-0.153
'0:04.428',-0.17
'0:04.431',-0.173
'0:04.433',-0.193
'0:04.436',-0.18
'0:04.439',-0.19
'0:04.442',-0.163
'0:04.444',-0.15
'0:04.447',-0.14
'0:04.450',-0.133
'0:04.453',-0.127
'0:04.456',-0.133
'0:04.458',-0.147
'0:04.461',-0.16
'0:04.464',-0.147
'0:04.467',-0.177
'0:04.469',-0.163
'0:04.472',-0.167
'0:04.475',-0.153
'0:04.478',-0.153
'0:04.481',-0.14
'0:04.483',-0.147
'0:04.486',-0.143
'0:04.489',-0.137
'0:04.492',-0.133
'0:04.494',-0.14
'0:04.497',-0.147
'0:04.500',-0.147
'0:04.503',-0.153
'0:04.506',-0.153
'0:04.508',-0.14
'0:04.511',-0.12
'0:04.514',-0.13
'0:04.517',-0.113
'0:04.519',-0.12
'0:04.522',-0.127
'0:04.525',-0.123
'0:04.528',-0.127
'0:04.531',-0.133
'0:04.533',-0.14
'0:04.536',-0.15
'0:04.539',-0.153
'0:04.542',-0.14
'0:04.544',-0.13
'0:04.547',-0.137
'0:04.550',-0.117
'0:04.553',-0.13
'0:04.556',-0.117
'0:04.558',-0.113
'0:04.561',-0.117
'0:04.564',-0.123
'0:04.567',-0.127
'0:04.569',-0.13
'0:04.572',-0.137
'0:04.575',-0.13
'0:04.578',-0.113
'0:04.581',-0.113
'0:04.583',-0.11
'0:04.586',-0.1
'0:04.589',-0.1
'0:04.592',-0.113
'0:04.594',-0.113
'0:04.597',-0.11
'0:04.600',-0.123
'0:04.603',-0.11
'0:04.606',-0.117
'0:04.608',-0.11
'0:04.611',-0.09
'0:04.614',-0.093
'0:04.617',-0.093
'0:04.619',-0.1
'0:04.622',-0.1
'0:04.625',-0.11
'0:04.628',-0.103
'0:04.631',-0.093
'0:04.633',-0.1
'0:04.636',-0.1
'0:04.639',-0.107
'0:04.642',-0.09
'0:04.644',-0.093
'0:04.647',-0.077
'0:04.650',-0.06
'0:04.653',-0.06
'0:04.656',-0.053
'0:04.658',-0.06
'0:04.661',-0.047
'0:04.664',-0.047
'0:04.667',-0.053
'0:04.669',-0.053
'0:04.672',-0.08
'0:04.675',-0.067
'0:04.678',-0.067
'0:04.681',-0.053
'0:04.683',-0.04
'0:04.686',-0.043
'0:04.689',-0.05
'0:04.692',-0.053
'0:04.694',-0.027
'0:04.697',-0.023
'0:04.700',-0.013
'0:04.703',-0.013
'0:04.706',-0.017
'0:04.708',-0.003
'0:04.711',0
'0:04.714',0.03
'0:04.717',0.04
'0:04.719',0.033
'0:04.722',0.043
'0:04.725',0.033
'0:04.728',0.027
'0:04.731',0.023
'0:04.733',0.04
'0:04.736',0.043
'0:04.739',0.017
'0:04.742',0
'0:04.744',-0.013
'0:04.747',-0.037
'0:04.750',-0.043
'0:04.753',-0.06
'0:04.756',-0.06
'0:04.758',-0.083
'0:04.761',-0.08
'0:04.764',-0.093
'0:04.767',-0.1
'0:04.769',-0.093
'0:04.772',-0.103
'0:04.775',-0.08
'0:04.778',-0.077
'0:04.781',-0.067
'0:04.783',-0.067
'0:04.786',-0.077
'0:04.789',-0.087
'0:04.792',-0.087
'0:04.794',-0.087
'0:04.797',-0.097
'0:04.800',-0.09
'0:04.803',-0.077
'0:04.806',-0.083
'0:04.808',-0.073
'0:04.811',-0.067
'0:04.814',-0.05
'0:04.817',-0.04
'0:04.819',-0.03
'0:04.822',-0.02
'0:04.825',-0.023
'0:04.828',-0.027
'0:04.831',-0.037
'0:04.833',-0.047
'0:04.836',-0.053
'0:04.839',-0.023
'0:04.842',0.023
'0:04.844',0.137
'0:04.847',0.29
'0:04.850',0.473
'0:04.853',0.69
'0:04.856',0.953
'0:04.858',1.227
'0:04.861',1.467
'0:04.864',1.593
'0:04.867',1.573
'0:04.869',1.39
'0:04.872',1.05
'0:04.875',0.647
'0:04.878',0.257
'0:04.881',-0.037
'0:04.883',-0.21
'0:04.886',-0.273
'0:04.889',-0.257
'0:04.892',-0.23
'0:04.894',-0.187
'0:04.897',-0.153
'0:04.900',-0.137
'0:04.903',-0.107
'0:04.906',-0.087
'0:04.908',-0.06
'0:04.911',-0.04
'0:04.914',-0.02
'0:04.917',-0.01
'0:04.919',-0.013
'0:04.922',-0.02
'0:04.925',-0.03
'0:04.928',-0.037
'0:04.931',-0.037
'0:04.933',-0.04
'0:04.936',-0.02
'0:04.939',-0.023
'0:04.942',0
'0:04.944',0.02
'0:04.947',0.02
'0:04.950',0.027
'0:04.953',0.003
'0:04.956',-0.007
'0:04.958',-0.017
'0:04.961',-0.013
'0:04.964',-0.013
'0:04.967',-0.02
'0:04.969',-0.01
'0:04.972',-0.013
'0:04.975',-0.007
'0:04.978',0
'0:04.981',0.003
'0:04.983',0.02
'0:04.986',0.013
'0:04.989',0.007
'0:04.992',0
'0:04.994',-0.007
'0:04.997',-0.007
'0:05.000',-0.007
'0:05.003',0
'0:05.006',0
'0:05.008',0.007
'0:05.011',0.007
'0:05.014',0.017
'0:05.017',0.03
'0:05.019',0.04
'0:05.022',0.053
'0:05.025',0.04
'0:05.028',0.027
'0:05.031',0.017
'0:05.033',0.007
'0:05.036',0.01
'0:05.039',0.007
'0:05.042',0.03
'0:05.044',0.033
'0:05.047',0.023
'0:05.050',0.023
'0:05.053',0.023
'0:05.056',0.017
'0:05.058',0.017
'0:05.061',0.047
'0:05.064',0.05
'0:05.067',0.047
'0:05.069',0.043
'0:05.072',0.04
'0:05.075',0.053
'0:05.078',0.053
'0:05.081',0.063
'0:05.083',0.07
'0:05.086',0.06
'0:05.089',0.067
'0:05.092',0.053
'0:05.094',0.03
'0:05.097',0.023
'0:05.100',0.023
'0:05.103',0.023
'0:05.106',0.023
'0:05.108',0.04
'0:05.111',0.05
'0:05.114',0.06
'0:05.117',0.067
'0:05.119',0.067
'0:05.122',0.07
'0:05.125',0.057
'0:05.128',0.043
'0:05.131',0.023
'0:05.133',0.023
'0:05.136',0.03
'0:05.139',0.02
'0:05.142',0.027
'0:05.144',0.03
'0:05.147',0.03
'0:05.150',0.03
'0:05.153',0.033
'0:05.156',0.04
'0:05.158',0.033
'0:05.161',0.033
'0:05.164',0.03
'0:05.167',0.04
'0:05.169',0.05
'0:05.172',0.053
'0:05.175',0.07
'0:05.178',0.077
'0:05.181',0.087
'0:05.183',0.097
'0:05.186',0.09
'0:05.189',0.1
'0:05.192',0.083
'0:05.194',0.07
'0:05.197',0.063
'0:05.200',0.06
'0:05.203',0.053
'0:05.206',0.04
'0:05.208',0.033
'0:05.211',0.037
'0:05.214',0.04
'0:05.217',0.047
'0:05.219',0.037
'0:05.222',0.027
'0:05.225',0.017
'0:05.228',0.023
'0:05.231',0.003
'0:05.233',0.007
'0:05.236',0.017
'0:05.239',-0.007
'0:05.242',-0.003
'0:05.244',0.017
'0:05.247',0.023
'0:05.250',0.03
'0:05.253',0.03
'0:05.256',0.027
'0:05.258',0.013
'0:05.261',0.007
'0:05.264',0.003
'0:05.267',-0.007
'0:05.269',-0.007
'0:05.272',-0.017
'0:05.275',0.007
'0:05.278',0.01
'0:05.281',0.02
'0:05.283',0.03
'0:05.286',0.027
'0:05.289',0.02
'0:05.292',0.007
'0:05.294',0
'0:05.297',-0.007
'0:05.300',-0.01
'0:05.303',0
'0:05.306',-0.003
'0:05.308',0.017
'0:05.311',0.013
'0:05.314',0.017
'0:05.317',0
'0:05.319',0.007
'0:05.322',0.017
'0:05.325',0
'0:05.328',0
'0:05.331',-0.007
'0:05.333',-0.013
'0:05.336',-0.007
'0:05.339',-0.013
'0:05.342',-0.007
'0:05.344',0.007
'0:05.347',0.01
'0:05.350',0.017
'0:05.353',0.013
'0:05.356',0.007
'0:05.358',-0.017
'0:05.361',-0.03
'0:05.364',-0.03
'0:05.367',-0.03
'0:05.369',-0.027
'0:05.372',-0.037
'0:05.375',-0.017
'0:05.378',-0.017
'0:05.381',-0.017
'0:05.383',-0.017
'0:05.386',-0.027
'0:05.389',-0.023
'0:05.392',-0.033
'0:05.394',-0.037
'0:05.397',-0.043
'0:05.400',-0.043
'0:05.403',-0.033
'0:05.406',-0.03
'0:05.408',-0.02
'0:05.411',-0.027
'0:05.414',-0.03
'0:05.417',-0.013
'0:05.419',-0.02
'0:05.422',-0.02
'0:05.425',-0.037
'0:05.428',-0.037
'0:05.431',-0.05
'0:05.433',-0.047
'0:05.436',-0.043
'0:05.439',-0.063
'0:05.442',-0.043
'0:05.444',-0.047
'0:05.447',-0.06
'0:05.450',-0.053
'0:05.453',-0.043
'0:05.456',-0.033
'0:05.458',-0.033
'0:05.461',-0.047
'0:05.464',-0.057
'0:05.467',-0.07
'0:05.469',-0.083
'0:05.472',-0.067
'0:05.475',-0.053
'0:05.478',-0.047
'0:05.481',-0.043
'0:05.483',-0.047
'0:05.486',-0.053
'0:05.489',-0.05
'0:05.492',-0.05
'0:05.494',-0.053
'0:05.497',-0.073
'0:05.500',-0.073
'0:05.503',-0.073
'0:05.506',-0.077
'0:05.508',-0.067
'0:05.511',-0.063
'0:05.514',-0.06
'0:05.517',-0.067
'0:05.519',-0.057
'0:05.522',-0.053
'0:05.525',-0.067
'0:05.528',-0.073
'0:05.531',-0.077
'0:05.533',-0.07
'0:05.536',-0.057
'0:05.539',-0.067
'0:05.542',-0.053
'0:05.544',-0.057
'0:05.547',-0.053
'0:05.550',-0.043
'0:05.553',-0.06
'0:05.556',-0.053
'0:05.558',-0.067
'0:05.561',-0.067
'0:05.564',-0.073
'0:05.567',-0.067
'0:05.569',-0.077
'0:05.572',-0.077
'0:05.575',-0.067
'0:05.578',-0.067
'0:05.581',-0.06
'0:05.583',-0.057
'0:05.586',-0.063
'0:05.589',-0.053
'0:05.592',-0.053
'0:05.594',-0.053
'0:05.597',-0.047
'0:05.600',-0.053
'0:05.603',-0.06
'0:05.606',-0.07
'0:05.608',-0.053
'0:05.611',-0.05
'0:05.614',-0.053
'0:05.617',-0.043
'0:05.619',-0.053
'0:05.622',-0.053
'0:05.625',-0.053
'0:05.628',-0.053
'0:05.631',-0.06
'0:05.633',-0.053
'0:05.636',-0.063
'0:05.639',-0.067
'0:05.642',-0.06
'0:05.644',-0.05
'0:05.647',-0.037
'0:05.650',-0.04
'0:05.653',-0.043
'0:05.656',-0.047
'0:05.658',-0.06
'0:05.661',-0.06
'0:05.664',-0.06
'0:05.667',-0.05
'0:05.669',-0.053
'0:05.672',-0.067
'0:05.675',-0.06
'0:05.678',-0.057
'0:05.681',-0.037
'0:05.683',-0.023
'0:05.686',-0.013
'0:05.689',-0.01
'0:05.692',-0.02
'0:05.694',-0.03
'0:05.697',-0.04
'0:05.700',-0.043
'0:05.703',-0.047
'0:05.706',-0.06
'0:05.708',-0.06
'0:05.711',-0.053
'0:05.714',-0.037
'0:05.717',-0.007
'0:05.719',0.003
'0:05.722',0.02
'0:05.725',0.023
'0:05.728',0.03
'0:05.731',0.023
'0:05.733',0.033
'0:05.736',0.03
'0:05.739',0.02
'0:05.742',0.033
'0:05.744',0.037
'0:05.747',0.03
'0:05.750',0.027
'0:05.753',0.023
'0:05.756',0.017
'0:05.758',-0.013
'0:05.761',-0.02
'0:05.764',-0.037
'0:05.767',-0.047
'0:05.769',-0.073
'0:05.772',-0.08
'0:05.775',-0.067
'0:05.778',-0.077
'0:05.781',-0.073
'0:05.783',-0.067
'0:05.786',-0.06
'0:05.789',-0.07
'0:05.792',-0.097
'0:05.794',-0.083
'0:05.797',-0.067
'0:05.800',-0.073
'0:05.803',-0.08
'0:05.806',-0.09
'0:05.808',-0.083
'0:05.811',-0.077
'0:05.814',-0.067
'0:05.817',-0.067
'0:05.819',-0.067
'0:05.822',-0.063
'0:05.825',-0.067
'0:05.828',-0.053
'0:05.831',-0.07
'0:05.833',-0.063
'0:05.836',-0.063
'0:05.839',-0.06
'0:05.842',-0.05
'0:05.844',-0.05
'0:05.847',-0.033
'0:05.850',-0.037
'0:05.853',-0.013
'0:05.856',-0.02
'0:05.858',-0.027
'0:05.861',-0.02
'0:05.864',-0.02
'0:05.867',-0.003
'0:05.869',0.05
'0:05.872',0.147
'0:05.875',0.28
'0:05.878',0.45
'0:05.881',0.653
'0:05.883',0.89
'0:05.886',1.117
'0:05.889',1.24
'0:05.892',1.213
'0:05.894',1.057
'0:05.897',0.77
'0:05.900',0.433
'0:05.903',0.1
'0:05.906',-0.143
'0:05.908',-0.273
'0:05.911',-0.313
'0:05.914',-0.293
'0:05.917',-0.247
'0:05.919',-0.207
'0:05.922',-0.187
'0:05.925',-0.183
'0:05.928',-0.17
'0:05.931',-0.147
'0:05.933',-0.107
'0:05.936',-0.09
'0:05.939',-0.053
'0:05.942',-0.03
'0:05.944',-0.01
'0:05.947',0.003
'0:05.950',0.007
'0:05.953',0.003
'0:05.956',0
'0:05.958',-0.007
'0:05.961',-0.007
'0:05.964',-0.007
'0:05.967',-0.013
'0:05.969',-0.007
'0:05.972',-0.007
'0:05.975',0.003
'0:05.978',0.007
'0:05.981',0.007
'0:05.983',0.007
'0:05.986',0.01
'0:05.989',0
'0:05.992',-0.007
'0:05.994',-0.007
'0:05.997',-0.007
'0:06.000',0.017
'0:06.003',0.02
'0:06.006',0.013
'0:06.008',0.027
'0:06.011',0.033
'0:06.014',0.03
'0:06.017',0.03
'0:06.019',0.027
'0:06.022',0.03
'0:06.025',0.023
'0:06.028',0.037
'0:06.031',0.017
'0:06.033',0.023
'0:06.036',0.03
'0:06.039',0.037
'0:06.042',0.047
'0:06.044',0.06
'0:06.047',0.063
'0:06.050',0.063
'0:06.053',0.067
'0:06.056',0.073
'0:06.058',0.063
'0:06.061',0.05
'0:06.064',0.04
'0:06.067',0.04
'0:06.069',0.04
'0:06.072',0.033
'0:06.075',0.043
'0:06.078',0.047
'0:06.081',0.063
'0:06.083',0.083
'0:06.086',0.093
'0:06.089',0.07
'0:06.092',0.067
'0:06.094',0.07
'0:06.097',0.06
'0:06.100',0.063
'0:06.103',0.06
'0:06.106',0.067
'0:06.108',0.077
'0:06.111',0.077
'0:06.114',0.093
'0:06.117',0.093
'0:06.119',0.093
'0:06.122',0.08
'0:06.125',0.063
'0:06.128',0.047
'0:06.131',0.03
'0:06.133',0.027
'0:06.136',0.02
'0:06.139',0.017
'0:06.142',0.023
'0:06.144',0.03
'0:06.147',0.04
'0:06.150',0.033
'0:06.153',0.04
'0:06.156',0.04
'0:06.158',0.027
'0:06.161',0.017
'0:06.164',0.007
'0:06.167',-0.003
'0:06.169',-0.01
'0:06.172',-0.017
'0:06.175',-0.007
'0:06.178',-0.007
'0:06.181',-0.007
'0:06.183',-0.007
'0:06.186',-0.007
'0:06.189',-0.02
'0:06.192',-0.02
'0:06.194',-0.023
'0:06.197',-0.037
'0:06.200',-0.037
'0:06.203',-0.043
'0:06.206',-0.04
'0:06.208',-0.043
'0:06.211',-0.037
'0:06.214',-0.03
'0:06.217',-0.03
'0:06.219',-0.037
'0:06.222',-0.053
'0:06.225',-0.067
'0:06.228',-0.083
'0:06.231',-0.113
'0:06.233',-0.113
'0:06.236',-0.13
'0:06.239',-0.137
'0:06.242',-0.117
'0:06.244',-0.123
'0:06.247',-0.113
'0:06.250',-0.113
'0:06.253',-0.113
'0:06.256',-0.117
'0:06.258',-0.133
'0:06.261',-0.147
'0:06.264',-0.157
'0:06.267',-0.153
'0:06.269',-0.15
'0:06.272',-0.147
'0:06.275',-0.13
'0:06.278',-0.137
'0:06.281',-0.123
'0:06.283',-0.13
'0:06.286',-0.133
'0:06.289',-0.14
'0:06.292',-0.147
'0:06.294',-0.147
'0:06.297',-0.16
'0:06.300',-0.147
'0:06.303',-0.16
'0:06.306',-0.153
'0:06.308',-0.153
'0:06.311',-0.137
'0:06.314',-0.153
'0:06.317',-0.137
'0:06.319',-0.113
'0:06.322',-0.123
'0:06.325',-0.12
'0:06.328',-0.123
'0:06.331',-0.133
'0:06.333',-0.137
'0:06.336',-0.14
'0:06.339',-0.133
'0:06.342',-0.133
'0:06.344',-0.113
'0:06.347',-0.117
'0:06.350',-0.123
'0:06.353',-0.113
'0:06.356',-0.123
'0:06.358',-0.13
'0:06.361',-0.13
'0:06.364',-0.15
'0:06.367',-0.14
'0:06.369',-0.153
'0:06.372',-0.153
'0:06.375',-0.153
'0:06.378',-0.143
'0:06.381',-0.137
'0:06.383',-0.13
'0:06.386',-0.13
'0:06.389',-0.13
'0:06.392',-0.133
'0:06.394',-0.147
'0:06.397',-0.147
'0:06.400',-0.15
'0:06.403',-0.147
'0:06.406',-0.157
'0:06.408',-0.143
'0:06.411',-0.137
'0:06.414',-0.127
'0:06.417',-0.123
'0:06.419',-0.123
'0:06.422',-0.117
'0:06.425',-0.13
'0:06.428',-0.133
'0:06.431',-0.147
'0:06.433',-0.14
'0:06.436',-0.137
'0:06.439',-0.143
'0:06.442',-0.127
'0:06.444',-0.137
'0:06.447',-0.13
'0:06.450',-0.117
'0:06.453',-0.12
'0:06.456',-0.107
'0:06.458',-0.123
'0:06.461',-0.13
'0:06.464',-0.137
'0:06.467',-0.147
'0:06.469',-0.143
'0:06.472',-0.147
'0:06.475',-0.127
'0:06.478',-0.12
'0:06.481',-0.11
'0:06.483',-0.113
'0:06.486',-0.103
'0:06.489',-0.1
'0:06.492',-0.097
'0:06.494',-0.103
'0:06.497',-0.117
'0:06.500',-0.113
'0:06.503',-0.123
'0:06.506',-0.11
'0:06.508',-0.107
'0:06.511',-0.113
'0:06.514',-0.123
'0:06.517',-0.117
'0:06.519',-0.113
'0:06.522',-0.11
'0:06.525',-0.11
'0:06.528',-0.12
'0:06.531',-0.117
'0:06.533',-0.11
'0:06.536',-0.127
'0:06.539',-0.123
'0:06.542',-0.117
'0:06.544',-0.12
'0:06.547',-0.107
'0:06.550',-0.12
'0:06.553',-0.113
'0:06.556',-0.113
'0:06.558',-0.133
'0:06.561',-0.13
'0:06.564',-0.147
'0:06.567',-0.133
'0:06.569',-0.143
'0:06.572',-0.153
'0:06.575',-0.137
'0:06.578',-0.13
'0:06.581',-0.107
'0:06.583',-0.11
'0:06.586',-0.11
'0:06.589',-0.107
'0:06.592',-0.123
'0:06.594',-0.133
'0:06.597',-0.143
'0:06.600',-0.147
'0:06.603',-0.147
'0:06.606',-0.153
'0:06.608',-0.113
'0:06.611',-0.097
'0:06.614',-0.07
'0:06.617',-0.063
'0:06.619',-0.067
'0:06.622',-0.067
'0:06.625',-0.083
'0:06.628',-0.083
'0:06.631',-0.09
'0:06.633',-0.09
'0:06.636',-0.113
'0:06.639',-0.107
'0:06.642',-0.1
'0:06.644',-0.093
'0:06.647',-0.08
'0:06.650',-0.06
'0:06.653',-0.047
'0:06.656',-0.053
'0:06.658',-0.05
'0:06.661',-0.047
'0:06.664',-0.037
'0:06.667',-0.027
'0:06.669',-0.013
'0:06.672',-0.01
'0:06.675',-0.003
'0:06.678',-0.007
'0:06.681',-0.01
'0:06.683',-0.003
'0:06.686',0.003
'0:06.689',0
'0:06.692',-0.01
'0:06.694',-0.037
'0:06.697',-0.053
'0:06.700',-0.07
'0:06.703',-0.1
'0:06.706',-0.113
'0:06.708',-0.107
'0:06.711',-0.113
'0:06.714',-0.103
'0:06.717',-0.093
'0:06.719',-0.087
'0:06.722',-0.097
'0:06.725',-0.1
'0:06.728',-0.113
'0:06.731',-0.137
'0:06.733',-0.137
'0:06.736',-0.147
'0:06.739',-0.14
'0:06.742',-0.133
'0:06.744',-0.123
'0:06.747',-0.11
'0:06.750',-0.127
'0:06.753',-0.11
'0:06.756',-0.117
'0:06.758',-0.12
'0:06.761',-0.117
'0:06.764',-0.127
'0:06.767',-0.12
'0:06.769',-0.123
'0:06.772',-0.12
'0:06.775',-0.113
'0:06.778',-0.113
'0:06.781',-0.107
'0:06.783',-0.093
'0:06.786',-0.09
'0:06.789',-0.113
'0:06.792',-0.113
'0:06.794',-0.123
'0:06.797',-0.13
'0:06.800',-0.117
'0:06.803',-0.117
'0:06.806',-0.097
'0:06.808',-0.043
'0:06.811',0.05
'0:06.814',0.177
'0:06.817',0.343
'0:06.819',0.537
'0:06.822',0.767
'0:06.825',1.01
'0:06.828',1.193
'0:06.831',1.267
'0:06.833',1.213
'0:06.836',1.007
'0:06.839',0.7
'0:06.842',0.327
'0:06.844',-0.003
'0:06.847',-0.247
'0:06.850',-0.383
'0:06.853',-0.4
'0:06.856',-0.387
'0:06.858',-0.357
'0:06.861',-0.333
'0:06.864',-0.333
'0:06.867',-0.317
'0:06.869',-0.303
'0:06.872',-0.27
'0:06.875',-0.223
'0:06.878',-0.17
'0:06.881',-0.117
'0:06.883',-0.1
'0:06.886',-0.077
'0:06.889',-0.077
'0:06.892',-0.08
'0:06.894',-0.097
'0:06.897',-0.097
'0:06.900',-0.09
'0:06.903',-0.093
'0:06.906',-0.077
'0:06.908',-0.06
'0:06.911',-0.053
'0:06.914',-0.053
'0:06.917',-0.057
'0:06.919',-0.033
'0:06.922',-0.037
'0:06.925',-0.037
'0:06.928',-0.047
'0:06.931',-0.047
'0:06.933',-0.043
'0:06.936',-0.047
'0:06.939',-0.05
'0:06.942',-0.05
'0:06.944',-0.043
'0:06.947',-0.033
'0:06.950',-0.023
'0:06.953',-0.023
'0:06.956',-0.013
'0:06.958',-0.013
'0:06.961',-0.007
'0:06.964',-0.013
'0:06.967',-0.01
'0:06.969',-0.01
'0:06.972',-0.01
'0:06.975',-0.003
'0:06.978',0
'0:06.981',0.017
'0:06.983',0.033
'0:06.986',0.04
'0:06.989',0.043
'0:06.992',0.053
'0:06.994',0.043
'0:06.997',0.033
'0:07.000',0.023
'0:07.003',0.023
'0:07.006',0.037
'0:07.008',0.047
'0:07.011',0.067
'0:07.014',0.063
'0:07.017',0.07
'0:07.019',0.097
'0:07.022',0.097
'0:07.025',0.1
'0:07.028',0.11
'0:07.031',0.097
'0:07.033',0.09
'0:07.036',0.09
'0:07.039',0.08
'0:07.042',0.083
'0:07.044',0.11
'0:07.047',0.12
'0:07.050',0.13
'0:07.053',0.13
'0:07.056',0.127
'0:07.058',0.117
'0:07.061',0.103
'0:07.064',0.093
'0:07.067',0.087
'0:07.069',0.09
'0:07.072',0.1
'0:07.075',0.103
'0:07.078',0.123
'0:07.081',0.11
'0:07.083',0.093
'0:07.086',0.097
'0:07.089',0.093
'0:07.092',0.097
'0:07.094',0.097
'0:07.097',0.097
'0:07.100',0.1
'0:07.103',0.087
'0:07.106',0.087
'0:07.108',0.093
'0:07.111',0.093
'0:07.114',0.077
'0:07.117',0.097
'0:07.119',0.093
'0:07.122',0.093
'0:07.125',0.11
'0:07.128',0.1
'0:07.131',0.107
'0:07.133',0.1
'0:07.136',0.087
'0:07.139',0.107
'0:07.142',0.107
'0:07.144',0.117
'0:07.147',0.117
'0:07.150',0.107
'0:07.153',0.1
'0:07.156',0.077
'0:07.158',0.053
'0:07.161',0.04
'0:07.164',0.027
'0:07.167',0.017
'0:07.169',-0.003
'0:07.172',0
'0:07.175',0.007
'0:07.178',0.02
'0:07.181',0.017
'0:07.183',0.007
'0:07.186',-0.007
'0:07.189',-0.017
'0:07.192',-0.03
'0:07.194',-0.037
'0:07.197',-0.043
'0:07.200',-0.03
'0:07.203',-0.033
'0:07.206',-0.02
'0:07.208',-0.013
'0:07.211',-0.007
'0:07.214',-0.003
'0:07.217',-0.003
'0:07.219',0.007
'0:07.222',-0.007
'0:07.225',-0.007
'0:07.228',-0.017
'0:07.231',-0.03
'0:07.233',-0.04
'0:07.236',-0.037
'0:07.239',-0.037
'0:07.242',-0.043
'0:07.244',-0.037
'0:07.247',-0.043
'0:07.250',-0.047
'0:07.253',-0.057
'0:07.256',-0.08
'0:07.258',-0.08
'0:07.261',-0.08
'0:07.264',-0.073
'0:07.267',-0.073
'0:07.269',-0.07
'0:07.272',-0.053
'0:07.275',-0.037
'0:07.278',-0.013
'0:07.281',-0.01
'0:07.283',-0.017
'0:07.286',-0.013
'0:07.289',-0.013
'0:07.292',-0.013
'0:07.294',-0.013
'0:07.297',-0.017
'0:07.300',-0.007
'0:07.303',-0.007
'0:07.306',0.007
'0:07.308',0.017
'0:07.311',0.03
'0:07.314',0.027
'0:07.317',0.04
'0:07.319',0.053
'0:07.322',0.053
'0:07.325',0.057
'0:07.328',0.047
'0:07.331',0.037
'0:07.333',0.023
'0:07.336',0.017
'0:07.339',0.013
'0:07.342',-0.007
'0:07.344',-0.013
'0:07.347',-0.023
'0:07.350',-0.03
'0:07.353',-0.037
'0:07.356',-0.06
'0:07.358',-0.077
'0:07.361',-0.093
'0:07.364',-0.12
'0:07.367',-0.12
'0:07.369',-0.127
'0:07.372',-0.133
'0:07.375',-0.13
'0:07.378',-0.113
'0:07.381',-0.113
'0:07.383',-0.107
'0:07.386',-0.103
'0:07.389',-0.113
'0:07.392',-0.11
'0:07.394',-0.123
'0:07.397',-0.127
'0:07.400',-0.137
'0:07.403',-0.143
'0:07.406',-0.137
'0:07.408',-0.143
'0:07.411',-0.13
'0:07.414',-0.137
'0:07.417',-0.14
'0:07.419',-0.133
'0:07.422',-0.127
'0:07.425',-0.123
'0:07.428',-0.137
'0:07.431',-0.147
'0:07.433',-0.153
'0:07.436',-0.163
'0:07.439',-0.163
'0:07.442',-0.16
'0:07.444',-0.14
'0:07.447',-0.13
'0:07.450',-0.12
'0:07.453',-0.123
'0:07.456',-0.107
'0:07.458',-0.057
'0:07.461',0.007
'0:07.464',0.15
'0:07.467',0.343
'0:07.469',0.567
'0:07.472',0.8
'0:07.475',0.963
'0:07.478',1.003
'0:07.481',0.883
'0:07.483',0.653
'0:07.486',0.343
'0:07.489',0.027
'0:07.492',-0.217
'0:07.494',-0.37
'0:07.497',-0.417
'0:07.500',-0.41
'0:07.503',-0.387
'0:07.506',-0.37
'0:07.508',-0.36
'0:07.511',-0.33
'0:07.514',-0.3
'0:07.517',-0.247
'0:07.519',-0.21
'0:07.522',-0.187
'0:07.525',-0.143
'0:07.528',-0.137
'0:07.531',-0.12
'0:07.533',-0.117
'0:07.536',-0.113
'0:07.539',-0.103
'0:07.542',-0.12
'0:07.544',-0.123
'0:07.547',-0.147
'0:07.550',-0.16
'0:07.553',-0.163
'0:07.556',-0.177
'0:07.558',-0.16
'0:07.561',-0.157
'0:07.564',-0.16
'0:07.567',-0.163
'0:07.569',-0.183
'0:07.572',-0.19
'0:07.575',-0.2
'0:07.578',-0.197
'0:07.581',-0.203
'0:07.583',-0.23
'0:07.586',-0.243
'0:07.589',-0.257
'0:07.592',-0.24
'0:07.594',-0.203
'0:07.597',-0.14
'0:07.600',-0.087
'0:07.603',-0.043
'0:07.606',-0.033
'0:07.608',-0.06
'0:07.611',-0.11
'0:07.614',-0.163
'0:07.617',-0.203
'0:07.619',-0.207
'0:07.622',-0.183
'0:07.625',-0.137
'0:07.628',-0.087
'0:07.631',-0.007
'0:07.633',0.063
'0:07.636',0.14
'0:07.639',0.18
'0:07.642',0.193
'0:07.644',0.183
'0:07.647',0.123
'0:07.650',0.053
'0:07.653',-0.003
'0:07.656',-0.077
'0:07.658',-0.123
'0:07.661',-0.147
'0:07.664',-0.133
'0:07.667',-0.107
'0:07.669',-0.073
'0:07.672',-0.04
'0:07.675',-0.007
'0:07.678',0.03
'0:07.681',0.057
'0:07.683',0.067
'0:07.686',0.07
'0:07.689',0.063
'0:07.692',0.07
'0:07.694',0.07
'0:07.697',0.07
'0:07.700',0.077
'0:07.703',0.087
'0:07.706',0.09
'0:07.708',0.1
'0:07.711',0.12
'0:07.714',0.11
'0:07.717',0.133
'0:07.719',0.15
'0:07.722',0.18
'0:07.725',0.217
'0:07.728',0.257
'0:07.731',0.313
'0:07.733',0.34
'0:07.736',0.327
'0:07.739',0.293
'0:07.742',0.247
'0:07.744',0.227
'0:07.747',0.213
'0:07.750',0.207
'0:07.753',0.17
'0:07.756',0.09
'0:07.758',0.003
'0:07.761',-0.1
'0:07.764',-0.157
'0:07.767',-0.187
'0:07.769',-0.16
'0:07.772',-0.107
'0:07.775',-0.043
'0:07.778',0.013
'0:07.781',0.037
'0:07.783',0.063
'0:07.786',0.087
'0:07.789',0.07
'0:07.792',0.047
'0:07.794',0.037
'0:07.797',0.03
'0:07.800',0.03
'0:07.803',0.023
'0:07.806',0.013
'0:07.808',0
'0:07.811',-0.003
'0:07.814',-0.013
'0:07.817',-0.02
'0:07.819',-0.02
'0:07.822',-0.007
'0:07.825',0.027
'0:07.828',0.08
'0:07.831',0.17
'0:07.833',0.263
'0:07.836',0.31
'0:07.839',0.263
'0:07.842',0.127
'0:07.844',-0.057
'0:07.847',-0.253
'0:07.850',-0.413
'0:07.853',-0.49
'0:07.856',-0.507
'0:07.858',-0.443
'0:07.861',-0.347
'0:07.864',-0.24
'0:07.867',-0.157
'0:07.869',-0.1
'0:07.872',-0.09
'0:07.875',-0.1
'0:07.878',-0.1
'0:07.881',-0.127
'0:07.883',-0.147
'0:07.886',-0.133
'0:07.889',-0.137
'0:07.892',-0.093
'0:07.894',-0.097
'0:07.897',-0.1
'0:07.900',-0.11
'0:07.903',-0.13
'0:07.906',-0.137
'0:07.908',-0.143
'0:07.911',-0.133
'0:07.914',-0.123
'0:07.917',-0.107
'0:07.919',-0.093
'0:07.922',-0.067
'0:07.925',-0.067
'0:07.928',-0.067
'0:07.931',-0.06
'0:07.933',-0.06
'0:07.936',-0.047
'0:07.939',-0.033
'0:07.942',-0.02
'0:07.944',-0.017
'0:07.947',-0.02
'0:07.950',-0.03
'0:07.953',-0.04
'0:07.956',-0.057
'0:07.958',-0.06
'0:07.961',-0.07
'0:07.964',-0.077
'0:07.967',-0.073
'0:07.969',-0.087
'0:07.972',-0.083
'0:07.975',-0.067
'0:07.978',-0.047
'0:07.981',-0.03
'0:07.983',0.007
'0:07.986',0.053
'0:07.989',0.1
'0:07.992',0.117
'0:07.994',0.11
'0:07.997',0.063
'0:08.000',-0.02
'0:08.003',-0.123
'0:08.006',-0.223
'0:08.008',-0.293
'0:08.011',-0.32
'0:08.014',-0.317
'0:08.017',-0.283
'0:08.019',-0.243
'0:08.022',-0.207
'0:08.025',-0.173
'0:08.028',-0.163
'0:08.031',-0.177
'0:08.033',-0.183
'0:08.036',-0.2
'0:08.039',-0.21
'0:08.042',-0.223
'0:08.044',-0.207
'0:08.047',-0.207
'0:08.050',-0.19
'0:08.053',-0.193
'0:08.056',-0.2
'0:08.058',-0.203
'0:08.061',-0.21
'0:08.064',-0.197
'0:08.067',-0.193
'0:08.069',-0.21
'0:08.072',-0.203
'0:08.075',-0.21
'0:08.078',-0.2
'0:08.081',-0.207
'0:08.083',-0.207
'0:08.086',-0.2
'0:08.089',-0.207
'0:08.092',-0.213
'0:08.094',-0.223
'0:08.097',-0.23
'0:08.100',-0.24
'0:08.103',-0.247
'0:08.106',-0.247
'0:08.108',-0.24
'0:08.111',-0.23
'0:08.114',-0.23
'0:08.117',-0.223
'0:08.119',-0.22
'0:08.122',-0.23
'0:08.125',-0.227
'0:08.128',-0.227
'0:08.131',-0.23
'0:08.133',-0.24
'0:08.136',-0.247
'0:08.139',-0.243
'0:08.142',-0.24
'0:08.144',-0.22
'0:08.147',-0.207
'0:08.150',-0.193
'0:08.153',-0.18
'0:08.156',-0.197
'0:08.158',-0.183
'0:08.161',-0.2
'0:08.164',-0.207
'0:08.167',-0.217
'0:08.169',-0.22
'0:08.172',-0.213
'0:08.175',-0.2
'0:08.178',-0.193
'0:08.181',-0.19
'0:08.183',-0.187
'0:08.186',-0.19
'0:08.189',-0.193
'0:08.192',-0.197
'0:08.194',-0.21
'0:08.197',-0.213
'0:08.200',-0.213
'0:08.203',-0.21
'0:08.206',-0.197
'0:08.208',-0.19
'0:08.211',-0.17
'0:08.214',-0.153
'0:08.217',-0.153
'0:08.219',-0.15
'0:08.222',-0.167
'0:08.225',-0.163
'0:08.228',-0.18
'0:08.231',-0.19
'0:08.233',-0.197
'0:08.236',-0.19
'0:08.239',-0.19
'0:08.242',-0.183
'0:08.244',-0.167
'0:08.247',-0.173
'0:08.250',-0.163
'0:08.253',-0.16
'0:08.256',-0.173
'0:08.258',-0.17
'0:08.261',-0.183
'0:08.264',-0.17
'0:08.267',-0.173
'0:08.269',-0.17
'0:08.272',-0.17
'0:08.275',-0.16
'0:08.278',-0.16
'0:08.281',-0.16
'0:08.283',-0.17
'0:08.286',-0.17
'0:08.289',-0.177
'0:08.292',-0.17
'0:08.294',-0.17
'0:08.297',-0.163
'0:08.300',-0.16
'0:08.303',-0.16
'0:08.306',-0.153
'0:08.308',-0.153
'0:08.311',-0.14
'0:08.314',-0.137
'0:08.317',-0.13
'0:08.319',-0.123
'0:08.322',-0.137
'0:08.325',-0.147
'0:08.328',-0.163
'0:08.331',-0.177
'0:08.333',-0.183
'0:08.336',-0.19
'0:08.339',-0.183
'0:08.342',-0.183
'0:08.344',-0.163
'0:08.347',-0.163
'0:08.350',-0.157
'0:08.353',-0.16
'0:08.356',-0.163
'0:08.358',-0.173
'0:08.361',-0.187
'0:08.364',-0.193
'0:08.367',-0.2
'0:08.369',-0.2
'0:08.372',-0.2
'0:08.375',-0.197
'0:08.378',-0.183
'0:08.381',-0.183
'0:08.383',-0.177
'0:08.386',-0.17
'0:08.389',-0.16
'0:08.392',-0.153
'0:08.394',-0.16
'0:08.397',-0.167
'0:08.400',-0.157
'0:08.403',-0.153
'0:08.406',-0.133
'0:08.408',-0.127
'0:08.411',-0.1
'0:08.414',-0.093
'0:08.417',-0.083
'0:08.419',-0.08
'0:08.422',-0.063
'0:08.425',-0.057
'0:08.428',-0.067
'0:08.431',-0.06
'0:08.433',-0.073
'0:08.436',-0.067
'0:08.439',-0.057
'0:08.442',-0.057
'0:08.444',-0.053
'0:08.447',-0.063
'0:08.450',-0.057
'0:08.453',-0.06
'0:08.456',-0.073
'0:08.458',-0.09
'0:08.461',-0.123
'0:08.464',-0.117
'0:08.467',-0.133
'0:08.469',-0.13
'0:08.472',-0.12
'0:08.475',-0.127
'0:08.478',-0.123
'0:08.481',-0.143
'0:08.483',-0.143
'0:08.486',-0.147
'0:08.489',-0.14
'0:08.492',-0.147
'0:08.494',-0.16
'0:08.497',-0.15
'0:08.500',-0.16
'0:08.503',-0.15
'0:08.506',-0.153
'0:08.508',-0.14
'0:08.511',-0.133
'0:08.514',-0.13
'0:08.517',-0.123
'0:08.519',-0.123
'0:08.522',-0.123
'0:08.525',-0.137
'0:08.528',-0.137
'0:08.531',-0.157
'0:08.533',-0.16
'0:08.536',-0.157
'0:08.539',-0.147
'0:08.542',-0.14
'0:08.544',-0.123
'0:08.547',-0.123
'0:08.550',-0.113
'0:08.553',-0.103
'0:08.556',-0.1
'0:08.558',-0.097
'0:08.561',-0.067
'0:08.564',-0.03
'0:08.567',0.027
'0:08.569',0.117
'0:08.572',0.24
'0:08.575',0.41
'0:08.578',0.623
'0:08.581',0.847
'0:08.583',1.073
'0:08.586',1.217
'0:08.589',1.213
'0:08.592',1.063
'0:08.594',0.797
'0:08.597',0.453
'0:08.600',0.087
'0:08.603',-0.197
'0:08.606',-0.38
'0:08.608',-0.44
'0:08.611',-0.407
'0:08.614',-0.357
'0:08.617',-0.297
'0:08.619',-0.277
'0:08.622',-0.27
'0:08.625',-0.283
'0:08.628',-0.287
'0:08.631',-0.27
'0:08.633',-0.247
'0:08.636',-0.21
'0:08.639',-0.177
'0:08.642',-0.137
'0:08.644',-0.1
'0:08.647',-0.1
'0:08.650',-0.08
'0:08.653',-0.07
'0:08.656',-0.093
'0:08.658',-0.107
'0:08.661',-0.107
'0:08.664',-0.103
'0:08.667',-0.107
'0:08.669',-0.08
'0:08.672',-0.077
'0:08.675',-0.077
'0:08.678',-0.07
'0:08.681',-0.067
'0:08.683',-0.063
'0:08.686',-0.063
'0:08.689',-0.08
'0:08.692',-0.08
'0:08.694',-0.08
'0:08.697',-0.067
'0:08.700',-0.083
'0:08.703',-0.103
'0:08.706',-0.11
'0:08.708',-0.113
'0:08.711',-0.09
'0:08.714',-0.067
'0:08.717',-0.043
'0:08.719',-0.027
'0:08.722',-0.01
'0:08.725',0.007
'0:08.728',0.007
'0:08.731',0.023
'0:08.733',0.01
'0:08.736',-0.013
'0:08.739',-0.013
'0:08.742',-0.023
'0:08.744',-0.013
'0:08.747',-0.02
'0:08.750',-0.013
'0:08.753',-0.007
'0:08.756',-0.007
'0:08.758',-0.003
'0:08.761',-0.007
'0:08.764',0.003
'0:08.767',0.007
'0:08.769',0.007
'0:08.772',0.007
'0:08.775',0.007
'0:08.778',0.03
'0:08.781',0.03
'0:08.783',0.03
'0:08.786',0.033
'0:08.789',0.04
'0:08.792',0.047
'0:08.794',0.043
'0:08.797',0.04
'0:08.800',0.023
'0:08.803',0.02
'0:08.806',0.03
'0:08.808',0.04
'0:08.811',0.067
'0:08.814',0.063
'0:08.817',0.053
'0:08.819',0.047
'0:08.822',0.03
'0:08.825',0.037
'0:08.828',0.04
'0:08.831',0.04
'0:08.833',0.043
'0:08.836',0.06
'0:08.839',0.08
'0:08.842',0.087
'0:08.844',0.087
'0:08.847',0.087
'0:08.850',0.077
'0:08.853',0.063
'0:08.856',0.067
'0:08.858',0.077
'0:08.861',0.087
'0:08.864',0.113
'0:08.867',0.133
'0:08.869',0.13
'0:08.872',0.137
'0:08.875',0.127
'0:08.878',0.143
'0:08.881',0.133
'0:08.883',0.133
'0:08.886',0.113
'0:08.889',0.097
'0:08.892',0.08
'0:08.894',0.067
'0:08.897',0.077
'0:08.900',0.093
'0:08.903',0.103
'0:08.906',0.11
'0:08.908',0.11
'0:08.911',0.09
'0:08.914',0.07
'0:08.917',0.053
'0:08.919',0.047
'0:08.922',0.037
'0:08.925',0.037
'0:08.928',0.04
'0:08.931',0.037
'0:08.933',0.02
'0:08.936',0
'0:08.939',0.003
'0:08.942',-0.007
'0:08.944',-0.01
'0:08.947',-0.013
'0:08.950',-0.03
'0:08.953',-0.037
'0:08.956',-0.05
'0:08.958',-0.057
'0:08.961',-0.067
'0:08.964',-0.063
'0:08.967',-0.077
'0:08.969',-0.077
'0:08.972',-0.08
'0:08.975',-0.08
'0:08.978',-0.063
'0:08.981',-0.06
'0:08.983',-0.047
'0:08.986',-0.043
'0:08.989',-0.047
'0:08.992',-0.053
'0:08.994',-0.06
'0:08.997',-0.063
'0:09.000',-0.067
'0:09.003',-0.07
'0:09.006',-0.067
'0:09.008',-0.053
'0:09.011',-0.033
'0:09.014',-0.033
'0:09.017',-0.03
'0:09.019',-0.03
'0:09.022',-0.037
'0:09.025',-0.05
'0:09.028',-0.06
'0:09.031',-0.067
'0:09.033',-0.073
'0:09.036',-0.077
'0:09.039',-0.08
'0:09.042',-0.067
'0:09.044',-0.043
'0:09.047',-0.04
'0:09.050',-0.047
'0:09.053',-0.067
'0:09.056',-0.09
'0:09.058',-0.1
'0:09.061',-0.113
'0:09.064',-0.123
'0:09.067',-0.127
'0:09.069',-0.13
'0:09.072',-0.133
'0:09.075',-0.113
'0:09.078',-0.107
'0:09.081',-0.097
'0:09.083',-0.083
'0:09.086',-0.09
'0:09.089',-0.1
'0:09.092',-0.107
'0:09.094',-0.123
'0:09.097',-0.127
'0:09.100',-0.133
'0:09.103',-0.14
'0:09.106',-0.13
'0:09.108',-0.13
'0:09.111',-0.117
'0:09.114',-0.107
'0:09.117',-0.1
'0:09.119',-0.1
'0:09.122',-0.1
'0:09.125',-0.107
'0:09.128',-0.113
'0:09.131',-0.123
'0:09.133',-0.143
'0:09.136',-0.13
'0:09.139',-0.123
'0:09.142',-0.117
'0:09.144',-0.11
'0:09.147',-0.113
'0:09.150',-0.107
'0:09.153',-0.113
'0:09.156',-0.123
'0:09.158',-0.13
'0:09.161',-0.147
'0:09.164',-0.15
'0:09.167',-0.16
'0:09.169',-0.153
'0:09.172',-0.16
'0:09.175',-0.16
'0:09.178',-0.153
'0:09.181',-0.153
'0:09.183',-0.153
'0:09.186',-0.147
'0:09.189',-0.153
'0:09.192',-0.153
'0:09.194',-0.163
'0:09.197',-0.167
'0:09.200',-0.183
'0:09.203',-0.17
'0:09.206',-0.17
'0:09.208',-0.157
'0:09.211',-0.163
'0:09.214',-0.153
'0:09.217',-0.143
'0:09.219',-0.137
'0:09.222',-0.153
'0:09.225',-0.143
'0:09.228',-0.153
'0:09.231',-0.163
'0:09.233',-0.173
'0:09.236',-0.18
'0:09.239',-0.177
'0:09.242',-0.16
'0:09.244',-0.15
'0:09.247',-0.137
'0:09.250',-0.143
'0:09.253',-0.137
'0:09.256',-0.17
'0:09.258',-0.173
'0:09.261',-0.17
'0:09.264',-0.16
'0:09.267',-0.167
'0:09.269',-0.16
'0:09.272',-0.16
'0:09.275',-0.17
'0:09.278',-0.173
'0:09.281',-0.17
'0:09.283',-0.147
'0:09.286',-0.13
'0:09.289',-0.11
'0:09.292',-0.123
'0:09.294',-0.13
'0:09.297',-0.127
'0:09.300',-0.147
'0:09.303',-0.143
'0:09.306',-0.147
'0:09.308',-0.14
'0:09.311',-0.127
'0:09.314',-0.13
'0:09.317',-0.113
'0:09.319',-0.123
'0:09.322',-0.13
'0:09.325',-0.13
'0:09.328',-0.137
'0:09.331',-0.123
'0:09.333',-0.137
'0:09.336',-0.123
'0:09.339',-0.107
'0:09.342',-0.09
'0:09.344',-0.037
'0:09.347',-0.013
'0:09.350',-0.003
'0:09.353',0.01
'0:09.356',-0.013
'0:09.358',-0.05
'0:09.361',-0.09
'0:09.364',-0.113
'0:09.367',-0.107
'0:09.369',-0.083
'0:09.372',-0.05
'0:09.375',-0.003
'0:09.378',0.05
'0:09.381',0.07
'0:09.383',0.08
'0:09.386',0.037
'0:09.389',-0.037
'0:09.392',-0.147
'0:09.394',-0.247
'0:09.397',-0.31
'0:09.400',-0.317
'0:09.403',-0.293
'0:09.406',-0.253
'0:09.408',-0.223
'0:09.411',-0.193
'0:09.414',-0.187
'0:09.417',-0.18
'0:09.419',-0.19
'0:09.422',-0.187
'0:09.425',-0.203
'0:09.428',-0.213
'0:09.431',-0.22
'0:09.433',-0.23
'0:09.436',-0.207
'0:09.439',-0.203
'0:09.442',-0.2
'0:09.444',-0.193
'0:09.447',-0.193
'0:09.450',-0.193
'0:09.453',-0.19
'0:09.456',-0.19
'0:09.458',-0.193
'0:09.461',-0.19
'0:09.464',-0.17
'0:09.467',-0.17
'0:09.469',-0.17
'0:09.472',-0.17
'0:09.475',-0.14
'0:09.478',-0.13
'0:09.481',-0.127
'0:09.483',-0.127
'0:09.486',-0.133
'0:09.489',-0.103
'0:09.492',-0.083
'0:09.494',-0.043
'0:09.497',-0.003
'0:09.500',0.07
'0:09.503',0.163
'0:09.506',0.273
'0:09.508',0.443
'0:09.511',0.637
'0:09.514',0.823
'0:09.517',0.97
'0:09.519',1.01
'0:09.522',0.927
'0:09.525',0.723
'0:09.528',0.45
'0:09.531',0.147
'0:09.533',-0.133
'0:09.536',-0.313
'0:09.539',-0.397
'0:09.542',-0.4
'0:09.544',-0.367
'0:09.547',-0.37
'0:09.550',-0.37
'0:09.553',-0.387
'0:09.556',-0.387
'0:09.558',-0.357
'0:09.561',-0.303
'0:09.564',-0.227
'0:09.567',-0.177
'0:09.569',-0.113
'0:09.572',-0.09
'0:09.575',-0.067
'0:09.578',-0.053
'0:09.581',-0.06
'0:09.583',-0.067
'0:09.586',-0.077
'0:09.589',-0.087
'0:09.592',-0.093
'0:09.594',-0.09
'0:09.597',-0.083
'0:09.600',-0.073
'0:09.603',-0.053
'0:09.606',-0.04
'0:09.608',-0.033
'0:09.611',-0.013
'0:09.614',-0.023
'0:09.617',-0.023
'0:09.619',-0.037
'0:09.622',-0.03
'0:09.625',-0.023
'0:09.628',-0.02
'0:09.631',-0.023
'0:09.633',-0.03
'0:09.636',-0.02
'0:09.639',-0.007
'0:09.642',-0.007
'0:09.644',0.007
'0:09.647',0.007
'0:09.650',0.007
'0:09.653',0.013
'0:09.656',0.03
'0:09.658',0.03
'0:09.661',0.037
'0:09.664',0.047
'0:09.667',0.043
'0:09.669',0.037
'0:09.672',0.03
'0:09.675',0.037
'0:09.678',0.053
'0:09.681',0.07
'0:09.683',0.087
'0:09.686',0.093
'0:09.689',0.107
'0:09.692',0.093
'0:09.694',0.077
'0:09.697',0.08
'0:09.700',0.077
'0:09.703',0.077
'0:09.706',0.08
'0:09.708',0.1
'0:09.711',0.11
'0:09.714',0.12
'0:09.717',0.13
'0:09.719',0.127
'0:09.722',0.123
'0:09.725',0.113
'0:09.728',0.12
'0:09.731',0.12
'0:09.733',0.137
'0:09.736',0.14
'0:09.739',0.147
'0:09.742',0.15
'0:09.744',0.16
'0:09.747',0.157
'0:09.750',0.163
'0:09.753',0.157
'0:09.756',0.147
'0:09.758',0.123
'0:09.761',0.11
'0:09.764',0.093
'0:09.767',0.077
'0:09.769',0.077
'0:09.772',0.073
'0:09.775',0.103
'0:09.778',0.133
'0:09.781',0.13
'0:09.783',0.143
'0:09.786',0.127
'0:09.789',0.117
'0:09.792',0.083
'0:09.794',0.087
'0:09.797',0.09
'0:09.800',0.077
'0:09.803',0.083
'0:09.806',0.09
'0:09.808',0.1
'0:09.811',0.11
'0:09.814',0.12
'0:09.817',0.13
'0:09.819',0.137
'0:09.822',0.123
'0:09.825',0.11
'0:09.828',0.09
'0:09.831',0.063
'0:09.833',0.057
'0:09.836',0.077
'0:09.839',0.057
'0:09.842',0.06
'0:09.844',0.063
'0:09.847',0.06
'0:09.850',0.053
'0:09.853',0.043
'0:09.856',0.053
'0:09.858',0.05
'0:09.861',0.04
'0:09.864',0.023
'0:09.867',0.003
'0:09.869',0.007
'0:09.872',-0.007
'0:09.875',-0.007
'0:09.878',-0.01
'0:09.881',-0.003
'0:09.883',-0.003
'0:09.886',-0.003
'0:09.889',-0.017
'0:09.892',-0.037
'0:09.894',-0.043
'0:09.897',-0.06
'0:09.900',-0.07
'0:09.903',-0.077
'0:09.906',-0.077
'0:09.908',-0.063
'0:09.911',-0.063
'0:09.914',-0.087
'0:09.917',-0.09
'0:09.919',-0.083
'0:09.922',-0.08
'0:09.925',-0.09
'0:09.928',-0.07
'0:09.931',-0.06
'0:09.933',-0.06
'0:09.936',-0.053
'0:09.939',-0.06
'0:09.942',-0.05
'0:09.944',-0.047
'0:09.947',-0.037
'0:09.950',-0.023
'0:09.953',-0.013
'0:09.956',-0.007
'0:09.958',-0.02
'0:09.961',-0.027
'0:09.964',-0.037
'0:09.967',-0.043
'0:09.969',-0.04
'0:09.972',-0.037
'0:09.975',-0.013
'0:09.978',-0.007
'0:09.981',-0.007
'0:09.983',-0.007
'0:09.986',-0.007
'0:09.989',-0.003
'0:09.992',-0.003
'0:09.994',0
'0:09.997',0
'0:10.000',-0.013
'0:10.003',-0.007
'0:10.006',-0.017
'0:10.008',-0.007
'0:10.011',-0.007
'0:10.014',-0.013
'0:10.017',-0.007
'0:10.019',-0.01
'0:10.022',-0.007
'0:10.025',-0.007
'0:10.028',-0.003
'0:10.031',-0.007
'0:10.033',-0.02
'0:10.036',-0.03
'0:10.039',-0.027
'0:10.042',-0.013
'0:10.044',-0.02
'0:10.047',-0.02
'0:10.050',-0.02
'0:10.053',-0.013
'0:10.056',-0.02
'0:10.058',-0.03
'0:10.061',-0.03
'0:10.064',-0.027
'0:10.067',-0.047
'0:10.069',-0.043
'0:10.072',-0.06
'0:10.075',-0.04
'0:10.078',-0.037
'0:10.081',-0.017
'0:10.083',-0.007
'0:10.086',0.003
'0:10.089',0.007
'0:10.092',0.003
'0:10.094',0.01
'0:10.097',0
'0:10.100',-0.007
'0:10.103',-0.007
'0:10.106',-0.007
'0:10.108',-0.003
'0:10.111',0
'0:10.114',0.003
'0:10.117',0.007
'0:10.119',0
'0:10.122',0.01
'0:10.125',0.01
'0:10.128',0.01
'0:10.131',0.02
'0:10.133',0.007
'0:10.136',0.01
'0:10.139',0.007
'0:10.142',0.007
'0:10.144',0.013
'0:10.147',0.023
'0:10.150',0.037
'0:10.153',0.047
'0:10.156',0.053
'0:10.158',0.037
'0:10.161',0.02
'0:10.164',-0.007
'0:10.167',0
'0:10.169',0.007
'0:10.172',0
'0:10.175',0.01
'0:10.178',0.017
'0:10.181',0.03
'0:10.183',0.037
'0:10.186',0.043
'0:10.189',0.053
'0:10.192',0.05
'0:10.194',0.04
'0:10.197',0.023
'0:10.200',0.02
'0:10.203',0.003
'0:10.206',-0.03
'0:10.208',-0.03
'0:10.211',-0.037
'0:10.214',-0.017
'0:10.217',-0.007
'0:10.219',-0.003
'0:10.222',-0.007
'0:10.225',-0.007
'0:10.228',0.007
'0:10.231',0.013
'0:10.233',0.017
'0:10.236',0.04
'0:10.239',0.037
'0:10.242',0.05
'0:10.244',0.053
'0:10.247',0.057
'0:10.250',0.063
'0:10.253',0.057
'0:10.256',0.037
'0:10.258',0.027
'0:10.261',0.013
'0:10.264',-0.007
'0:10.267',-0.02
'0:10.269',-0.037
'0:10.272',-0.06
'0:10.275',-0.06
'0:10.278',-0.077
'0:10.281',-0.08
'0:10.283',-0.1
'0:10.286',-0.09
'0:10.289',-0.077
'0:10.292',-0.09
'0:10.294',-0.09
'0:10.297',-0.11
'0:10.300',-0.137
'0:10.303',-0.14
'0:10.306',-0.147
'0:10.308',-0.13
'0:10.311',-0.117
'0:10.314',-0.107
'0:10.317',-0.103
'0:10.319',-0.113
'0:10.322',-0.127
'0:10.325',-0.137
'0:10.328',-0.127
'0:10.331',-0.113
'0:10.333',-0.09
'0:10.336',-0.083
'0:10.339',-0.083
'0:10.342',-0.067
'0:10.344',-0.067
'0:10.347',-0.067
'0:10.350',-0.063
'0:10.353',-0.043
'0:10.356',-0.03
'0:10.358',-0.033
'0:10.361',-0.03
'0:10.364',-0.037
'0:10.367',-0.033
'0:10.369',-0.007
'0:10.372',0.04
'0:10.375',0.13
'0:10.378',0.233
'0:10.381',0.367
'0:10.383',0.543
'0:10.386',0.73
'0:10.389',0.907
'0:10.392',1.01
'0:10.394',1.003
'0:10.397',0.863
'0:10.400',0.63
'0:10.403',0.34
'0:10.406',0.04
'0:10.408',-0.17
'0:10.411',-0.303
'0:10.414',-0.347
'0:10.417',-0.333
'0:10.419',-0.307
'0:10.422',-0.297
'0:10.425',-0.307
'0:10.428',-0.31
'0:10.431',-0.317
'0:10.433',-0.293
'0:10.436',-0.253
'0:10.439',-0.21
'0:10.442',-0.137
'0:10.444',-0.083
'0:10.447',-0.047
'0:10.450',-0.033
'0:10.453',-0.03
'0:10.456',-0.013
'0:10.458',-0.017
'0:10.461',-0.003
'0:10.464',-0.007
'0:10.467',-0.003
'0:10.469',0.007
'0:10.472',0.023
'0:10.475',0.057
'0:10.478',0.063
'0:10.481',0.057
'0:10.483',0.06
'0:10.486',0.05
'0:10.489',0.04
'0:10.492',0.017
'0:10.494',0.017
'0:10.497',0.017
'0:10.500',0.02
'0:10.503',0.027
'0:10.506',0.03
'0:10.508',0.063
'0:10.511',0.077
'0:10.514',0.093
'0:10.517',0.11
'0:10.519',0.12
'0:10.522',0.113
'0:10.525',0.097
'0:10.528',0.093
'0:10.531',0.11
'0:10.533',0.133
'0:10.536',0.17
'0:10.539',0.187
'0:10.542',0.18
'0:10.544',0.133
'0:10.547',0.077
'0:10.550',0.053
'0:10.553',0.04
'0:10.556',0.057
'0:10.558',0.09
'0:10.561',0.137
'0:10.564',0.143
'0:10.567',0.15
'0:10.569',0.153
'0:10.572',0.153
'0:10.575',0.157
'0:10.578',0.147
'0:10.581',0.137
'0:10.583',0.12
'0:10.586',0.12
'0:10.589',0.117
'0:10.592',0.093
'0:10.594',0.09
'0:10.597',0.093
'0:10.600',0.107
'0:10.603',0.133
'0:10.606',0.137
'0:10.608',0.16
'0:10.611',0.157
'0:10.614',0.163
'0:10.617',0.167
'0:10.619',0.177
'0:10.622',0.19
'0:10.625',0.19
'0:10.628',0.193
'0:10.631',0.203
'0:10.633',0.19
'0:10.636',0.173
'0:10.639',0.16
'0:10.642',0.163
'0:10.644',0.167
'0:10.647',0.173
'0:10.650',0.173
'0:10.653',0.16
'0:10.656',0.163
'0:10.658',0.147
'0:10.661',0.157
'0:10.664',0.167
'0:10.667',0.163
'0:10.669',0.167
'0:10.672',0.15
'0:10.675',0.17
'0:10.678',0.183
'0:10.681',0.193
'0:10.683',0.203
'0:10.686',0.207
'0:10.689',0.21
'0:10.692',0.193
'0:10.694',0.2
'0:10.697',0.19
'0:10.700',0.187
'0:10.703',0.183
'0:10.706',0.177
'0:10.708',0.21
'0:10.711',0.263
'0:10.714',0.313
'0:10.717',0.38
'0:10.719',0.447
'0:10.722',0.467
'0:10.725',0.447
'0:10.728',0.41
'0:10.731',0.347
'0:10.733',0.27
'0:10.736',0.147
'0:10.739',0
'0:10.742',-0.113
'0:10.744',-0.2
'0:10.747',-0.23
'0:10.750',-0.217
'0:10.753',-0.17
'0:10.756',-0.143
'0:10.758',-0.123
'0:10.761',-0.107
'0:10.764',-0.113
'0:10.767',-0.097
'0:10.769',-0.08
'0:10.772',-0.077
'0:10.775',-0.043
'0:10.778',-0.02
'0:10.781',0
'0:10.783',0.007
'0:10.786',0.007
'0:10.789',-0.007
'0:10.792',-0.003
'0:10.794',0.017
'0:10.797',0.063
'0:10.800',0.13
'0:10.803',0.19
'0:10.806',0.24
'0:10.808',0.247
'0:10.811',0.187
'0:10.814',0.087
'0:10.817',-0.03
'0:10.819',-0.123
'0:10.822',-0.17
'0:10.825',-0.18
'0:10.828',-0.147
'0:10.831',-0.103
'0:10.833',-0.047
'0:10.836',-0.007
'0:10.839',0.003
'0:10.842',0.023
'0:10.844',0.03
'0:10.847',0.04
'0:10.850',0.053
'0:10.853',0.087
'0:10.856',0.093
'0:10.858',0.087
'0:10.861',0.09
'0:10.864',0.07
'0:10.867',0.05
'0:10.869',0.037
'0:10.872',0.03
'0:10.875',0.047
'0:10.878',0.083
'0:10.881',0.11
'0:10.883',0.133
'0:10.886',0.14
'0:10.889',0.137
'0:10.892',0.123
'0:10.894',0.11
'0:10.897',0.103
'0:10.900',0.087
'0:10.903',0.1
'0:10.906',0.11
'0:10.908',0.16
'0:10.911',0.203
'0:10.914',0.263
'0:10.917',0.32
'0:10.919',0.383
'0:10.922',0.45
'0:10.925',0.487
'0:10.928',0.523
'0:10.931',0.537
'0:10.933',0.497
'0:10.936',0.393
'0:10.939',0.223
'0:10.942',0.03
'0:10.944',-0.16
'0:10.947',-0.293
'0:10.950',-0.38
'0:10.953',-0.38
'0:10.956',-0.303
'0:10.958',-0.223
'0:10.961',-0.107
'0:10.964',-0.037
'0:10.967',0.007
'0:10.969',0.01
'0:10.972',-0.017
'0:10.975',-0.03
'0:10.978',-0.037
'0:10.981',-0.02
'0:10.983',-0.01
'0:10.986',-0.007
'0:10.989',-0.007
'0:10.992',-0.017
'0:10.994',-0.04
'0:10.997',-0.06
'0:11.000',-0.07
'0:11.003',-0.073
'0:11.006',-0.077
'0:11.008',-0.057
'0:11.011',-0.023
'0:11.014',0.013
'0:11.017',0.047
'0:11.019',0.07
'0:11.022',0.077
'0:11.025',0.083
'0:11.028',0.083
'0:11.031',0.087
'0:11.033',0.1
'0:11.036',0.123
'0:11.039',0.15
'0:11.042',0.17
'0:11.044',0.177
'0:11.047',0.17
'0:11.050',0.153
'0:11.053',0.147
'0:11.056',0.14
'0:11.058',0.137
'0:11.061',0.137
'0:11.064',0.133
'0:11.067',0.133
'0:11.069',0.137
'0:11.072',0.117
'0:11.075',0.12
'0:11.078',0.117
'0:11.081',0.14
'0:11.083',0.183
'0:11.086',0.21
'0:11.089',0.233
'0:11.092',0.237
'0:11.094',0.227
'0:11.097',0.22
'0:11.100',0.213
'0:11.103',0.21
'0:11.106',0.21
'0:11.108',0.237
'0:11.111',0.277
'0:11.114',0.333
'0:11.117',0.433
'0:11.119',0.52
'0:11.122',0.6
'0:11.125',0.63
'0:11.128',0.627
'0:11.131',0.55
'0:11.133',0.46
'0:11.136',0.387
'0:11.139',0.277
'0:11.142',0.157
'0:11.144',0.007
'0:11.147',-0.13
'0:11.150',-0.24
'0:11.153',-0.3
'0:11.156',-0.277
'0:11.158',-0.21
'0:11.161',-0.1
'0:11.164',-0.013
'0:11.167',0.04
'0:11.169',0.077
'0:11.172',0.083
'0:11.175',0.087
'0:11.178',0.093
'0:11.181',0.123
'0:11.183',0.127
'0:11.186',0.147
'0:11.189',0.157
'0:11.192',0.17
'0:11.194',0.187
'0:11.197',0.18
'0:11.200',0.177
'0:11.203',0.177
'0:11.206',0.187
'0:11.208',0.24
'0:11.211',0.343
'0:11.214',0.5
'0:11.217',0.68
'0:11.219',0.827
'0:11.222',0.933
'0:11.225',0.987
'0:11.228',1.02
'0:11.231',1.053
'0:11.233',1.103
'0:11.236',1.16
'0:11.239',1.207
'0:11.242',1.23
'0:11.244',1.193
'0:11.247',1.057
'0:11.250',0.8
'0:11.253',0.45
'0:11.256',0.093
'0:11.258',-0.217
'0:11.261',-0.42
'0:11.264',-0.513
'0:11.267',-0.497
'0:11.269',-0.407
'0:11.272',-0.303
'0:11.275',-0.173
'0:11.278',-0.077
'0:11.281',0.003
'0:11.283',0.06
'0:11.286',0.1
'0:11.289',0.123
'0:11.292',0.123
'0:11.294',0.153
'0:11.297',0.18
'0:11.300',0.2
'0:11.303',0.227
'0:11.306',0.243
'0:11.308',0.277
'0:11.311',0.28
'0:11.314',0.287
'0:11.317',0.283
'0:11.319',0.293
'0:11.322',0.307
'0:11.325',0.297
'0:11.328',0.31
'0:11.331',0.307
'0:11.333',0.297
'0:11.336',0.287
'0:11.339',0.263
'0:11.342',0.25
'0:11.344',0.217
'0:11.347',0.217
'0:11.350',0.227
'0:11.353',0.24
'0:11.356',0.257
'0:11.358',0.25
'0:11.361',0.25
'0:11.364',0.24
'0:11.367',0.23
'0:11.369',0.24
'0:11.372',0.267
'0:11.375',0.333
'0:11.378',0.383
'0:11.381',0.433
'0:11.383',0.453
'0:11.386',0.443
'0:11.389',0.42
'0:11.392',0.387
'0:11.394',0.373
'0:11.397',0.37
'0:11.400',0.373
'0:11.403',0.373
'0:11.406',0.363
'0:11.408',0.353
'0:11.411',0.327
'0:11.414',0.313
'0:11.417',0.287
'0:11.419',0.28
'0:11.422',0.28
'0:11.425',0.28
'0:11.428',0.273
'0:11.431',0.263
'0:11.433',0.253
'0:11.436',0.237
'0:11.439',0.197
'0:11.442',0.18
'0:11.444',0.163
'0:11.447',0.137
'0:11.450',0.137
'0:11.453',0.133
'0:11.456',0.133
'0:11.458',0.113
'0:11.461',0.103
'0:11.464',0.087
'0:11.467',0.063
'0:11.469',0.07
'0:11.472',0.09
'0:11.475',0.113
'0:11.478',0.137
'0:11.481',0.17
'0:11.483',0.207
'0:11.486',0.25
'0:11.489',0.293
'0:11.492',0.29
'0:11.494',0.267
'0:11.497',0.187
'0:11.500',0.11
'0:11.503',0.03
'0:11.506',-0.007
'0:11.508',0.013
'0:11.511',0.05
'0:11.514',0.113
'0:11.517',0.157
'0:11.519',0.203
'0:11.522',0.217
'0:11.525',0.21
'0:11.528',0.203
'0:11.531',0.227
'0:11.533',0.26
'0:11.536',0.343
'0:11.539',0.437
'0:11.542',0.557
'0:11.544',0.613
'0:11.547',0.637
'0:11.550',0.643
'0:11.553',0.66
'0:11.556',0.66
'0:11.558',0.62
'0:11.561',0.533
'0:11.564',0.38
'0:11.567',0.213
'0:11.569',0.063
'0:11.572',-0.037
'0:11.575',-0.047
'0:11.578',0.007
'0:11.581',0.1
'0:11.583',0.18
'0:11.586',0.243
'0:11.589',0.273
'0:11.592',0.287
'0:11.594',0.287
'0:11.597',0.283
'0:11.600',0.27
'0:11.603',0.26
'0:11.606',0.25
'0:11.608',0.263
'0:11.611',0.27
'0:11.614',0.28
'0:11.617',0.273
'0:11.619',0.267
'0:11.622',0.263
'0:11.625',0.253
'0:11.628',0.263
'0:11.631',0.27
'0:11.633',0.273
'0:11.636',0.277
'0:11.639',0.267
'0:11.642',0.257
'0:11.644',0.24
'0:11.647',0.237
'0:11.650',0.233
'0:11.653',0.247
'0:11.656',0.263
'0:11.658',0.263
'0:11.661',0.28
'0:11.664',0.277
'0:11.667',0.263
'0:11.669',0.247
'0:11.672',0.227
'0:11.675',0.21
'0:11.678',0.203
'0:11.681',0.193
'0:11.683',0.2
'0:11.686',0.22
'0:11.689',0.25
'0:11.692',0.257
'0:11.694',0.277
'0:11.697',0.27
'0:11.700',0.263
'0:11.703',0.253
'0:11.706',0.253
'0:11.708',0.253
'0:11.711',0.253
'0:11.714',0.257
'0:11.717',0.27
'0:11.719',0.267
'0:11.722',0.273
'0:11.725',0.257
'0:11.728',0.257
'0:11.731',0.247
'0:11.733',0.247
'0:11.736',0.25
'0:11.739',0.257
'0:11.742',0.273
'0:11.744',0.273
'0:11.747',0.28
'0:11.750',0.273
'0:11.753',0.26
'0:11.756',0.25
'0:11.758',0.227
'0:11.761',0.203
'0:11.764',0.213
'0:11.767',0.22
'0:11.769',0.21
'0:11.772',0.213
'0:11.775',0.223
'0:11.778',0.217
'0:11.781',0.233
'0:11.783',0.233
'0:11.786',0.24
'0:11.789',0.24
'0:11.792',0.217
'0:11.794',0.217
'0:11.797',0.207
'0:11.800',0.223
'0:11.803',0.253
'0:11.806',0.26
'0:11.808',0.28
'0:11.811',0.283
'0:11.814',0.297
'0:11.817',0.297
'0:11.819',0.283
'0:11.822',0.257
'0:11.825',0.223
'0:11.828',0.21
'0:11.831',0.193
'0:11.833',0.187
'0:11.836',0.193
'0:11.839',0.21
'0:11.842',0.25
'0:11.844',0.25
'0:11.847',0.263
'0:11.850',0.257
'0:11.853',0.247
'0:11.856',0.243
'0:11.858',0.22
'0:11.861',0.227
'0:11.864',0.21
'0:11.867',0.217
'0:11.869',0.213
'0:11.872',0.21
'0:11.875',0.217
'0:11.878',0.22
'0:11.881',0.233
'0:11.883',0.257
'0:11.886',0.263
'0:11.889',0.28
'0:11.892',0.27
'0:11.894',0.273
'0:11.897',0.27
'0:11.900',0.277
'0:11.903',0.28
'0:11.906',0.28
'0:11.908',0.29
'0:11.911',0.31
'0:11.914',0.33
'0:11.917',0.357
'0:11.919',0.38
'0:11.922',0.38
'0:11.925',0.36
'0:11.928',0.37
'0:11.931',0.363
'0:11.933',0.367
'0:11.936',0.397
'0:11.939',0.453
'0:11.942',0.537
'0:11.944',0.643
'0:11.947',0.77
'0:11.950',0.933
'0:11.953',1.137
'0:11.956',1.337
'0:11.958',1.48
'0:11.961',1.533
'0:11.964',1.447
'0:11.967',1.25
'0:11.969',0.963
'0:11.972',0.647
'0:11.975',0.4
'0:11.978',0.233
'0:11.981',0.18
'0:11.983',0.187
'0:11.986',0.21
'0:11.989',0.223
'0:11.992',0.203
'0:11.994',0.203
'0:11.997',0.193
'0:12.000',0.207
'0:12.003',0.243
'0:12.006',0.273
'0:12.008',0.333
'0:12.011',0.383
'0:12.014',0.427
'0:12.017',0.45
'0:12.019',0.45
'0:12.022',0.437
'0:12.025',0.423
'0:12.028',0.433
'0:12.031',0.447
'0:12.033',0.457
'0:12.036',0.47
'0:12.039',0.473
'0:12.042',0.483
'0:12.044',0.487
'0:12.047',0.49
'0:12.050',0.49
'0:12.053',0.483
'0:12.056',0.48
'0:12.058',0.467
'0:12.061',0.467
'0:12.064',0.457
'0:12.067',0.463
'0:12.069',0.463
'0:12.072',0.467
'0:12.075',0.483
'0:12.078',0.507
'0:12.081',0.513
'0:12.083',0.52
'0:12.086',0.527
'0:12.089',0.53
'0:12.092',0.523
'0:12.094',0.52
'0:12.097',0.517
'0:12.100',0.523
'0:12.103',0.52
'0:12.106',0.513
'0:12.108',0.53
'0:12.111',0.543
'0:12.114',0.56
'0:12.117',0.563
'0:12.119',0.577
'0:12.122',0.577
'0:12.125',0.577
'0:12.128',0.583
'0:12.131',0.57
'0:12.133',0.577
'0:12.136',0.577
'0:12.139',0.567
'0:12.142',0.583
'0:12.144',0.577
'0:12.147',0.59
'0:12.150',0.597
'0:12.153',0.61
'0:12.156',0.613
'0:12.158',0.623
'0:12.161',0.637
'0:12.164',0.637
'0:12.167',0.643
'0:12.169',0.633
'0:12.172',0.637
'0:12.175',0.643
'0:12.178',0.64
'0:12.181',0.65
'0:12.183',0.643
'0:12.186',0.633
'0:12.189',0.62
'0:12.192',0.607
'0:12.194',0.613
'0:12.197',0.62
'0:12.200',0.63
'0:12.203',0.623
'0:12.206',0.643
'0:12.208',0.647
'0:12.211',0.637
'0:12.214',0.637
'0:12.217',0.62
'0:12.219',0.607
'0:12.222',0.6
'0:12.225',0.597
'0:12.228',0.607
'0:12.231',0.6
'0:12.233',0.6
'0:12.236',0.59
'0:12.239',0.573
'0:12.242',0.583
'0:12.244',0.583
'0:12.247',0.583
'0:12.250',0.58
'0:12.253',0.583
'0:12.256',0.587
'0:12.258',0.593
'0:12.261',0.597
'0:12.264',0.587
'0:12.267',0.593
'0:12.269',0.583
'0:12.272',0.567
'0:12.275',0.553
'0:12.278',0.54
'0:12.281',0.527
'0:12.283',0.513
'0:12.286',0.51
'0:12.289',0.507
'0:12.292',0.49
'0:12.294',0.49
'0:12.297',0.48
'0:12.300',0.49
'0:12.303',0.503
'0:12.306',0.513
'0:12.308',0.52
'0:12.311',0.52
'0:12.314',0.513
'0:12.317',0.503
'0:12.319',0.507
'0:12.322',0.477
'0:12.325',0.463
'0:12.328',0.473
'0:12.331',0.467
'0:12.333',0.463
'0:12.336',0.467
'0:12.339',0.477
'0:12.342',0.493
'0:12.344',0.513
'0:12.347',0.53
'0:12.350',0.543
'0:12.353',0.553
'0:12.356',0.537
'0:12.358',0.517
'0:12.361',0.52
'0:12.364',0.507
'0:12.367',0.513
'0:12.369',0.52
'0:12.372',0.53
'0:12.375',0.547
'0:12.378',0.553
'0:12.381',0.553
'0:12.383',0.54
'0:12.386',0.53
'0:12.389',0.513
'0:12.392',0.49
'0:12.394',0.49
'0:12.397',0.487
'0:12.400',0.493
'0:12.403',0.497
'0:12.406',0.5
'0:12.408',0.503
'0:12.411',0.5
'0:12.414',0.503
'0:12.417',0.497
'0:12.419',0.497
'0:12.422',0.5
'0:12.425',0.503
'0:12.428',0.51
'0:12.431',0.5
'0:12.433',0.51
'0:12.436',0.513
'0:12.439',0.49
'0:12.442',0.487
'0:12.444',0.477
'0:12.447',0.473
'0:12.450',0.47
'0:12.453',0.477
'0:12.456',0.49
'0:12.458',0.49
'0:12.461',0.493
'0:12.464',0.467
'0:12.467',0.46
'0:12.469',0.45
'0:12.472',0.46
'0:12.475',0.497
'0:12.478',0.53
'0:12.481',0.553
'0:12.483',0.553
'0:12.486',0.55
'0:12.489',0.543
'0:12.492',0.52
'0:12.494',0.52
'0:12.497',0.49
'0:12.500',0.487
'0:12.503',0.48
'0:12.506',0.483
'0:12.508',0.493
'0:12.511',0.493
'0:12.514',0.5
'0:12.517',0.497
'0:12.519',0.507
'0:12.522',0.5
'0:12.525',0.487
'0:12.528',0.487
'0:12.531',0.483
'0:12.533',0.497
'0:12.536',0.493
'0:12.539',0.51
'0:12.542',0.527
'0:12.544',0.53
'0:12.547',0.537
'0:12.550',0.53
'0:12.553',0.527
'0:12.556',0.507
'0:12.558',0.477
'0:12.561',0.463
'0:12.564',0.433
'0:12.567',0.43
'0:12.569',0.43
'0:12.572',0.427
'0:12.575',0.447
'0:12.578',0.467
'0:12.581',0.483
'0:12.583',0.493
'0:12.586',0.507
'0:12.589',0.503
'0:12.592',0.507
'0:12.594',0.523
'0:12.597',0.507
'0:12.600',0.497
'0:12.603',0.487
'0:12.606',0.467
'0:12.608',0.46
'0:12.611',0.47
'0:12.614',0.49
'0:12.617',0.507
'0:12.619',0.52
'0:12.622',0.513
'0:12.625',0.513
'0:12.628',0.507
'0:12.631',0.507
'0:12.633',0.53
'0:12.636',0.56
'0:12.639',0.597
'0:12.642',0.623
'0:12.644',0.613
'0:12.647',0.567
'0:12.650',0.523
'0:12.653',0.487
'0:12.656',0.457
'0:12.658',0.45
'0:12.661',0.453
'0:12.664',0.453
'0:12.667',0.467
'0:12.669',0.463
'0:12.672',0.477
'0:12.675',0.49
'0:12.678',0.493
'0:12.681',0.507
'0:12.683',0.507
'0:12.686',0.513
'0:12.689',0.497
'0:12.692',0.493
'0:12.694',0.473
'0:12.697',0.46
'0:12.700',0.467
'0:12.703',0.473
'0:12.706',0.493
'0:12.708',0.503
'0:12.711',0.5
'0:12.714',0.49
'0:12.717',0.47
'0:12.719',0.477
'0:12.722',0.487
'0:12.725',0.513
'0:12.728',0.52
'0:12.731',0.523
'0:12.733',0.52
'0:12.736',0.51
'0:12.739',0.513
'0:12.742',0.507
'0:12.744',0.49
'0:12.747',0.497
'0:12.750',0.5
'0:12.753',0.52
'0:12.756',0.523
'0:12.758',0.517
'0:12.761',0.517
'0:12.764',0.497
'0:12.767',0.49
'0:12.769',0.483
'0:12.772',0.49
'0:12.775',0.5
'0:12.778',0.5
'0:12.781',0.507
'0:12.783',0.503
'0:12.786',0.507
'0:12.789',0.513
'0:12.792',0.513
'0:12.794',0.52
'0:12.797',0.513
'0:12.800',0.513
'0:12.803',0.493
'0:12.806',0.48
'0:12.808',0.453
'0:12.811',0.46
'0:12.814',0.48
'0:12.817',0.497
'0:12.819',0.547
'0:12.822',0.587
'0:12.825',0.647
'0:12.828',0.7
'0:12.831',0.72
'0:12.833',0.707
'0:12.836',0.637
'0:12.839',0.56
'0:12.842',0.49
'0:12.844',0.447
'0:12.847',0.44
'0:12.850',0.467
'0:12.853',0.53
'0:12.856',0.57
'0:12.858',0.6
'0:12.861',0.593
'0:12.864',0.567
'0:12.867',0.513
'0:12.869',0.45
'0:12.872',0.403
'0:12.875',0.367
'0:12.878',0.353
'0:12.881',0.373
'0:12.883',0.403
'0:12.886',0.443
'0:12.889',0.467
'0:12.892',0.48
'0:12.894',0.5
'0:12.897',0.493
'0:12.900',0.503
'0:12.903',0.507
'0:12.906',0.513
'0:12.908',0.517
'0:12.911',0.52
'0:12.914',0.513
'0:12.917',0.5
'0:12.919',0.507
'0:12.922',0.52
'0:12.925',0.533
'0:12.928',0.573
'0:12.931',0.6
'0:12.933',0.613
'0:12.936',0.613
'0:12.939',0.607
'0:12.942',0.583
'0:12.944',0.56
'0:12.947',0.533
'0:12.950',0.517
'0:12.953',0.523
'0:12.956',0.54
'0:12.958',0.567
'0:12.961',0.617
'0:12.964',0.677
'0:12.967',0.767
'0:12.969',0.857
'0:12.972',0.987
'0:12.975',1.137
'0:12.978',1.303
'0:12.981',1.453
'0:12.983',1.543
'0:12.986',1.533
'0:12.989',1.4
'0:12.992',1.177
'0:12.994',0.91
'0:12.997',0.66
'0:13.000',0.443
'0:13.003',0.31
'0:13.006',0.263
'0:13.008',0.26
'0:13.011',0.263
'0:13.014',0.27
'0:13.017',0.263
'0:13.019',0.267
'0:13.022',0.273
'0:13.025',0.287
'0:13.028',0.31
'0:13.031',0.343
'0:13.033',0.397
'0:13.036',0.457
'0:13.039',0.51
'0:13.042',0.533
'0:13.044',0.53
'0:13.047',0.523
'0:13.050',0.507
'0:13.053',0.507
'0:13.056',0.5
'0:13.058',0.497
'0:13.061',0.497
'0:13.064',0.493
'0:13.067',0.5
'0:13.069',0.507
'0:13.072',0.52
'0:13.075',0.537
'0:13.078',0.54
'0:13.081',0.553
'0:13.083',0.553
'0:13.086',0.56
'0:13.089',0.543
'0:13.092',0.523
'0:13.094',0.517
'0:13.097',0.49
'0:13.100',0.497
'0:13.103',0.49
'0:13.106',0.5
'0:13.108',0.513
'0:13.111',0.53
'0:13.114',0.54
'0:13.117',0.54
'0:13.119',0.55
'0:13.122',0.543
'0:13.125',0.55
'0:13.128',0.56
'0:13.131',0.57
'0:13.133',0.57
'0:13.136',0.56
'0:13.139',0.56
'0:13.142',0.567
'0:13.144',0.583
'0:13.147',0.61
'0:13.150',0.633
'0:13.153',0.66
'0:13.156',0.663
'0:13.158',0.673
'0:13.161',0.677
'0:13.164',0.66
'0:13.167',0.66
'0:13.169',0.66
'0:13.172',0.653
'0:13.175',0.67
'0:13.178',0.68
'0:13.181',0.673
'0:13.183',0.67
'0:13.186',0.66
'0:13.189',0.64
'0:13.192',0.647
'0:13.194',0.647
'0:13.197',0.653
'0:13.200',0.677
'0:13.203',0.697
'0:13.206',0.73
'0:13.208',0.76
'0:13.211',0.78
'0:13.214',0.787
'0:13.217',0.777
'0:13.219',0.773
'0:13.222',0.763
'0:13.225',0.743
'0:13.228',0.723
'0:13.231',0.707
'0:13.233',0.7
'0:13.236',0.703
'0:13.239',0.717
'0:13.242',0.737
'0:13.244',0.747
'0:13.247',0.74
'0:13.250',0.713
'0:13.253',0.713
'0:13.256',0.693
'0:13.258',0.673
'0:13.261',0.647
'0:13.264',0.607
'0:13.267',0.583
'0:13.269',0.57
'0:13.272',0.59
'0:13.275',0.623
'0:13.278',0.66
'0:13.281',0.687
'0:13.283',0.683
'0:13.286',0.693
'0:13.289',0.683
'0:13.292',0.667
'0:13.294',0.643
'0:13.297',0.62
'0:13.300',0.59
'0:13.303',0.56
'0:13.306',0.557
'0:13.308',0.567
'0:13.311',0.587
'0:13.314',0.607
'0:13.317',0.627
'0:13.319',0.647
'0:13.322',0.633
'0:13.325',0.627
'0:13.328',0.62
'0:13.331',0.59
'0:13.333',0.58
'0:13.336',0.557
'0:13.339',0.53
'0:13.342',0.49
'0:13.344',0.443
'0:13.347',0.423
'0:13.350',0.39
'0:13.353',0.39
'0:13.356',0.397
'0:13.358',0.413
'0:13.361',0.443
'0:13.364',0.46
'0:13.367',0.457
'0:13.369',0.437
'0:13.372',0.42
'0:13.375',0.413
'0:13.378',0.413
'0:13.381',0.433
'0:13.383',0.463
'0:13.386',0.497
'0:13.389',0.497
'0:13.392',0.483
'0:13.394',0.483
'0:13.397',0.483
'0:13.400',0.493
'0:13.403',0.503
'0:13.406',0.517
'0:13.408',0.523
'0:13.411',0.507
'0:13.414',0.47
'0:13.417',0.427
'0:13.419',0.413
'0:13.422',0.41
'0:13.425',0.43
'0:13.428',0.44
'0:13.431',0.437
'0:13.433',0.44
'0:13.436',0.447
'0:13.439',0.46
'0:13.442',0.48
'0:13.444',0.497
'0:13.447',0.507
'0:13.450',0.487
'0:13.453',0.49
'0:13.456',0.49
'0:13.458',0.517
'0:13.461',0.553
'0:13.464',0.577
'0:13.467',0.59
'0:13.469',0.583
'0:13.472',0.577
'0:13.475',0.56
'0:13.478',0.537
'0:13.481',0.53
'0:13.483',0.53
'0:13.486',0.517
'0:13.489',0.513
'0:13.492',0.513
'0:13.494',0.507
'0:13.497',0.497
'0:13.500',0.483
'0:13.503',0.467
'0:13.506',0.483
'0:13.508',0.517
'0:13.511',0.573
'0:13.514',0.617
'0:13.517',0.637
'0:13.519',0.65
'0:13.522',0.63
'0:13.525',0.6
'0:13.528',0.563
'0:13.531',0.52
'0:13.533',0.49
'0:13.536',0.463
'0:13.539',0.447
'0:13.542',0.427
'0:13.544',0.443
'0:13.547',0.45
'0:13.550',0.46
'0:13.553',0.463
'0:13.556',0.45
'0:13.558',0.447
'0:13.561',0.443
'0:13.564',0.423
'0:13.567',0.427
'0:13.569',0.42
'0:13.572',0.423
'0:13.575',0.43
'0:13.578',0.42
'0:13.581',0.427
'0:13.583',0.413
'0:13.586',0.413
'0:13.589',0.413
'0:13.592',0.423
'0:13.594',0.43
'0:13.597',0.45
'0:13.600',0.473
'0:13.603',0.493
'0:13.606',0.523
'0:13.608',0.543
'0:13.611',0.543
'0:13.614',0.537
'0:13.617',0.53
'0:13.619',0.53
'0:13.622',0.517
'0:13.625',0.51
'0:13.628',0.5
'0:13.631',0.48
'0:13.633',0.477
'0:13.636',0.477
'0:13.639',0.493
'0:13.642',0.507
'0:13.644',0.523
'0:13.647',0.537
'0:13.650',0.527
'0:13.653',0.527
'0:13.656',0.5
'0:13.658',0.483
'0:13.661',0.467
'0:13.664',0.447
'0:13.667',0.443
'0:13.669',0.437
'0:13.672',0.457
'0:13.675',0.467
'0:13.678',0.483
'0:13.681',0.513
'0:13.683',0.533
'0:13.686',0.553
'0:13.689',0.56
'0:13.692',0.57
'0:13.694',0.59
'0:13.697',0.6
'0:13.700',0.603
'0:13.703',0.6
'0:13.706',0.623
'0:13.708',0.63
'0:13.711',0.623
'0:13.714',0.6
'0:13.717',0.567
'0:13.719',0.543
'0:13.722',0.493
'0:13.725',0.473
'0:13.728',0.47
'0:13.731',0.49
'0:13.733',0.513
'0:13.736',0.533
'0:13.739',0.553
'0:13.742',0.56
'0:13.744',0.55
'0:13.747',0.54
'0:13.750',0.517
'0:13.753',0.507
'0:13.756',0.49
'0:13.758',0.483
'0:13.761',0.49
'0:13.764',0.5
'0:13.767',0.51
'0:13.769',0.513
'0:13.772',0.52
'0:13.775',0.52
'0:13.778',0.53
'0:13.781',0.537
'0:13.783',0.53
'0:13.786',0.53
'0:13.789',0.52
'0:13.792',0.517
'0:13.794',0.51
'0:13.797',0.51
'0:13.800',0.517
'0:13.803',0.513
'0:13.806',0.52
'0:13.808',0.53
'0:13.811',0.543
'0:13.814',0.56
'0:13.817',0.567
'0:13.819',0.577
'0:13.822',0.577
'0:13.825',0.607
'0:13.828',0.653
'0:13.831',0.73
'0:13.833',0.843
'0:13.836',0.973
'0:13.839',1.15
'0:13.842',1.33
'0:13.844',1.493
'0:13.847',1.58
'0:13.850',1.56
'0:13.853',1.43
'0:13.856',1.207
'0:13.858',0.947
'0:13.861',0.677
'0:13.864',0.473
'0:13.867',0.36
'0:13.869',0.317
'0:13.872',0.32
'0:13.875',0.313
'0:13.878',0.317
'0:13.881',0.287
'0:13.883',0.273
'0:13.886',0.27
'0:13.889',0.283
'0:13.892',0.317
'0:13.894',0.36
'0:13.897',0.397
'0:13.900',0.443
'0:13.903',0.477
'0:13.906',0.513
'0:13.908',0.53
'0:13.911',0.533
'0:13.914',0.533
'0:13.917',0.523
'0:13.919',0.52
'0:13.922',0.497
'0:13.925',0.517
'0:13.928',0.53
'0:13.931',0.55
'0:13.933',0.563
'0:13.936',0.563
'0:13.939',0.57
'0:13.942',0.573
'0:13.944',0.583
'0:13.947',0.587
'0:13.950',0.603
'0:13.953',0.64
'0:13.956',0.637
'0:13.958',0.63
'0:13.961',0.623
'0:13.964',0.6
'0:13.967',0.577
'0:13.969',0.567
'0:13.972',0.577
'0:13.975',0.59
'0:13.978',0.613
'0:13.981',0.63
'0:13.983',0.637
'0:13.986',0.66
'0:13.989',0.65
'0:13.992',0.643
'0:13.994',0.623
'0:13.997',0.627
'0:14.000',0.623
'0:14.003',0.613
'0:14.006',0.62
'0:14.008',0.613
'0:14.011',0.637
'0:14.014',0.637
'0:14.017',0.64
'0:14.019',0.667
'0:14.022',0.677
'0:14.025',0.693
'0:14.028',0.69
'0:14.031',0.693
'0:14.033',0.67
'0:14.036',0.667
'0:14.039',0.683
'0:14.042',0.683
'0:14.044',0.7
'0:14.047',0.723
'0:14.050',0.717
'0:14.053',0.72
'0:14.056',0.717
'0:14.058',0.71
'0:14.061',0.7
'0:14.064',0.7
'0:14.067',0.703
'0:14.069',0.703
'0:14.072',0.71
'0:14.075',0.71
'0:14.078',0.707
'0:14.081',0.723
'0:14.083',0.73
'0:14.086',0.733
'0:14.089',0.74
'0:14.092',0.73
'0:14.094',0.72
'0:14.097',0.687
'0:14.100',0.657
'0:14.103',0.63
'0:14.106',0.637
'0:14.108',0.657
'0:14.111',0.677
'0:14.114',0.7
'0:14.117',0.707
'0:14.119',0.71
'0:14.122',0.683
'0:14.125',0.663
'0:14.128',0.65
'0:14.131',0.647
'0:14.133',0.653
'0:14.136',0.647
'0:14.139',0.653
'0:14.142',0.653
'0:14.144',0.653
'0:14.147',0.647
'0:14.150',0.637
'0:14.153',0.653
'0:14.156',0.653
'0:14.158',0.647
'0:14.161',0.637
'0:14.164',0.613
'0:14.167',0.607
'0:14.169',0.597
'0:14.172',0.597
'0:14.175',0.61
'0:14.178',0.623
'0:14.181',0.633
'0:14.183',0.623
'0:14.186',0.617
'0:14.189',0.59
'0:14.192',0.577
'0:14.194',0.573
'0:14.197',0.577
'0:14.200',0.57
'0:14.203',0.553
'0:14.206',0.547
'0:14.208',0.537
'0:14.211',0.553
'0:14.214',0.573
'0:14.217',0.593
'0:14.219',0.613
'0:14.222',0.613
'0:14.225',0.593
'0:14.228',0.577
'0:14.231',0.553
'0:14.233',0.547
'0:14.236',0.53
'0:14.239',0.53
'0:14.242',0.54
'0:14.244',0.553
'0:14.247',0.573
'0:14.250',0.59
'0:14.253',0.597
'0:14.256',0.577
'0:14.258',0.547
'0:14.261',0.52
'0:14.264',0.497
'0:14.267',0.487
'0:14.269',0.483
'0:14.272',0.493
'0:14.275',0.507
'0:14.278',0.53
'0:14.281',0.553
'0:14.283',0.57
'0:14.286',0.59
'0:14.289',0.58
'0:14.292',0.58
'0:14.294',0.56
'0:14.297',0.547
'0:14.300',0.537
'0:14.303',0.52
'0:14.306',0.537
'0:14.308',0.543
'0:14.311',0.56
'0:14.314',0.567
'0:14.317',0.567
'0:14.319',0.577
'0:14.322',0.577
'0:14.325',0.567
'0:14.328',0.56
'0:14.331',0.553
'0:14.333',0.543
'0:14.336',0.543
'0:14.339',0.553
'0:14.342',0.557
'0:14.344',0.557
'0:14.347',0.567
'0:14.350',0.573
'0:14.353',0.563
'0:14.356',0.547
'0:14.358',0.533
'0:14.361',0.527
'0:14.364',0.53
'0:14.367',0.537
'0:14.369',0.56
'0:14.372',0.59
'0:14.375',0.607
'0:14.378',0.613
'0:14.381',0.6
'0:14.383',0.577
'0:14.386',0.56
'0:14.389',0.53
'0:14.392',0.517
'0:14.394',0.513
'0:14.397',0.52
'0:14.400',0.513
'0:14.403',0.493
'0:14.406',0.47
'0:14.408',0.467
'0:14.411',0.477
'0:14.414',0.48
'0:14.417',0.487
'0:14.419',0.497
'0:14.422',0.497
'0:14.425',0.5
'0:14.428',0.483
'0:14.431',0.473
'0:14.433',0.46
'0:14.436',0.453
'0:14.439',0.453
'0:14.442',0.463
'0:14.444',0.483
'0:14.447',0.493
'0:14.450',0.51
'0:14.453',0.523
'0:14.456',0.507
'0:14.458',0.49
'0:14.461',0.467
'0:14.464',0.463
'0:14.467',0.457
'0:14.469',0.467
'0:14.472',0.5
'0:14.475',0.513
'0:14.478',0.537
'0:14.481',0.557
'0:14.483',0.567
'0:14.486',0.56
'0:14.489',0.543
'0:14.492',0.53
'0:14.494',0.52
'0:14.497',0.53
'0:14.500',0.56
'0:14.503',0.583
'0:14.506',0.637
'0:14.508',0.693
'0:14.511',0.767
'0:14.514',0.847
'0:14.517',0.963
'0:14.519',1.093
'0:14.522',1.247
'0:14.525',1.393
'0:14.528',1.45
'0:14.531',1.407
'0:14.533',1.26
'0:14.536',1.027
'0:14.539',0.753
'0:14.542',0.47
'0:14.544',0.277
'0:14.547',0.197
'0:14.550',0.18
'0:14.553',0.22
'0:14.556',0.24
'0:14.558',0.25
'0:14.561',0.24
'0:14.564',0.233
'0:14.567',0.243
'0:14.569',0.287
'0:14.572',0.343
'0:14.575',0.403
'0:14.578',0.473
'0:14.581',0.513
'0:14.583',0.557
'0:14.586',0.577
'0:14.589',0.577
'0:14.592',0.57
'0:14.594',0.56
'0:14.597',0.55
'0:14.600',0.537
'0:14.603',0.533
'0:14.606',0.537
'0:14.608',0.547
'0:14.611',0.587
'0:14.614',0.607
'0:14.617',0.62
'0:14.619',0.623
'0:14.622',0.6
'0:14.625',0.6
'0:14.628',0.573
'0:14.631',0.57
'0:14.633',0.56
'0:14.636',0.56
'0:14.639',0.57
'0:14.642',0.58
'0:14.644',0.59
'0:14.647',0.603
'0:14.650',0.61
'0:14.653',0.613
'0:14.656',0.607
'0:14.658',0.623
'0:14.661',0.65
'0:14.664',0.66
'0:14.667',0.663
'0:14.669',0.663
'0:14.672',0.67
'0:14.675',0.66
'0:14.678',0.677
'0:14.681',0.677
'0:14.683',0.687
'0:14.686',0.683
'0:14.689',0.67
'0:14.692',0.653
'0:14.694',0.643
'0:14.697',0.65
'0:14.700',0.65
'0:14.703',0.667
'0:14.706',0.677
'0:14.708',0.677
'0:14.711',0.697
'0:14.714',0.693
'0:14.717',0.707
'0:14.719',0.717
'0:14.722',0.717
'0:14.725',0.717
'0:14.728',0.707
'0:14.731',0.71
'0:14.733',0.697
'0:14.736',0.7
'0:14.739',0.707
'0:14.742',0.693
'0:14.744',0.713
'0:14.747',0.73
'0:14.750',0.76
'0:14.753',0.783
'0:14.756',0.77
'0:14.758',0.783
'0:14.761',0.763
'0:14.764',0.75
'0:14.767',0.737
'0:14.769',0.737
'0:14.772',0.747
'0:14.775',0.77
'0:14.778',0.8
'0:14.781',0.813
'0:14.783',0.82
'0:14.786',0.813
'0:14.789',0.787
'0:14.792',0.757
'0:14.794',0.723
'0:14.797',0.697
'0:14.800',0.683
'0:14.803',0.683
'0:14.806',0.703
'0:14.808',0.707
'0:14.811',0.71
'0:14.814',0.7
'0:14.817',0.697
'0:14.819',0.71
'0:14.822',0.7
'0:14.825',0.703
'0:14.828',0.7
'0:14.831',0.683
'0:14.833',0.657
'0:14.836',0.63
'0:14.839',0.603
'0:14.842',0.58
'0:14.844',0.583
'0:14.847',0.58
'0:14.850',0.59
'0:14.853',0.607
'0:14.856',0.597
'0:14.858',0.593
'0:14.861',0.577
'0:14.864',0.567
'0:14.867',0.567
'0:14.869',0.553
'0:14.872',0.55
'0:14.875',0.56
'0:14.878',0.563
'0:14.881',0.543
'0:14.883',0.537
'0:14.886',0.53
'0:14.889',0.527
'0:14.892',0.55
'0:14.894',0.557
'0:14.897',0.57
'0:14.900',0.577
'0:14.903',0.573
'0:14.906',0.567
'0:14.908',0.56
'0:14.911',0.553
'0:14.914',0.543
'0:14.917',0.53
'0:14.919',0.53
'0:14.922',0.523
'0:14.925',0.523
'0:14.928',0.54
'0:14.931',0.553
'0:14.933',0.563
'0:14.936',0.57
'0:14.939',0.58
'0:14.942',0.577
'0:14.944',0.587
'0:14.947',0.583
'0:14.950',0.573
'0:14.953',0.567
'0:14.956',0.557
'0:14.958',0.543
'0:14.961',0.54
'0:14.964',0.537
'0:14.967',0.533
'0:14.969',0.543
'0:14.972',0.553
'0:14.975',0.567
'0:14.978',0.59
'0:14.981',0.587
'0:14.983',0.59
'0:14.986',0.583
'0:14.989',0.59
'0:14.992',0.59
'0:14.994',0.583
'0:14.997',0.583
'0:15.000',0.567
'0:15.003',0.56
'0:15.006',0.553
'0:15.008',0.537
'0:15.011',0.533
'0:15.014',0.517
'0:15.017',0.517
'0:15.019',0.51
'0:15.022',0.507
'0:15.025',0.507
'0:15.028',0.497
'0:15.031',0.503
'0:15.033',0.493
'0:15.036',0.483
'0:15.039',0.483
'0:15.042',0.473
'0:15.044',0.487
'0:15.047',0.47
'0:15.050',0.46
'0:15.053',0.46
'0:15.056',0.447
'0:15.058',0.467
'0:15.061',0.497
'0:15.064',0.533
'0:15.067',0.533
'0:15.069',0.517
'0:15.072',0.497
'0:15.075',0.467
'0:15.078',0.443
'0:15.081',0.42
'0:15.083',0.433
'0:15.086',0.46
'0:15.089',0.487
'0:15.092',0.527
'0:15.094',0.55
'0:15.097',0.553
'0:15.100',0.523
'0:15.103',0.49
'0:15.106',0.473
'0:15.108',0.447
'0:15.111',0.44
'0:15.114',0.453
'0:15.117',0.463
'0:15.119',0.473
'0:15.122',0.473
'0:15.125',0.48
'0:15.128',0.48
'0:15.131',0.483
'0:15.133',0.46
'0:15.136',0.437
'0:15.139',0.41
'0:15.142',0.407
'0:15.144',0.427
'0:15.147',0.453
'0:15.150',0.487
'0:15.153',0.517
'0:15.156',0.52
'0:15.158',0.53
'0:15.161',0.497
'0:15.164',0.483
'0:15.167',0.473
'0:15.169',0.473
'0:15.172',0.483
'0:15.175',0.49
'0:15.178',0.5
'0:15.181',0.49
'0:15.183',0.483
'0:15.186',0.473
'0:15.189',0.45
'0:15.192',0.443
'0:15.194',0.43
'0:15.197',0.447
'0:15.200',0.45
'0:15.203',0.48
'0:15.206',0.51
'0:15.208',0.523
'0:15.211',0.53
'0:15.214',0.523
'0:15.217',0.5
'0:15.219',0.487
'0:15.222',0.45
'0:15.225',0.46
'0:15.228',0.45
'0:15.231',0.463
'0:15.233',0.487
'0:15.236',0.517
'0:15.239',0.53
'0:15.242',0.537
'0:15.244',0.537
'0:15.247',0.523
'0:15.250',0.517
'0:15.253',0.517
'0:15.256',0.507
'0:15.258',0.52
'0:15.261',0.517
'0:15.264',0.513
'0:15.267',0.513
'0:15.269',0.517
'0:15.272',0.513
'0:15.275',0.497
'0:15.278',0.497
'0:15.281',0.483
'0:15.283',0.473
'0:15.286',0.487
'0:15.289',0.487
'0:15.292',0.497
'0:15.294',0.507
'0:15.297',0.497
'0:15.300',0.47
'0:15.303',0.443
'0:15.306',0.443
'0:15.308',0.45
'0:15.311',0.467
'0:15.314',0.48
'0:15.317',0.52
'0:15.319',0.543
'0:15.322',0.543
'0:15.325',0.533
'0:15.328',0.507
'0:15.331',0.47
'0:15.333',0.45
'0:15.336',0.443
'0:15.339',0.443
'0:15.342',0.437
'0:15.344',0.443
'0:15.347',0.443
'0:15.350',0.463
'0:15.353',0.477
'0:15.356',0.467
'0:15.358',0.447
'0:15.361',0.43
'0:15.364',0.43
'0:15.367',0.437
'0:15.369',0.477
'0:15.372',0.52
'0:15.375',0.553
'0:15.378',0.59
'0:15.381',0.587
'0:15.383',0.6
'0:15.386',0.607
'0:15.389',0.6
'0:15.392',0.583
'0:15.394',0.56
'0:15.397',0.53
'0:15.400',0.473
'0:15.403',0.443
'0:15.406',0.443
'0:15.408',0.447
'0:15.411',0.473
'0:15.414',0.473
'0:15.417',0.473
'0:15.419',0.457
'0:15.422',0.437
'0:15.425',0.42
'0:15.428',0.397
'0:15.431',0.39
'0:15.433',0.383
'0:15.436',0.39
'0:15.439',0.413
'0:15.442',0.437
'0:15.444',0.45
'0:15.447',0.447
'0:15.450',0.443
'0:15.453',0.433
'0:15.456',0.43
'0:15.458',0.437
'0:15.461',0.45
'0:15.464',0.473
'0:15.467',0.49
'0:15.469',0.507
'0:15.472',0.513
'0:15.475',0.52
'0:15.478',0.52
'0:15.481',0.49
'0:15.483',0.493
'0:15.486',0.483
'0:15.489',0.473
'0:15.492',0.49
'0:15.494',0.48
'0:15.497',0.483
'0:15.500',0.47
'0:15.503',0.48
'0:15.506',0.48
'0:15.508',0.497
'0:15.511',0.537
'0:15.514',0.613
'0:15.517',0.733
'0:15.519',0.863
'0:15.522',1.01
'0:15.525',1.18
'0:15.528',1.33
'0:15.531',1.453
'0:15.533',1.49
'0:15.536',1.43
'0:15.539',1.28
'0:15.542',1.053
'0:15.544',0.8
'0:15.547',0.537
'0:15.550',0.353
'0:15.553',0.257
'0:15.556',0.227
'0:15.558',0.247
'0:15.561',0.257
'0:15.564',0.26
'0:15.567',0.233
'0:15.569',0.193
'0:15.572',0.203
'0:15.575',0.22
'0:15.578',0.28
'0:15.581',0.347
'0:15.583',0.413
'0:15.586',0.457
'0:15.589',0.47
'0:15.592',0.483
'0:15.594',0.48
'0:15.597',0.487
'0:15.600',0.493
'0:15.603',0.493
'0:15.606',0.497
'0:15.608',0.493
'0:15.611',0.503
'0:15.614',0.503
'0:15.617',0.503
'0:15.619',0.503
'0:15.622',0.48
'0:15.625',0.483
'0:15.628',0.47
'0:15.631',0.473
'0:15.633',0.49
'0:15.636',0.503
'0:15.639',0.517
'0:15.642',0.537
'0:15.644',0.553
'0:15.647',0.567
'0:15.650',0.57
'0:15.653',0.547
'0:15.656',0.53
'0:15.658',0.513
'0:15.661',0.513
'0:15.664',0.52
'0:15.667',0.53
'0:15.669',0.553
'0:15.672',0.563
'0:15.675',0.567
'0:15.678',0.577
'0:15.681',0.563
'0:15.683',0.553
'0:15.686',0.553
'0:15.689',0.543
'0:15.692',0.537
'0:15.694',0.523
'0:15.697',0.513
'0:15.700',0.497
'0:15.703',0.49
'0:15.706',0.5
'0:15.708',0.503
'0:15.711',0.523
'0:15.714',0.553
'0:15.717',0.573
'0:15.719',0.59
'0:15.722',0.583
'0:15.725',0.573
'0:15.728',0.56
'0:15.731',0.54
'0:15.733',0.527
'0:15.736',0.533
'0:15.739',0.543
'0:15.742',0.553
'0:15.744',0.563
'0:15.747',0.56
'0:15.750',0.563
'0:15.753',0.547
'0:15.756',0.543
'0:15.758',0.543
'0:15.761',0.537
'0:15.764',0.55
'0:15.767',0.553
'0:15.769',0.57
'0:15.772',0.59
'0:15.775',0.593
'0:15.778',0.59
'0:15.781',0.59
'0:15.783',0.59
'0:15.786',0.583
'0:15.789',0.58
'0:15.792',0.587
'0:15.794',0.577
'0:15.797',0.567
'0:15.800',0.557
'0:15.803',0.563
'0:15.806',0.577
'0:15.808',0.59
'0:15.811',0.607
'0:15.814',0.607
'0:15.817',0.607
'0:15.819',0.603
'0:15.822',0.59
'0:15.825',0.57
'0:15.828',0.553
'0:15.831',0.543
'0:15.833',0.53
'0:15.836',0.527
'0:15.839',0.543
'0:15.842',0.547
'0:15.844',0.567
'0:15.847',0.567
'0:15.850',0.577
'0:15.853',0.56
'0:15.856',0.553
'0:15.858',0.543
'0:15.861',0.513
'0:15.864',0.497
'0:15.867',0.49
'0:15.869',0.483
'0:15.872',0.47
'0:15.875',0.463
'0:15.878',0.443
'0:15.881',0.42
'0:15.883',0.403
'0:15.886',0.39
'0:15.889',0.383
'0:15.892',0.39
'0:15.894',0.38
'0:15.897',0.383
'0:15.900',0.377
'0:15.903',0.357
'0:15.906',0.357
'0:15.908',0.35
'0:15.911',0.353
'0:15.914',0.34
'0:15.917',0.333
'0:15.919',0.32
'0:15.922',0.303
'0:15.925',0.283
'0:15.928',0.267
'0:15.931',0.273
'0:15.933',0.257
'0:15.936',0.263
'0:15.939',0.28
'0:15.942',0.287
'0:15.944',0.303
'0:15.947',0.307
'0:15.950',0.32
'0:15.953',0.32
'0:15.956',0.31
'0:15.958',0.31
'0:15.961',0.287
'0:15.964',0.28
'0:15.967',0.267
'0:15.969',0.26
'0:15.972',0.28
'0:15.975',0.28
'0:15.978',0.3
'0:15.981',0.307
'0:15.983',0.287
'0:15.986',0.303
'0:15.989',0.283
'0:15.992',0.283
'0:15.994',0.267
'0:15.997',0.263
'0:16.000',0.243
'0:16.003',0.24
'0:16.006',0.247
'0:16.008',0.25
'0:16.011',0.25
'0:16.014',0.25
'0:16.017',0.247
'0:16.019',0.24
'0:16.022',0.22
'0:16.025',0.23
'0:16.028',0.227
'0:16.031',0.23
'0:16.033',0.233
'0:16.036',0.22
'0:16.039',0.213
'0:16.042',0.203
'0:16.044',0.213
'0:16.047',0.207
'0:16.050',0.22
'0:16.053',0.217
'0:16.056',0.207
'0:16.058',0.213
'0:16.061',0.187
'0:16.064',0.187
'0:16.067',0.177
'0:16.069',0.18
'0:16.072',0.187
'0:16.075',0.203
'0:16.078',0.21
'0:16.081',0.2
'0:16.083',0.183
'0:16.086',0.163
'0:16.089',0.147
'0:16.092',0.14
'0:16.094',0.13
'0:16.097',0.117
'0:16.100',0.117
'0:16.103',0.107
'0:16.106',0.117
'0:16.108',0.123
'0:16.111',0.14
'0:16.114',0.137
'0:16.117',0.137
'0:16.119',0.147
'0:16.122',0.13
'0:16.125',0.123
'0:16.128',0.1
'0:16.131',0.093
'0:16.133',0.063
'0:16.136',0.09
'0:16.139',0.13
'0:16.142',0.173
'0:16.144',0.24
'0:16.147',0.297
'0:16.150',0.35
'0:16.153',0.363
'0:16.156',0.317
'0:16.158',0.237
'0:16.161',0.11
'0:16.164',0.01
'0:16.167',-0.09
'0:16.169',-0.16
'0:16.172',-0.16
'0:16.175',-0.123
'0:16.178',-0.063
'0:16.181',-0.013
'0:16.183',0.03
'0:16.186',0.047
'0:16.189',0.037
'0:16.192',0.023
'0:16.194',0.007
'0:16.197',0.02
'0:16.200',0.013
'0:16.203',0.013
'0:16.206',0.003
'0:16.208',-0.007
'0:16.211',-0.02
'0:16.214',-0.03
'0:16.217',-0.02
'0:16.219',-0.003
'0:16.222',0.02
'0:16.225',0.03
'0:16.228',0
'0:16.231',-0.04
'0:16.233',-0.09
'0:16.236',-0.123
'0:16.239',-0.103
'0:16.242',-0.057
'0:16.244',0.003
'0:16.247',0.047
'0:16.250',0.1
'0:16.253',0.163
'0:16.256',0.233
'0:16.258',0.287
'0:16.261',0.32
'0:16.264',0.307
'0:16.267',0.233
'0:16.269',0.107
'0:16.272',-0.02
'0:16.275',-0.13
'0:16.278',-0.193
'0:16.281',-0.207
'0:16.283',-0.17
'0:16.286',-0.117
'0:16.289',-0.083
'0:16.292',-0.053
'0:16.294',-0.043
'0:16.297',-0.037
'0:16.300',-0.037
'0:16.303',-0.02
'0:16.306',-0.003
'0:16.308',0.03
'0:16.311',0.063
'0:16.314',0.07
'0:16.317',0.07
'0:16.319',0.077
'0:16.322',0.06
'0:16.325',0.043
'0:16.328',0.043
'0:16.331',0.05
'0:16.333',0.06
'0:16.336',0.09
'0:16.339',0.107
'0:16.342',0.12
'0:16.344',0.123
'0:16.347',0.127
'0:16.350',0.14
'0:16.353',0.143
'0:16.356',0.14
'0:16.358',0.157
'0:16.361',0.117
'0:16.364',0.093
'0:16.367',0.053
'0:16.369',0.023
'0:16.372',0.027
'0:16.375',0.083
'0:16.378',0.2
'0:16.381',0.363
'0:16.383',0.56
'0:16.386',0.8
'0:16.389',1.043
'0:16.392',1.25
'0:16.394',1.393
'0:16.397',1.447
'0:16.400',1.347
'0:16.403',1.127
'0:16.406',0.837
'0:16.408',0.513
'0:16.411',0.207
'0:16.414',-0.04
'0:16.417',-0.18
'0:16.419',-0.263
'0:16.422',-0.26
'0:16.425',-0.223
'0:16.428',-0.223
'0:16.431',-0.233
'0:16.433',-0.293
'0:16.436',-0.343
'0:16.439',-0.37
'0:16.442',-0.36
'0:16.444',-0.293
'0:16.447',-0.193
'0:16.450',-0.077
'0:16.453',0.017
'0:16.456',0.077
'0:16.458',0.097
'0:16.461',0.093
'0:16.464',0.077
'0:16.467',0.027
'0:16.469',-0.007
'0:16.472',-0.023
'0:16.475',-0.037
'0:16.478',-0.03
'0:16.481',-0.027
'0:16.483',-0.01
'0:16.486',0.017
'0:16.489',0.04
'0:16.492',0.067
'0:16.494',0.103
'0:16.497',0.177
'0:16.500',0.28
'0:16.503',0.38
'0:16.506',0.467
'0:16.508',0.52
'0:16.511',0.543
'0:16.514',0.54
'0:16.517',0.473
'0:16.519',0.343
'0:16.522',0.13
'0:16.525',-0.107
'0:16.528',-0.33
'0:16.531',-0.46
'0:16.533',-0.5
'0:16.536',-0.45
'0:16.539',-0.36
'0:16.542',-0.24
'0:16.544',-0.12
'0:16.547',-0.03
'0:16.550',0.04
'0:16.553',0.063
'0:16.556',0.047
'0:16.558',0.023
'0:16.561',-0.003
'0:16.564',-0.027
'0:16.567',-0.057
'0:16.569',-0.06
'0:16.572',-0.037
'0:16.575',0
'0:16.578',0.067
'0:16.581',0.11
'0:16.583',0.133
'0:16.586',0.133
'0:16.589',0.133
'0:16.592',0.1
'0:16.594',0.063
'0:16.597',0.047
'0:16.600',0.03
'0:16.603',0.047
'0:16.606',0.087
'0:16.608',0.157
'0:16.611',0.217
'0:16.614',0.237
'0:16.617',0.253
'0:16.619',0.24
'0:16.622',0.227
'0:16.625',0.227
'0:16.628',0.223
'0:16.631',0.217
'0:16.633',0.217
'0:16.636',0.217
'0:16.639',0.21
'0:16.642',0.243
'0:16.644',0.273
'0:16.647',0.287
'0:16.650',0.277
'0:16.653',0.26
'0:16.656',0.25
'0:16.658',0.257
'0:16.661',0.273
'0:16.664',0.277
'0:16.667',0.287
'0:16.669',0.32
'0:16.672',0.363
'0:16.675',0.413
'0:16.678',0.49
'0:16.681',0.577
'0:16.683',0.667
'0:16.686',0.723
'0:16.689',0.747
'0:16.692',0.693
'0:16.694',0.577
'0:16.697',0.47
'0:16.700',0.357
'0:16.703',0.28
'0:16.706',0.197
'0:16.708',0.13
'0:16.711',0.053
'0:16.714',-0.007
'0:16.717',-0.027
'0:16.719',-0.037
'0:16.722',-0.027
'0:16.725',0.007
'0:16.728',0.033
'0:16.731',0.067
'0:16.733',0.08
'0:16.736',0.09
'0:16.739',0.1
'0:16.742',0.12
'0:16.744',0.15
'0:16.747',0.2
'0:16.750',0.227
'0:16.753',0.21
'0:16.756',0.133
'0:16.758',0.05
'0:16.761',-0.04
'0:16.764',-0.08
'0:16.767',-0.113
'0:16.769',-0.077
'0:16.772',-0.03
'0:16.775',0.007
'0:16.778',0.06
'0:16.781',0.077
'0:16.783',0.077
'0:16.786',0.067
'0:16.789',0.047
'0:16.792',0.03
'0:16.794',0.027
'0:16.797',0.027
'0:16.800',0.047
'0:16.803',0.07
'0:16.806',0.087
'0:16.808',0.113
'0:16.811',0.143
'0:16.814',0.167
'0:16.817',0.21
'0:16.819',0.217
'0:16.822',0.157
'0:16.825',0.067
'0:16.828',-0.02
'0:16.831',-0.09
'0:16.833',-0.137
'0:16.836',-0.147
'0:16.839',-0.113
'0:16.842',-0.06
'0:16.844',0.007
'0:16.847',0.043
'0:16.850',0.063
'0:16.853',0.047
'0:16.856',0
'0:16.858',-0.037
'0:16.861',-0.063
'0:16.864',-0.077
'0:16.867',-0.067
'0:16.869',-0.057
'0:16.872',-0.037
'0:16.875',-0.01
'0:16.878',0.017
'0:16.881',0.023
'0:16.883',0.047
'0:16.886',0.037
'0:16.889',-0.007
'0:16.892',-0.033
'0:16.894',-0.057
'0:16.897',-0.07
'0:16.900',-0.067
'0:16.903',-0.05
'0:16.906',-0.037
'0:16.908',-0.02
'0:16.911',-0.003
'0:16.914',0.007
'0:16.917',0.02
'0:16.919',0.017
'0:16.922',0.017
'0:16.925',0.01
'0:16.928',0
'0:16.931',0
'0:16.933',-0.02
'0:16.936',-0.017
'0:16.939',-0.03
'0:16.942',-0.03
'0:16.944',-0.013
'0:16.947',-0.007
'0:16.950',0.017
'0:16.953',0.027
'0:16.956',0.04
'0:16.958',0.053
'0:16.961',0.03
'0:16.964',0.007
'0:16.967',0.017
'0:16.969',0.023
'0:16.972',0.023
'0:16.975',0.04
'0:16.978',0.047
'0:16.981',0.047
'0:16.983',0.043
'0:16.986',0.047
'0:16.989',0.047
'0:16.992',0.063
'0:16.994',0.047
'0:16.997',0.03
'0:17.000',0.02
'0:17.003',0.017
'0:17.006',0.01
'0:17.008',0.02
'0:17.011',0.04
'0:17.014',0.057
'0:17.017',0.07
'0:17.019',0.073
'0:17.022',0.05
'0:17.025',0.023
'0:17.028',0.003
'0:17.031',0
'0:17.033',0.023
'0:17.036',0.077
'0:17.039',0.143
'0:17.042',0.17
'0:17.044',0.203
'0:17.047',0.21
'0:17.050',0.217
'0:17.053',0.21
'0:17.056',0.197
'0:17.058',0.187
'0:17.061',0.173
'0:17.064',0.17
'0:17.067',0.157
'0:17.069',0.17
'0:17.072',0.16
'0:17.075',0.147
'0:17.078',0.137
'0:17.081',0.113
'0:17.083',0.14
'0:17.086',0.147
'0:17.089',0.167
'0:17.092',0.163
'0:17.094',0.17
'0:17.097',0.167
'0:17.100',0.157
'0:17.103',0.16
'0:17.106',0.153
'0:17.108',0.17
'0:17.111',0.173
'0:17.114',0.173
'0:17.117',0.18
'0:17.119',0.163
'0:17.122',0.163
'0:17.125',0.157
'0:17.128',0.167
'0:17.131',0.18
'0:17.133',0.18
'0:17.136',0.19
'0:17.139',0.217
'0:17.142',0.237
'0:17.144',0.233
'0:17.147',0.227
'0:17.150',0.21
'0:17.153',0.187
'0:17.156',0.157
'0:17.158',0.127
'0:17.161',0.097
'0:17.164',0.1
'0:17.167',0.08
'0:17.169',0.083
'0:17.172',0.087
'0:17.175',0.093
'0:17.178',0.077
'0:17.181',0.053
'0:17.183',0.05
'0:17.186',0.017
'0:17.189',-0.007
'0:17.192',-0.007
'0:17.194',-0.01
'0:17.197',0.01
'0:17.200',0.037
'0:17.203',0.073
'0:17.206',0.097
'0:17.208',0.113
'0:17.211',0.083
'0:17.214',0.06
'0:17.217',0.017
'0:17.219',-0.013
'0:17.222',-0.03
'0:17.225',-0.037
'0:17.228',-0.04
'0:17.231',-0.033
'0:17.233',-0.02
'0:17.236',-0.007
'0:17.239',0.007
'0:17.242',0.047
'0:17.244',0.087
'0:17.247',0.093
'0:17.250',0.113
'0:17.253',0.11
'0:17.256',0.1
'0:17.258',0.107
'0:17.261',0.117
'0:17.264',0.18
'0:17.267',0.263
'0:17.269',0.4
'0:17.272',0.56
'0:17.275',0.76
'0:17.278',0.987
'0:17.281',1.167
'0:17.283',1.243
'0:17.286',1.18
'0:17.289',0.997
'0:17.292',0.7
'0:17.294',0.387
'0:17.297',0.127
'0:17.300',-0.04
'0:17.303',-0.123
'0:17.306',-0.153
'0:17.308',-0.153
'0:17.311',-0.163
'0:17.314',-0.183
'0:17.317',-0.2
'0:17.319',-0.193
'0:17.322',-0.17
'0:17.325',-0.153
'0:17.328',-0.097
'0:17.331',-0.027
'0:17.333',0.03
'0:17.336',0.08
'0:17.339',0.11
'0:17.342',0.147
'0:17.344',0.147
'0:17.347',0.147
'0:17.350',0.15
'0:17.353',0.14
'0:17.356',0.123
'0:17.358',0.11
'0:17.361',0.1
'0:17.364',0.103
'0:17.367',0.113
'0:17.369',0.13
'0:17.372',0.157
'0:17.375',0.163
'0:17.378',0.183
'0:17.381',0.18
'0:17.383',0.193
'0:17.386',0.207
'0:17.389',0.207
'0:17.392',0.21
'0:17.394',0.203
'0:17.397',0.213
'0:17.400',0.223
'0:17.403',0.23
'0:17.406',0.2
'0:17.408',0.21
'0:17.411',0.217
'0:17.414',0.22
'0:17.417',0.247
'0:17.419',0.253
'0:17.422',0.253
'0:17.425',0.257
'0:17.428',0.25
'0:17.431',0.27
'0:17.433',0.263
'0:17.436',0.277
'0:17.439',0.287
'0:17.442',0.297
'0:17.444',0.293
'0:17.447',0.293
'0:17.450',0.293
'0:17.453',0.287
'0:17.456',0.277
'0:17.458',0.257
'0:17.461',0.253
'0:17.464',0.24
'0:17.467',0.24
'0:17.469',0.26
'0:17.472',0.313
'0:17.475',0.4
'0:17.478',0.507
'0:17.481',0.603
'0:17.483',0.653
'0:17.486',0.64
'0:17.489',0.583
'0:17.492',0.47
'0:17.494',0.35
'0:17.497',0.25
'0:17.500',0.17
'0:17.503',0.163
'0:17.506',0.167
'0:17.508',0.217
'0:17.511',0.28
'0:17.514',0.357
'0:17.517',0.437
'0:17.519',0.513
'0:17.522',0.56
'0:17.525',0.553
'0:17.528',0.52
'0:17.531',0.443
'0:17.533',0.353
'0:17.536',0.29
'0:17.539',0.25
'0:17.542',0.257
'0:17.544',0.297
'0:17.547',0.337
'0:17.550',0.377
'0:17.553',0.4
'0:17.556',0.41
'0:17.558',0.39
'0:17.561',0.367
'0:17.564',0.343
'0:17.567',0.333
'0:17.569',0.35
'0:17.572',0.367
'0:17.575',0.39
'0:17.578',0.427
'0:17.581',0.45
'0:17.583',0.473
'0:17.586',0.483
'0:17.589',0.483
'0:17.592',0.453
'0:17.594',0.427
'0:17.597',0.397
'0:17.600',0.357
'0:17.603',0.34
'0:17.606',0.313
'0:17.608',0.317
'0:17.611',0.323
'0:17.614',0.34
'0:17.617',0.337
'0:17.619',0.317
'0:17.622',0.297
'0:17.625',0.27
'0:17.628',0.25
'0:17.631',0.24
'0:17.633',0.217
'0:17.636',0.227
'0:17.639',0.223
'0:17.642',0.217
'0:17.644',0.23
'0:17.647',0.23
'0:17.650',0.24
'0:17.653',0.227
'0:17.656',0.213
'0:17.658',0.2
'0:17.661',0.193
'0:17.664',0.193
'0:17.667',0.187
'0:17.669',0.19
'0:17.672',0.193
'0:17.675',0.21
'0:17.678',0.23
'0:17.681',0.257
'0:17.683',0.267
'0:17.686',0.267
'0:17.689',0.257
'0:17.692',0.223
'0:17.694',0.227
'0:17.697',0.23
'0:17.700',0.223
'0:17.703',0.25
'0:17.706',0.247
'0:17.708',0.263
'0:17.711',0.277
'0:17.714',0.287
'0:17.717',0.287
'0:17.719',0.263
'0:17.722',0.25
'0:17.725',0.253
'0:17.728',0.283
'0:17.731',0.31
'0:17.733',0.303
'0:17.736',0.303
'0:17.739',0.28
'0:17.742',0.277
'0:17.744',0.277
'0:17.747',0.28
'0:17.750',0.287
'0:17.753',0.287
'0:17.756',0.293
'0:17.758',0.3
'0:17.761',0.28
'0:17.764',0.273
'0:17.767',0.25
'0:17.769',0.243
'0:17.772',0.22
'0:17.775',0.227
'0:17.778',0.22
'0:17.781',0.217
'0:17.783',0.213
'0:17.786',0.193
'0:17.789',0.187
'0:17.792',0.17
'0:17.794',0.157
'0:17.797',0.17
'0:17.800',0.16
'0:17.803',0.18
'0:17.806',0.183
'0:17.808',0.197
'0:17.811',0.187
'0:17.814',0.183
'0:17.817',0.19
'0:17.819',0.177
'0:17.822',0.18
'0:17.825',0.187
'0:17.828',0.203
'0:17.831',0.207
'0:17.833',0.203
'0:17.836',0.21
'0:17.839',0.207
'0:17.842',0.227
'0:17.844',0.227
'0:17.847',0.237
'0:17.850',0.227
'0:17.853',0.223
'0:17.856',0.223
'0:17.858',0.193
'0:17.861',0.187
'0:17.864',0.19
'0:17.867',0.17
'0:17.869',0.163
'0:17.872',0.133
'0:17.875',0.103
'0:17.878',0.06
'0:17.881',0.06
'0:17.883',0.07
'0:17.886',0.07
'0:17.889',0.08
'0:17.892',0.093
'0:17.894',0.093
'0:17.897',0.087
'0:17.900',0.083
'0:17.903',0.073
'0:17.906',0.063
'0:17.908',0.07
'0:17.911',0.077
'0:17.914',0.073
'0:17.917',0.087
'0:17.919',0.093
'0:17.922',0.09
'0:17.925',0.08
'0:17.928',0.073
'0:17.931',0.047
'0:17.933',0.033
'0:17.936',0.037
'0:17.939',0.053
'0:17.942',0.067
'0:17.944',0.083
'0:17.947',0.11
'0:17.950',0.14
'0:17.953',0.133
'0:17.956',0.12
'0:17.958',0.097
'0:17.961',0.1
'0:17.964',0.083
'0:17.967',0.083
'0:17.969',0.107
'0:17.972',0.123
'0:17.975',0.173
'0:17.978',0.193
'0:17.981',0.227
'0:17.983',0.273
'0:17.986',0.347
'0:17.989',0.443
'0:17.992',0.583
'0:17.994',0.78
'0:17.997',1.01
'0:18.000',1.243
'0:18.003',1.393
'0:18.006',1.407
'0:18.008',1.273
'0:18.011',1.013
'0:18.014',0.68
'0:18.017',0.343
'0:18.019',0.05
'0:18.022',-0.123
'0:18.025',-0.2
'0:18.028',-0.2
'0:18.031',-0.173
'0:18.033',-0.153
'0:18.036',-0.133
'0:18.039',-0.15
'0:18.042',-0.137
'0:18.044',-0.143
'0:18.047',-0.117
'0:18.050',-0.053
'0:18.053',-0.007
'0:18.056',0.067
'0:18.058',0.11
'0:18.061',0.133
'0:18.064',0.147
'0:18.067',0.14
'0:18.069',0.133
'0:18.072',0.11
'0:18.075',0.127
'0:18.078',0.107
'0:18.081',0.123
'0:18.083',0.11
'0:18.086',0.11
'0:18.089',0.11
'0:18.092',0.093
'0:18.094',0.103
'0:18.097',0.1
'0:18.100',0.11
'0:18.103',0.12
'0:18.106',0.123
'0:18.108',0.133
'0:18.111',0.133
'0:18.114',0.157
'0:18.117',0.177
'0:18.119',0.163
'0:18.122',0.163
'0:18.125',0.15
'0:18.128',0.15
'0:18.131',0.147
'0:18.133',0.157
'0:18.136',0.157
'0:18.139',0.15
'0:18.142',0.167
'0:18.144',0.16
'0:18.147',0.173
'0:18.150',0.17
'0:18.153',0.16
'0:18.156',0.15
'0:18.158',0.133
'0:18.161',0.133
'0:18.164',0.13
'0:18.167',0.133
'0:18.169',0.157
'0:18.172',0.163
'0:18.175',0.197
'0:18.178',0.203
'0:18.181',0.21
'0:18.183',0.223
'0:18.186',0.233
'0:18.189',0.227
'0:18.192',0.213
'0:18.194',0.213
'0:18.197',0.203
'0:18.200',0.223
'0:18.203',0.237
'0:18.206',0.253
'0:18.208',0.28
'0:18.211',0.287
'0:18.214',0.297
'0:18.217',0.297
'0:18.219',0.28
'0:18.222',0.28
'0:18.225',0.263
'0:18.228',0.283
'0:18.231',0.287
'0:18.233',0.31
'0:18.236',0.32
'0:18.239',0.32
'0:18.242',0.33
'0:18.244',0.34
'0:18.247',0.35
'0:18.250',0.353
'0:18.253',0.343
'0:18.256',0.327
'0:18.258',0.307
'0:18.261',0.293
'0:18.264',0.28
'0:18.267',0.267
'0:18.269',0.27
'0:18.272',0.263
'0:18.275',0.277
'0:18.278',0.28
'0:18.281',0.31
'0:18.283',0.33
'0:18.286',0.35
'0:18.289',0.34
'0:18.292',0.32
'0:18.294',0.297
'0:18.297',0.27
'0:18.300',0.263
'0:18.303',0.273
'0:18.306',0.283
'0:18.308',0.287
'0:18.311',0.28
'0:18.314',0.273
'0:18.317',0.237
'0:18.319',0.237
'0:18.322',0.227
'0:18.325',0.22
'0:18.328',0.22
'0:18.331',0.21
'0:18.333',0.21
'0:18.336',0.217
'0:18.339',0.22
'0:18.342',0.227
'0:18.344',0.217
'0:18.347',0.203
'0:18.350',0.18
'0:18.353',0.147
'0:18.356',0.08
'0:18.358',0.007
'0:18.361',-0.013
'0:18.364',-0.067
'0:18.367',-0.067
'0:18.369',-0.07
'0:18.372',-0.04
'0:18.375',-0.007
'0:18.378',0.02
'0:18.381',0.05
'0:18.383',0.073
'0:18.386',0.093
'0:18.389',0.083
'0:18.392',0.07
'0:18.394',0.053
'0:18.397',0.033
'0:18.400',0.023
'0:18.403',0.017
'0:18.406',0.007
'0:18.408',0
'0:18.411',-0.007
'0:18.414',0.02
'0:18.417',0.057
'0:18.419',0.08
'0:18.422',0.093
'0:18.425',0.087
'0:18.428',0.093
'0:18.431',0.063
'0:18.433',0.073
'0:18.436',0.07
'0:18.439',0.043
'0:18.442',0.033
'0:18.444',0.017
'0:18.447',0.027
'0:18.450',0.027
'0:18.453',0.017
'0:18.456',0.007
'0:18.458',-0.003
'0:18.461',-0.007
'0:18.464',-0.013
'0:18.467',-0.02
'0:18.469',-0.02
'0:18.472',-0.027
'0:18.475',-0.013
'0:18.478',-0.02
'0:18.481',-0.03
'0:18.483',-0.02
'0:18.486',-0.02
'0:18.489',-0.03
'0:18.492',-0.05
'0:18.494',-0.037
'0:18.497',-0.043
'0:18.500',-0.04
'0:18.503',-0.03
'0:18.506',-0.017
'0:18.508',-0.003
'0:18.511',0.007
'0:18.514',0
'0:18.517',0.007
'0:18.519',-0.007
'0:18.522',-0.007
'0:18.525',-0.007
'0:18.528',-0.007
'0:18.531',-0.007
'0:18.533',-0.007
'0:18.536',-0.007
'0:18.539',-0.007
'0:18.542',-0.01
'0:18.544',-0.03
'0:18.547',-0.047
'0:18.550',-0.057
'0:18.553',-0.067
'0:18.556',-0.077
'0:18.558',-0.083
'0:18.561',-0.073
'0:18.564',-0.063
'0:18.567',-0.06
'0:18.569',-0.01
'0:18.572',0.017
'0:18.575',0.047
'0:18.578',0.047
'0:18.581',0.023
'0:18.583',0
'0:18.586',-0.01
'0:18.589',-0.023
'0:18.592',-0.037
'0:18.594',-0.04
'0:18.597',-0.05
'0:18.600',-0.05
'0:18.603',-0.04
'0:18.606',-0.037
'0:18.608',-0.017
'0:18.611',-0.007
'0:18.614',0.04
'0:18.617',0.087
'0:18.619',0.1
'0:18.622',0.1
'0:18.625',0.07
'0:18.628',0.017
'0:18.631',-0.033
'0:18.633',-0.067
'0:18.636',-0.083
'0:18.639',-0.077
'0:18.642',-0.043
'0:18.644',-0.01
'0:18.647',0.057
'0:18.650',0.107
'0:18.653',0.1
'0:18.656',0.08
'0:18.658',0.047
'0:18.661',-0.007
'0:18.664',-0.053
'0:18.667',-0.063
'0:18.669',-0.07
'0:18.672',-0.053
'0:18.675',-0.023
'0:18.678',-0.02
'0:18.681',0
'0:18.683',0.01
'0:18.686',0.01
'0:18.689',-0.013
'0:18.692',-0.067
'0:18.694',-0.107
'0:18.697',-0.113
'0:18.700',-0.107
'0:18.703',-0.09
'0:18.706',-0.067
'0:18.708',-0.02
'0:18.711',0.007
'0:18.714',0.027
'0:18.717',0.03
'0:18.719',0.023
'0:18.722',0.003
'0:18.725',-0.007
'0:18.728',-0.007
'0:18.731',-0.02
'0:18.733',-0.013
'0:18.736',-0.013
'0:18.739',-0.007
'0:18.742',-0.007
'0:18.744',-0.01
'0:18.747',-0.003
'0:18.750',-0.007
'0:18.753',-0.007
'0:18.756',0
'0:18.758',-0.007
'0:18.761',-0.007
'0:18.764',-0.017
'0:18.767',-0.01
'0:18.769',-0.007
'0:18.772',0
'0:18.775',0.013
'0:18.778',0.023
'0:18.781',0.03
'0:18.783',0.037
'0:18.786',0.03
'0:18.789',0.027
'0:18.792',0.033
'0:18.794',0.043
'0:18.797',0.04
'0:18.800',0.04
'0:18.803',0.03
'0:18.806',0.047
'0:18.808',0.08
'0:18.811',0.097
'0:18.814',0.14
'0:18.817',0.187
'0:18.819',0.2
'0:18.822',0.187
'0:18.825',0.147
'0:18.828',0.093
'0:18.831',0.03
'0:18.833',0.007
'0:18.836',0.047
'0:18.839',0.117
'0:18.842',0.247
'0:18.844',0.343
'0:18.847',0.377
'0:18.850',0.31
'0:18.853',0.177
'0:18.856',0.013
'0:18.858',-0.153
'0:18.861',-0.24
'0:18.864',-0.27
'0:18.867',-0.227
'0:18.869',-0.16
'0:18.872',-0.09
'0:18.875',-0.013
'0:18.878',0.003
'0:18.881',-0.007
'0:18.883',-0.013
'0:18.886',-0.033
'0:18.889',-0.057
'0:18.892',-0.1
'0:18.894',-0.107
'0:18.897',-0.093
'0:18.900',-0.08
'0:18.903',-0.08
'0:18.906',-0.07
'0:18.908',-0.057
'0:18.911',-0.057
'0:18.914',-0.057
'0:18.917',-0.06
'0:18.919',-0.06
'0:18.922',-0.067
'0:18.925',-0.05
'0:18.928',-0.037
'0:18.931',-0.027
'0:18.933',-0.013
'0:18.936',-0.007
'0:18.939',-0.017
'0:18.942',-0.007
'0:18.944',-0.007
'0:18.947',0.007
'0:18.950',0.003
'0:18.953',0.017
'0:18.956',0.01
'0:18.958',0.02
'0:18.961',0.023
'0:18.964',0.023
'0:18.967',0.027
'0:18.969',0.037
'0:18.972',0.077
'0:18.975',0.147
'0:18.978',0.257
'0:18.981',0.39
'0:18.983',0.54
'0:18.986',0.743
'0:18.989',0.963
'0:18.992',1.19
'0:18.994',1.4
'0:18.997',1.51
'0:19.000',1.487
'0:19.003',1.313
'0:19.006',1.003
'0:19.008',0.63
'0:19.011',0.233
'0:19.014',-0.057
'0:19.017',-0.237
'0:19.019',-0.277
'0:19.022',-0.253
'0:19.025',-0.213
'0:19.028',-0.2
'0:19.031',-0.223
'0:19.033',-0.247
'0:19.036',-0.263
'0:19.039',-0.247
'0:19.042',-0.18
'0:19.044',-0.107
'0:19.047',-0.02
'0:19.050',0.023
'0:19.053',0.047
'0:19.056',0.07
'0:19.058',0.08
'0:19.061',0.07
'0:19.064',0.053
'0:19.067',0.06
'0:19.069',0.07
'0:19.072',0.057
'0:19.075',0.053
'0:19.078',0.047
'0:19.081',0.057
'0:19.083',0.063
'0:19.086',0.06
'0:19.089',0.063
'0:19.092',0.07
'0:19.094',0.063
'0:19.097',0.047
'0:19.100',0.063
'0:19.103',0.073
'0:19.106',0.073
'0:19.108',0.083
'0:19.111',0.093
'0:19.114',0.1
'0:19.117',0.1
'0:19.119',0.123
'0:19.122',0.133
'0:19.125',0.153
'0:19.128',0.187
'0:19.131',0.187
'0:19.133',0.183
'0:19.136',0.157
'0:19.139',0.12
'0:19.142',0.117
'0:19.144',0.163
'0:19.147',0.193
'0:19.150',0.23
'0:19.153',0.24
'0:19.156',0.227
'0:19.158',0.163
'0:19.161',0.1
'0:19.164',0.017
'0:19.167',-0.023
'0:19.169',-0.077
'0:19.172',-0.077
'0:19.175',-0.03
'0:19.178',0.007
'0:19.181',0.063
'0:19.183',0.123
'0:19.186',0.157
'0:19.189',0.153
'0:19.192',0.147
'0:19.194',0.14
'0:19.197',0.123
'0:19.200',0.137
'0:19.203',0.143
'0:19.206',0.15
'0:19.208',0.17
'0:19.211',0.17
'0:19.214',0.167
'0:19.217',0.167
'0:19.219',0.167
'0:19.222',0.18
'0:19.225',0.187
'0:19.228',0.2
'0:19.231',0.227
'0:19.233',0.25
'0:19.236',0.27
'0:19.239',0.273
'0:19.242',0.273
'0:19.244',0.25
'0:19.247',0.253
'0:19.250',0.273
'0:19.253',0.31
'0:19.256',0.333
'0:19.258',0.35
'0:19.261',0.35
'0:19.264',0.333
'0:19.267',0.34
'0:19.269',0.36
'0:19.272',0.37
'0:19.275',0.39
'0:19.278',0.397
'0:19.281',0.39
'0:19.283',0.373
'0:19.286',0.343
'0:19.289',0.333
'0:19.292',0.32
'0:19.294',0.313
'0:19.297',0.297
'0:19.300',0.29
'0:19.303',0.287
'0:19.306',0.273
'0:19.308',0.26
'0:19.311',0.25
'0:19.314',0.263
'0:19.317',0.263
'0:19.319',0.263
'0:19.322',0.25
'0:19.325',0.233
'0:19.328',0.223
'0:19.331',0.21
'0:19.333',0.197
'0:19.336',0.187
'0:19.339',0.18
'0:19.342',0.17
'0:19.344',0.173
'0:19.347',0.187
'0:19.350',0.18
'0:19.353',0.18
'0:19.356',0.15
'0:19.358',0.117
'0:19.361',0.087
'0:19.364',0.07
'0:19.367',0.05
'0:19.369',0.04
'0:19.372',0.04
'0:19.375',0.063
'0:19.378',0.07
'0:19.381',0.1
'0:19.383',0.123
'0:19.386',0.117
'0:19.389',0.103
'0:19.392',0.09
'0:19.394',0.063
'0:19.397',0.047
'0:19.400',0.057
'0:19.403',0.06
'0:19.406',0.07
'0:19.408',0.087
'0:19.411',0.083
'0:19.414',0.087
'0:19.417',0.097
'0:19.419',0.1
'0:19.422',0.087
'0:19.425',0.1
'0:19.428',0.1
'0:19.431',0.11
'0:19.433',0.14
'0:19.436',0.147
'0:19.439',0.163
'0:19.442',0.17
'0:19.444',0.143
'0:19.447',0.14
'0:19.450',0.117
'0:19.453',0.12
'0:19.456',0.11
'0:19.458',0.107
'0:19.461',0.117
'0:19.464',0.077
'0:19.467',0.057
'0:19.469',0.04
'0:19.472',0.033
'0:19.475',0.04
'0:19.478',0.053
'0:19.481',0.07
'0:19.483',0.09
'0:19.486',0.103
'0:19.489',0.117
'0:19.492',0.123
'0:19.494',0.15
'0:19.497',0.163
'0:19.500',0.17
'0:19.503',0.137
'0:19.506',0.133
'0:19.508',0.097
'0:19.511',0.03
'0:19.514',-0.037
'0:19.517',-0.117
'0:19.519',-0.137
'0:19.522',-0.133
'0:19.525',-0.1
'0:19.528',-0.06
'0:19.531',-0.053
'0:19.533',-0.05
'0:19.536',-0.053
'0:19.539',-0.07
'0:19.542',-0.067
'0:19.544',-0.063
'0:19.547',-0.05
'0:19.550',-0.053
'0:19.553',-0.037
'0:19.556',-0.053
'0:19.558',-0.063
'0:19.561',-0.073
'0:19.564',-0.09
'0:19.567',-0.1
'0:19.569',-0.107
'0:19.572',-0.1
'0:19.575',-0.077
'0:19.578',-0.067
'0:19.581',-0.02
'0:19.583',0.003
'0:19.586',0.03
'0:19.589',0.02
'0:19.592',-0.003
'0:19.594',-0.02
'0:19.597',-0.047
'0:19.600',-0.053
'0:19.603',-0.067
'0:19.606',-0.043
'0:19.608',-0.02
'0:19.611',0.017
'0:19.614',0.03
'0:19.617',0.017
'0:19.619',-0.003
'0:19.622',-0.02
'0:19.625',-0.02
'0:19.628',-0.037
'0:19.631',-0.037
'0:19.633',-0.02
'0:19.636',0.003
'0:19.639',0.053
'0:19.642',0.133
'0:19.644',0.21
'0:19.647',0.273
'0:19.650',0.287
'0:19.653',0.273
'0:19.656',0.233
'0:19.658',0.18
'0:19.661',0.123
'0:19.664',0.073
'0:19.667',0.04
'0:19.669',0.013
'0:19.672',0.003
