'0:00.000',0.923
'0:00.003',0.943
'0:00.006',0.943
'0:00.008',0.943
'0:00.011',0.947
'0:00.014',0.94
'0:00.017',0.94
'0:00.019',0.933
'0:00.022',0.923
'0:00.025',0.937
'0:00.028',0.94
'0:00.031',0.95
'0:00.033',0.953
'0:00.036',0.947
'0:00.039',0.947
'0:00.042',0.947
'0:00.044',0.943
'0:00.047',0.933
'0:00.050',0.937
'0:00.053',0.947
'0:00.056',0.963
'0:00.058',0.99
'0:00.061',1.007
'0:00.064',1.013
'0:00.067',1.027
'0:00.069',1.027
'0:00.072',1.033
'0:00.075',1.033
'0:00.078',1.033
'0:00.081',1.037
'0:00.083',1.047
'0:00.086',1.057
'0:00.089',1.07
'0:00.092',1.08
'0:00.094',1.103
'0:00.097',1.103
'0:00.100',1.103
'0:00.103',1.087
'0:00.106',1.08
'0:00.108',1.063
'0:00.111',1.037
'0:00.114',1.017
'0:00.117',0.993
'0:00.119',0.983
'0:00.122',0.98
'0:00.125',0.967
'0:00.128',0.97
'0:00.131',0.96
'0:00.133',0.963
'0:00.136',0.953
'0:00.139',0.937
'0:00.142',0.923
'0:00.144',0.893
'0:00.147',0.887
'0:00.150',0.887
'0:00.153',0.887
'0:00.156',0.887
'0:00.158',0.887
'0:00.161',0.887
'0:00.164',0.883
'0:00.167',0.893
'0:00.169',0.9
'0:00.172',0.887
'0:00.175',0.89
'0:00.178',0.887
'0:00.181',0.89
'0:00.183',0.877
'0:00.186',0.873
'0:00.189',0.863
'0:00.192',0.857
'0:00.194',0.853
'0:00.197',0.85
'0:00.200',0.85
'0:00.203',0.857
'0:00.206',0.85
'0:00.208',0.857
'0:00.211',0.84
'0:00.214',0.817
'0:00.217',0.793
'0:00.219',0.753
'0:00.222',0.703
'0:00.225',0.647
'0:00.228',0.59
'0:00.231',0.51
'0:00.233',0.417
'0:00.236',0.317
'0:00.239',0.22
'0:00.242',0.127
'0:00.244',0.043
'0:00.247',-0.063
'0:00.250',-0.147
'0:00.253',-0.233
'0:00.256',-0.297
'0:00.258',-0.32
'0:00.261',-0.3
'0:00.264',-0.24
'0:00.267',-0.157
'0:00.269',-0.053
'0:00.272',0.053
'0:00.275',0.147
'0:00.278',0.23
'0:00.281',0.293
'0:00.283',0.367
'0:00.286',0.45
'0:00.289',0.553
'0:00.292',0.693
'0:00.294',0.823
'0:00.297',0.94
'0:00.300',1.017
'0:00.303',1.06
'0:00.306',1.087
'0:00.308',1.087
'0:00.311',1.063
'0:00.314',1.05
'0:00.317',1.04
'0:00.319',1.023
'0:00.322',1.017
'0:00.325',1.05
'0:00.328',1.073
'0:00.331',1.097
'0:00.333',1.12
'0:00.336',1.12
'0:00.339',1.14
'0:00.342',1.15
'0:00.344',1.16
'0:00.347',1.163
'0:00.350',1.167
'0:00.353',1.173
'0:00.356',1.167
'0:00.358',1.177
'0:00.361',1.177
'0:00.364',1.18
'0:00.367',1.19
'0:00.369',1.19
'0:00.372',1.183
'0:00.375',1.17
'0:00.378',1.167
'0:00.381',1.157
'0:00.383',1.15
'0:00.386',1.143
'0:00.389',1.147
'0:00.392',1.157
'0:00.394',1.173
'0:00.397',1.183
'0:00.400',1.203
'0:00.403',1.227
'0:00.406',1.24
'0:00.408',1.24
'0:00.411',1.237
'0:00.414',1.237
'0:00.417',1.213
'0:00.419',1.203
'0:00.422',1.21
'0:00.425',1.213
'0:00.428',1.22
'0:00.431',1.223
'0:00.433',1.227
'0:00.436',1.227
'0:00.439',1.22
'0:00.442',1.22
'0:00.444',1.2
'0:00.447',1.197
'0:00.450',1.193
'0:00.453',1.197
'0:00.456',1.197
'0:00.458',1.197
'0:00.461',1.203
'0:00.464',1.213
'0:00.467',1.217
'0:00.469',1.213
'0:00.472',1.22
'0:00.475',1.217
'0:00.478',1.203
'0:00.481',1.203
'0:00.483',1.21
'0:00.486',1.203
'0:00.489',1.2
'0:00.492',1.203
'0:00.494',1.21
'0:00.497',1.213
'0:00.500',1.213
'0:00.503',1.213
'0:00.506',1.207
'0:00.508',1.203
'0:00.511',1.19
'0:00.514',1.177
'0:00.517',1.18
'0:00.519',1.17
'0:00.522',1.177
'0:00.525',1.17
'0:00.528',1.173
'0:00.531',1.183
'0:00.533',1.18
'0:00.536',1.19
'0:00.539',1.183
'0:00.542',1.197
'0:00.544',1.187
'0:00.547',1.167
'0:00.550',1.167
'0:00.553',1.147
'0:00.556',1.143
'0:00.558',1.143
'0:00.561',1.14
'0:00.564',1.153
'0:00.567',1.163
'0:00.569',1.183
'0:00.572',1.183
'0:00.575',1.173
'0:00.578',1.167
'0:00.581',1.153
'0:00.583',1.137
'0:00.586',1.123
'0:00.589',1.107
'0:00.592',1.113
'0:00.594',1.113
'0:00.597',1.117
'0:00.600',1.133
'0:00.603',1.143
'0:00.606',1.147
'0:00.608',1.143
'0:00.611',1.15
'0:00.614',1.14
'0:00.617',1.127
'0:00.619',1.127
'0:00.622',1.117
'0:00.625',1.103
'0:00.628',1.093
'0:00.631',1.097
'0:00.633',1.107
'0:00.636',1.113
'0:00.639',1.127
'0:00.642',1.127
'0:00.644',1.11
'0:00.647',1.087
'0:00.650',1.067
'0:00.653',1.04
'0:00.656',1.033
'0:00.658',1.047
'0:00.661',1.05
'0:00.664',1.067
'0:00.667',1.08
'0:00.669',1.073
'0:00.672',1.067
'0:00.675',1.057
'0:00.678',1.04
'0:00.681',1.037
'0:00.683',1.033
'0:00.686',1.033
'0:00.689',1.04
'0:00.692',1.04
'0:00.694',1.047
'0:00.697',1.057
'0:00.700',1.057
'0:00.703',1.053
'0:00.706',1.04
'0:00.708',1.027
'0:00.711',1.003
'0:00.714',0.997
'0:00.717',0.993
'0:00.719',1.003
'0:00.722',0.997
'0:00.725',1.003
'0:00.728',1.007
'0:00.731',1.01
'0:00.733',1.017
'0:00.736',1.027
'0:00.739',1.03
'0:00.742',1.047
'0:00.744',1.047
'0:00.747',1.05
'0:00.750',1.033
'0:00.753',1.02
'0:00.756',1.017
'0:00.758',1.02
'0:00.761',1.033
'0:00.764',1.033
'0:00.767',1.043
'0:00.769',1.05
'0:00.772',1.067
'0:00.775',1.097
'0:00.778',1.107
'0:00.781',1.123
'0:00.783',1.133
'0:00.786',1.13
'0:00.789',1.127
'0:00.792',1.11
'0:00.794',1.113
'0:00.797',1.11
'0:00.800',1.11
'0:00.803',1.127
'0:00.806',1.123
'0:00.808',1.137
'0:00.811',1.123
'0:00.814',1.1
'0:00.817',1.077
'0:00.819',1.037
'0:00.822',1.01
'0:00.825',0.987
'0:00.828',0.977
'0:00.831',0.98
'0:00.833',0.98
'0:00.836',0.987
'0:00.839',0.97
'0:00.842',0.957
'0:00.844',0.95
'0:00.847',0.94
'0:00.850',0.933
'0:00.853',0.933
'0:00.856',0.94
'0:00.858',0.947
'0:00.861',0.97
'0:00.864',0.977
'0:00.867',0.97
'0:00.869',0.953
'0:00.872',0.937
'0:00.875',0.94
'0:00.878',0.917
'0:00.881',0.907
'0:00.883',0.91
'0:00.886',0.9
'0:00.889',0.9
'0:00.892',0.91
'0:00.894',0.917
'0:00.897',0.94
'0:00.900',0.94
'0:00.903',0.943
'0:00.906',0.933
'0:00.908',0.917
'0:00.911',0.917
'0:00.914',0.9
'0:00.917',0.91
'0:00.919',0.917
'0:00.922',0.91
'0:00.925',0.907
'0:00.928',0.9
'0:00.931',0.9
'0:00.933',0.9
'0:00.936',0.893
'0:00.939',0.893
'0:00.942',0.887
'0:00.944',0.86
'0:00.947',0.813
'0:00.950',0.747
'0:00.953',0.67
'0:00.956',0.573
'0:00.958',0.487
'0:00.961',0.403
'0:00.964',0.317
'0:00.967',0.24
'0:00.969',0.147
'0:00.972',0.04
'0:00.975',-0.073
'0:00.978',-0.193
'0:00.981',-0.3
'0:00.983',-0.397
'0:00.986',-0.447
'0:00.989',-0.46
'0:00.992',-0.403
'0:00.994',-0.293
'0:00.997',-0.177
'0:01.000',-0.053
'0:01.003',0.053
'0:01.006',0.147
'0:01.008',0.223
'0:01.011',0.26
'0:01.014',0.327
'0:01.017',0.373
'0:01.019',0.443
'0:01.022',0.543
'0:01.025',0.67
'0:01.028',0.8
'0:01.031',0.927
'0:01.033',1.02
'0:01.036',1.06
'0:01.039',1.097
'0:01.042',1.097
'0:01.044',1.1
'0:01.047',1.107
'0:01.050',1.11
'0:01.053',1.133
'0:01.056',1.143
'0:01.058',1.143
'0:01.061',1.173
'0:01.064',1.19
'0:01.067',1.203
'0:01.069',1.213
'0:01.072',1.22
'0:01.075',1.233
'0:01.078',1.227
'0:01.081',1.237
'0:01.083',1.23
'0:01.086',1.22
'0:01.089',1.213
'0:01.092',1.207
'0:01.094',1.213
'0:01.097',1.22
'0:01.100',1.233
'0:01.103',1.24
'0:01.106',1.233
'0:01.108',1.237
'0:01.111',1.237
'0:01.114',1.23
'0:01.117',1.237
'0:01.119',1.23
'0:01.122',1.243
'0:01.125',1.253
'0:01.128',1.273
'0:01.131',1.277
'0:01.133',1.277
'0:01.136',1.28
'0:01.139',1.267
'0:01.142',1.29
'0:01.144',1.297
'0:01.147',1.297
'0:01.150',1.293
'0:01.153',1.283
'0:01.156',1.277
'0:01.158',1.267
'0:01.161',1.257
'0:01.164',1.267
'0:01.167',1.283
'0:01.169',1.293
'0:01.172',1.303
'0:01.175',1.303
'0:01.178',1.297
'0:01.181',1.283
'0:01.183',1.287
'0:01.186',1.277
'0:01.189',1.283
'0:01.192',1.287
'0:01.194',1.29
'0:01.197',1.307
'0:01.200',1.323
'0:01.203',1.333
'0:01.206',1.333
'0:01.208',1.33
'0:01.211',1.323
'0:01.214',1.317
'0:01.217',1.32
'0:01.219',1.32
'0:01.222',1.32
'0:01.225',1.32
'0:01.228',1.32
'0:01.231',1.323
'0:01.233',1.323
'0:01.236',1.32
'0:01.239',1.327
'0:01.242',1.303
'0:01.244',1.29
'0:01.247',1.29
'0:01.250',1.29
'0:01.253',1.293
'0:01.256',1.293
'0:01.258',1.327
'0:01.261',1.333
'0:01.264',1.33
'0:01.267',1.33
'0:01.269',1.327
'0:01.272',1.327
'0:01.275',1.323
'0:01.278',1.323
'0:01.281',1.32
'0:01.283',1.33
'0:01.286',1.333
'0:01.289',1.337
'0:01.292',1.363
'0:01.294',1.377
'0:01.297',1.387
'0:01.300',1.39
'0:01.303',1.383
'0:01.306',1.383
'0:01.308',1.373
'0:01.311',1.367
'0:01.314',1.363
'0:01.317',1.357
'0:01.319',1.353
'0:01.322',1.343
'0:01.325',1.347
'0:01.328',1.36
'0:01.331',1.363
'0:01.333',1.37
'0:01.336',1.373
'0:01.339',1.367
'0:01.342',1.363
'0:01.344',1.353
'0:01.347',1.36
'0:01.350',1.343
'0:01.353',1.343
'0:01.356',1.34
'0:01.358',1.353
'0:01.361',1.343
'0:01.364',1.33
'0:01.367',1.33
'0:01.369',1.32
'0:01.372',1.323
'0:01.375',1.313
'0:01.378',1.293
'0:01.381',1.28
'0:01.383',1.25
'0:01.386',1.223
'0:01.389',1.21
'0:01.392',1.207
'0:01.394',1.203
'0:01.397',1.197
'0:01.400',1.203
'0:01.403',1.19
'0:01.406',1.167
'0:01.408',1.17
'0:01.411',1.157
'0:01.414',1.143
'0:01.417',1.133
'0:01.419',1.12
'0:01.422',1.107
'0:01.425',1.11
'0:01.428',1.107
'0:01.431',1.1
'0:01.433',1.107
'0:01.436',1.097
'0:01.439',1.083
'0:01.442',1.077
'0:01.444',1.047
'0:01.447',1.03
'0:01.450',1.03
'0:01.453',1.01
'0:01.456',1.01
'0:01.458',1.013
'0:01.461',1.027
'0:01.464',1.023
'0:01.467',1.03
'0:01.469',1.047
'0:01.472',1.04
'0:01.475',1.04
'0:01.478',1.01
'0:01.481',1.003
'0:01.483',1.01
'0:01.486',0.993
'0:01.489',0.987
'0:01.492',0.973
'0:01.494',0.977
'0:01.497',1.003
'0:01.500',0.997
'0:01.503',1.003
'0:01.506',1.01
'0:01.508',1.01
'0:01.511',0.993
'0:01.514',0.987
'0:01.517',0.977
'0:01.519',0.963
'0:01.522',0.963
'0:01.525',0.97
'0:01.528',0.97
'0:01.531',0.987
'0:01.533',0.987
'0:01.536',1
'0:01.539',1
'0:01.542',0.987
'0:01.544',0.987
'0:01.547',0.98
'0:01.550',0.973
'0:01.553',0.983
'0:01.556',0.987
'0:01.558',0.983
'0:01.561',0.993
'0:01.564',1.003
'0:01.567',1
'0:01.569',1.003
'0:01.572',1.007
'0:01.575',1.003
'0:01.578',0.987
'0:01.581',0.963
'0:01.583',0.97
'0:01.586',0.967
'0:01.589',0.957
'0:01.592',0.967
'0:01.594',0.957
'0:01.597',0.973
'0:01.600',0.987
'0:01.603',0.99
'0:01.606',0.993
'0:01.608',0.99
'0:01.611',0.977
'0:01.614',0.967
'0:01.617',0.963
'0:01.619',0.96
'0:01.622',0.95
'0:01.625',0.97
'0:01.628',0.98
'0:01.631',0.977
'0:01.633',0.987
'0:01.636',0.987
'0:01.639',0.987
'0:01.642',0.98
'0:01.644',0.967
'0:01.647',0.96
'0:01.650',0.957
'0:01.653',0.963
'0:01.656',0.957
'0:01.658',0.963
'0:01.661',0.97
'0:01.664',0.977
'0:01.667',0.98
'0:01.669',0.977
'0:01.672',0.987
'0:01.675',0.983
'0:01.678',0.973
'0:01.681',0.973
'0:01.683',0.963
'0:01.686',0.97
'0:01.689',0.97
'0:01.692',0.963
'0:01.694',0.963
'0:01.697',0.983
'0:01.700',0.987
'0:01.703',0.983
'0:01.706',0.983
'0:01.708',1.003
'0:01.711',0.99
'0:01.714',0.99
'0:01.717',0.98
'0:01.719',0.967
'0:01.722',0.97
'0:01.725',0.963
'0:01.728',0.967
'0:01.731',0.98
'0:01.733',0.993
'0:01.736',0.997
'0:01.739',0.993
'0:01.742',1.003
'0:01.744',0.993
'0:01.747',0.99
'0:01.750',0.987
'0:01.753',0.963
'0:01.756',0.977
'0:01.758',0.977
'0:01.761',0.98
'0:01.764',0.993
'0:01.767',1.003
'0:01.769',1.017
'0:01.772',1.013
'0:01.775',1.013
'0:01.778',1
'0:01.781',0.993
'0:01.783',0.987
'0:01.786',0.97
'0:01.789',0.97
'0:01.792',0.97
'0:01.794',0.977
'0:01.797',0.987
'0:01.800',0.987
'0:01.803',1.003
'0:01.806',1.003
'0:01.808',1
'0:01.811',0.987
'0:01.814',0.98
'0:01.817',0.977
'0:01.819',0.977
'0:01.822',0.98
'0:01.825',0.987
'0:01.828',0.993
'0:01.831',1.01
'0:01.833',1.017
'0:01.836',1.013
'0:01.839',1.01
'0:01.842',1.01
'0:01.844',0.993
'0:01.847',0.99
'0:01.850',0.993
'0:01.853',0.987
'0:01.856',0.98
'0:01.858',0.98
'0:01.861',0.98
'0:01.864',0.99
'0:01.867',1
'0:01.869',1
'0:01.872',1.007
'0:01.875',1.007
'0:01.878',1.003
'0:01.881',0.993
'0:01.883',0.983
'0:01.886',0.973
'0:01.889',0.963
'0:01.892',0.973
'0:01.894',0.987
'0:01.897',0.99
'0:01.900',0.993
'0:01.903',0.993
'0:01.906',1.007
'0:01.908',0.997
'0:01.911',0.993
'0:01.914',0.98
'0:01.917',0.963
'0:01.919',0.963
'0:01.922',0.963
'0:01.925',0.97
'0:01.928',0.973
'0:01.931',0.98
'0:01.933',0.997
'0:01.936',0.997
'0:01.939',0.993
'0:01.942',0.987
'0:01.944',0.98
'0:01.947',0.987
'0:01.950',0.977
'0:01.953',0.98
'0:01.956',0.96
'0:01.958',0.967
'0:01.961',0.977
'0:01.964',0.98
'0:01.967',0.987
'0:01.969',0.983
'0:01.972',0.98
'0:01.975',0.987
'0:01.978',0.973
'0:01.981',0.97
'0:01.983',0.96
'0:01.986',0.967
'0:01.989',0.967
'0:01.992',0.987
'0:01.994',0.98
'0:01.997',0.97
'0:02.000',0.993
'0:02.003',1
'0:02.006',0.997
'0:02.008',1
'0:02.011',0.98
'0:02.014',0.97
'0:02.017',0.967
'0:02.019',0.963
'0:02.022',0.96
'0:02.025',0.953
'0:02.028',0.957
'0:02.031',0.977
'0:02.033',0.987
'0:02.036',0.987
'0:02.039',0.98
'0:02.042',0.983
'0:02.044',0.98
'0:02.047',0.98
'0:02.050',0.977
'0:02.053',0.96
'0:02.056',0.97
'0:02.058',0.97
'0:02.061',0.987
'0:02.064',0.987
'0:02.067',0.987
'0:02.069',1
'0:02.072',1.003
'0:02.075',1.01
'0:02.078',1
'0:02.081',0.993
'0:02.083',0.997
'0:02.086',0.99
'0:02.089',0.993
'0:02.092',0.993
'0:02.094',0.99
'0:02.097',0.997
'0:02.100',0.993
'0:02.103',1.003
'0:02.106',0.997
'0:02.108',0.993
'0:02.111',0.993
'0:02.114',1.003
'0:02.117',1.017
'0:02.119',1.017
'0:02.122',1.013
'0:02.125',1.017
'0:02.128',1.017
'0:02.131',1.033
'0:02.133',1.05
'0:02.136',1.06
'0:02.139',1.073
'0:02.142',1.08
'0:02.144',1.09
'0:02.147',1.087
'0:02.150',1.107
'0:02.153',1.113
'0:02.156',1.127
'0:02.158',1.147
'0:02.161',1.157
'0:02.164',1.173
'0:02.167',1.17
'0:02.169',1.187
'0:02.172',1.18
'0:02.175',1.183
'0:02.178',1.177
'0:02.181',1.163
'0:02.183',1.157
'0:02.186',1.15
'0:02.189',1.137
'0:02.192',1.14
'0:02.194',1.123
'0:02.197',1.123
'0:02.200',1.113
'0:02.203',1.097
'0:02.206',1.077
'0:02.208',1.033
'0:02.211',0.997
'0:02.214',0.97
'0:02.217',0.947
'0:02.219',0.923
'0:02.222',0.923
'0:02.225',0.927
'0:02.228',0.927
'0:02.231',0.933
'0:02.233',0.94
'0:02.236',0.933
'0:02.239',0.927
'0:02.242',0.91
'0:02.244',0.893
'0:02.247',0.893
'0:02.250',0.887
'0:02.253',0.89
'0:02.256',0.883
'0:02.258',0.883
'0:02.261',0.89
'0:02.264',0.893
'0:02.267',0.907
'0:02.269',0.9
'0:02.272',0.89
'0:02.275',0.877
'0:02.278',0.863
'0:02.281',0.853
'0:02.283',0.83
'0:02.286',0.803
'0:02.289',0.76
'0:02.292',0.71
'0:02.294',0.647
'0:02.297',0.573
'0:02.300',0.48
'0:02.303',0.367
'0:02.306',0.26
'0:02.308',0.163
'0:02.311',0.037
'0:02.314',-0.053
'0:02.317',-0.17
'0:02.319',-0.257
'0:02.322',-0.32
'0:02.325',-0.34
'0:02.328',-0.313
'0:02.331',-0.24
'0:02.333',-0.13
'0:02.336',0
'0:02.339',0.11
'0:02.342',0.223
'0:02.344',0.3
'0:02.347',0.373
'0:02.350',0.433
'0:02.353',0.503
'0:02.356',0.603
'0:02.358',0.713
'0:02.361',0.847
'0:02.364',0.957
'0:02.367',1.033
'0:02.369',1.07
'0:02.372',1.087
'0:02.375',1.09
'0:02.378',1.077
'0:02.381',1.067
'0:02.383',1.067
'0:02.386',1.067
'0:02.389',1.08
'0:02.392',1.1
'0:02.394',1.117
'0:02.397',1.14
'0:02.400',1.143
'0:02.403',1.153
'0:02.406',1.147
'0:02.408',1.15
'0:02.411',1.147
'0:02.414',1.137
'0:02.417',1.143
'0:02.419',1.133
'0:02.422',1.143
'0:02.425',1.153
'0:02.428',1.16
'0:02.431',1.173
'0:02.433',1.173
'0:02.436',1.177
'0:02.439',1.18
'0:02.442',1.18
'0:02.444',1.177
'0:02.447',1.173
'0:02.450',1.17
'0:02.453',1.17
'0:02.456',1.173
'0:02.458',1.18
'0:02.461',1.187
'0:02.464',1.197
'0:02.467',1.193
'0:02.469',1.207
'0:02.472',1.203
'0:02.475',1.2
'0:02.478',1.203
'0:02.481',1.19
'0:02.483',1.187
'0:02.486',1.183
'0:02.489',1.19
'0:02.492',1.197
'0:02.494',1.197
'0:02.497',1.207
'0:02.500',1.2
'0:02.503',1.197
'0:02.506',1.2
'0:02.508',1.19
'0:02.511',1.19
'0:02.514',1.183
'0:02.517',1.18
'0:02.519',1.173
'0:02.522',1.173
'0:02.525',1.18
'0:02.528',1.19
'0:02.531',1.197
'0:02.533',1.193
'0:02.536',1.183
'0:02.539',1.187
'0:02.542',1.18
'0:02.544',1.173
'0:02.547',1.177
'0:02.550',1.153
'0:02.553',1.153
'0:02.556',1.143
'0:02.558',1.153
'0:02.561',1.16
'0:02.564',1.157
'0:02.567',1.157
'0:02.569',1.15
'0:02.572',1.157
'0:02.575',1.143
'0:02.578',1.127
'0:02.581',1.123
'0:02.583',1.1
'0:02.586',1.11
'0:02.589',1.097
'0:02.592',1.097
'0:02.594',1.103
'0:02.597',1.103
'0:02.600',1.12
'0:02.603',1.107
'0:02.606',1.103
'0:02.608',1.1
'0:02.611',1.08
'0:02.614',1.08
'0:02.617',1.073
'0:02.619',1.06
'0:02.622',1.057
'0:02.625',1.053
'0:02.628',1.047
'0:02.631',1.04
'0:02.633',1.04
'0:02.636',1.033
'0:02.639',1.017
'0:02.642',1.003
'0:02.644',1
'0:02.647',0.993
'0:02.650',0.98
'0:02.653',0.97
'0:02.656',0.967
'0:02.658',0.96
'0:02.661',0.97
'0:02.664',0.973
'0:02.667',0.98
'0:02.669',0.97
'0:02.672',0.957
'0:02.675',0.957
'0:02.678',0.937
'0:02.681',0.927
'0:02.683',0.92
'0:02.686',0.92
'0:02.689',0.91
'0:02.692',0.897
'0:02.694',0.9
'0:02.697',0.91
'0:02.700',0.913
'0:02.703',0.91
'0:02.706',0.9
'0:02.708',0.907
'0:02.711',0.887
'0:02.714',0.88
'0:02.717',0.87
'0:02.719',0.863
'0:02.722',0.863
'0:02.725',0.867
'0:02.728',0.87
'0:02.731',0.883
'0:02.733',0.883
'0:02.736',0.887
'0:02.739',0.877
'0:02.742',0.877
'0:02.744',0.863
'0:02.747',0.857
'0:02.750',0.857
'0:02.753',0.847
'0:02.756',0.837
'0:02.758',0.837
'0:02.761',0.833
'0:02.764',0.833
'0:02.767',0.84
'0:02.769',0.847
'0:02.772',0.84
'0:02.775',0.833
'0:02.778',0.83
'0:02.781',0.817
'0:02.783',0.81
'0:02.786',0.807
'0:02.789',0.803
'0:02.792',0.807
'0:02.794',0.817
'0:02.797',0.827
'0:02.800',0.827
'0:02.803',0.83
'0:02.806',0.83
'0:02.808',0.83
'0:02.811',0.82
'0:02.814',0.807
'0:02.817',0.803
'0:02.819',0.797
'0:02.822',0.797
'0:02.825',0.813
'0:02.828',0.817
'0:02.831',0.823
'0:02.833',0.823
'0:02.836',0.833
'0:02.839',0.837
'0:02.842',0.833
'0:02.844',0.827
'0:02.847',0.83
'0:02.850',0.83
'0:02.853',0.847
'0:02.856',0.853
'0:02.858',0.877
'0:02.861',0.893
'0:02.864',0.923
'0:02.867',0.943
'0:02.869',0.957
'0:02.872',0.967
'0:02.875',0.957
'0:02.878',0.95
'0:02.881',0.957
'0:02.883',0.95
'0:02.886',0.96
'0:02.889',0.963
'0:02.892',0.993
'0:02.894',1.01
'0:02.897',1.033
'0:02.900',1.057
'0:02.903',1.067
'0:02.906',1.07
'0:02.908',1.077
'0:02.911',1.073
'0:02.914',1.053
'0:02.917',1.047
'0:02.919',1.05
'0:02.922',1.033
'0:02.925',1.033
'0:02.928',1.033
'0:02.931',1.017
'0:02.933',1.02
'0:02.936',1
'0:02.939',0.997
'0:02.942',0.99
'0:02.944',0.96
'0:02.947',0.94
'0:02.950',0.923
'0:02.953',0.9
'0:02.956',0.887
'0:02.958',0.89
'0:02.961',0.89
'0:02.964',0.893
'0:02.967',0.893
'0:02.969',0.9
'0:02.972',0.893
'0:02.975',0.897
'0:02.978',0.88
'0:02.981',0.867
'0:02.983',0.853
'0:02.986',0.85
'0:02.989',0.83
'0:02.992',0.847
'0:02.994',0.853
'0:02.997',0.863
'0:03.000',0.863
'0:03.003',0.857
'0:03.006',0.847
'0:03.008',0.853
'0:03.011',0.847
'0:03.014',0.837
'0:03.017',0.827
'0:03.019',0.827
'0:03.022',0.84
'0:03.025',0.84
'0:03.028',0.847
'0:03.031',0.853
'0:03.033',0.853
'0:03.036',0.863
'0:03.039',0.85
'0:03.042',0.853
'0:03.044',0.847
'0:03.047',0.827
'0:03.050',0.817
'0:03.053',0.797
'0:03.056',0.777
'0:03.058',0.74
'0:03.061',0.7
'0:03.064',0.643
'0:03.067',0.56
'0:03.069',0.47
'0:03.072',0.357
'0:03.075',0.227
'0:03.078',0.09
'0:03.081',-0.057
'0:03.083',-0.183
'0:03.086',-0.31
'0:03.089',-0.397
'0:03.092',-0.46
'0:03.094',-0.477
'0:03.097',-0.443
'0:03.100',-0.363
'0:03.103',-0.247
'0:03.106',-0.113
'0:03.108',0.003
'0:03.111',0.107
'0:03.114',0.177
'0:03.117',0.243
'0:03.119',0.297
'0:03.122',0.35
'0:03.125',0.417
'0:03.128',0.497
'0:03.131',0.607
'0:03.133',0.723
'0:03.136',0.843
'0:03.139',0.933
'0:03.142',0.987
'0:03.144',1.013
'0:03.147',1.017
'0:03.150',1.02
'0:03.153',1.017
'0:03.156',1.007
'0:03.158',1.017
'0:03.161',1.033
'0:03.164',1.057
'0:03.167',1.073
'0:03.169',1.063
'0:03.172',1.08
'0:03.175',1.097
'0:03.178',1.103
'0:03.181',1.1
'0:03.183',1.097
'0:03.186',1.093
'0:03.189',1.097
'0:03.192',1.12
'0:03.194',1.117
'0:03.197',1.127
'0:03.200',1.137
'0:03.203',1.137
'0:03.206',1.143
'0:03.208',1.137
'0:03.211',1.137
'0:03.214',1.13
'0:03.217',1.12
'0:03.219',1.127
'0:03.222',1.113
'0:03.225',1.12
'0:03.228',1.12
'0:03.231',1.137
'0:03.233',1.16
'0:03.236',1.16
'0:03.239',1.167
'0:03.242',1.17
'0:03.244',1.16
'0:03.247',1.173
'0:03.250',1.18
'0:03.253',1.18
'0:03.256',1.173
'0:03.258',1.17
'0:03.261',1.173
'0:03.264',1.19
'0:03.267',1.21
'0:03.269',1.203
'0:03.272',1.21
'0:03.275',1.21
'0:03.278',1.197
'0:03.281',1.193
'0:03.283',1.177
'0:03.286',1.173
'0:03.289',1.173
'0:03.292',1.177
'0:03.294',1.18
'0:03.297',1.193
'0:03.300',1.197
'0:03.303',1.19
'0:03.306',1.203
'0:03.308',1.203
'0:03.311',1.19
'0:03.314',1.197
'0:03.317',1.19
'0:03.319',1.18
'0:03.322',1.183
'0:03.325',1.193
'0:03.328',1.197
'0:03.331',1.2
'0:03.333',1.2
'0:03.336',1.2
'0:03.339',1.2
'0:03.342',1.2
'0:03.344',1.197
'0:03.347',1.197
'0:03.350',1.187
'0:03.353',1.173
'0:03.356',1.17
'0:03.358',1.163
'0:03.361',1.173
'0:03.364',1.18
'0:03.367',1.18
'0:03.369',1.193
'0:03.372',1.193
'0:03.375',1.207
'0:03.378',1.203
'0:03.381',1.197
'0:03.383',1.203
'0:03.386',1.2
'0:03.389',1.19
'0:03.392',1.19
'0:03.394',1.207
'0:03.397',1.22
'0:03.400',1.233
'0:03.403',1.237
'0:03.406',1.243
'0:03.408',1.24
'0:03.411',1.243
'0:03.414',1.227
'0:03.417',1.23
'0:03.419',1.233
'0:03.422',1.237
'0:03.425',1.237
'0:03.428',1.237
'0:03.431',1.25
'0:03.433',1.243
'0:03.436',1.25
'0:03.439',1.25
'0:03.442',1.243
'0:03.444',1.23
'0:03.447',1.227
'0:03.450',1.233
'0:03.453',1.22
'0:03.456',1.21
'0:03.458',1.217
'0:03.461',1.203
'0:03.464',1.213
'0:03.467',1.213
'0:03.469',1.22
'0:03.472',1.213
'0:03.475',1.207
'0:03.478',1.193
'0:03.481',1.18
'0:03.483',1.157
'0:03.486',1.133
'0:03.489',1.133
'0:03.492',1.12
'0:03.494',1.113
'0:03.497',1.103
'0:03.500',1.103
'0:03.503',1.093
'0:03.506',1.08
'0:03.508',1.067
'0:03.511',1.047
'0:03.514',1.027
'0:03.517',0.993
'0:03.519',0.987
'0:03.522',0.997
'0:03.525',0.99
'0:03.528',0.993
'0:03.531',0.993
'0:03.533',1.003
'0:03.536',0.993
'0:03.539',0.987
'0:03.542',0.973
'0:03.544',0.957
'0:03.547',0.937
'0:03.550',0.917
'0:03.553',0.907
'0:03.556',0.893
'0:03.558',0.9
'0:03.561',0.897
'0:03.564',0.903
'0:03.567',0.897
'0:03.569',0.893
'0:03.572',0.887
'0:03.575',0.877
'0:03.578',0.853
'0:03.581',0.847
'0:03.583',0.833
'0:03.586',0.83
'0:03.589',0.823
'0:03.592',0.83
'0:03.594',0.847
'0:03.597',0.847
'0:03.600',0.86
'0:03.603',0.853
'0:03.606',0.85
'0:03.608',0.84
'0:03.611',0.813
'0:03.614',0.817
'0:03.617',0.807
'0:03.619',0.81
'0:03.622',0.817
'0:03.625',0.823
'0:03.628',0.84
'0:03.631',0.84
'0:03.633',0.847
'0:03.636',0.847
'0:03.639',0.84
'0:03.642',0.84
'0:03.644',0.82
'0:03.647',0.817
'0:03.650',0.807
'0:03.653',0.797
'0:03.656',0.8
'0:03.658',0.8
'0:03.661',0.81
'0:03.664',0.817
'0:03.667',0.817
'0:03.669',0.83
'0:03.672',0.837
'0:03.675',0.84
'0:03.678',0.82
'0:03.681',0.817
'0:03.683',0.807
'0:03.686',0.803
'0:03.689',0.813
'0:03.692',0.813
'0:03.694',0.817
'0:03.697',0.83
'0:03.700',0.827
'0:03.703',0.833
'0:03.706',0.823
'0:03.708',0.83
'0:03.711',0.817
'0:03.714',0.803
'0:03.717',0.807
'0:03.719',0.803
'0:03.722',0.8
'0:03.725',0.803
'0:03.728',0.8
'0:03.731',0.81
'0:03.733',0.807
'0:03.736',0.81
'0:03.739',0.817
'0:03.742',0.817
'0:03.744',0.82
'0:03.747',0.807
'0:03.750',0.81
'0:03.753',0.807
'0:03.756',0.803
'0:03.758',0.807
'0:03.761',0.803
'0:03.764',0.817
'0:03.767',0.817
'0:03.769',0.827
'0:03.772',0.83
'0:03.775',0.823
'0:03.778',0.81
'0:03.781',0.807
'0:03.783',0.8
'0:03.786',0.793
'0:03.789',0.773
'0:03.792',0.793
'0:03.794',0.8
'0:03.797',0.807
'0:03.800',0.813
'0:03.803',0.807
'0:03.806',0.807
'0:03.808',0.793
'0:03.811',0.787
'0:03.814',0.777
'0:03.817',0.77
'0:03.819',0.77
'0:03.822',0.763
'0:03.825',0.777
'0:03.828',0.783
'0:03.831',0.79
'0:03.833',0.8
'0:03.836',0.8
'0:03.839',0.807
'0:03.842',0.803
'0:03.844',0.793
'0:03.847',0.793
'0:03.850',0.77
'0:03.853',0.783
'0:03.856',0.777
'0:03.858',0.78
'0:03.861',0.793
'0:03.864',0.797
'0:03.867',0.797
'0:03.869',0.79
'0:03.872',0.803
'0:03.875',0.8
'0:03.878',0.79
'0:03.881',0.79
'0:03.883',0.783
'0:03.886',0.78
'0:03.889',0.77
'0:03.892',0.77
'0:03.894',0.777
'0:03.897',0.77
'0:03.900',0.777
'0:03.903',0.773
'0:03.906',0.777
'0:03.908',0.78
'0:03.911',0.783
'0:03.914',0.787
'0:03.917',0.783
'0:03.919',0.78
'0:03.922',0.78
'0:03.925',0.777
'0:03.928',0.78
'0:03.931',0.787
'0:03.933',0.787
'0:03.936',0.79
'0:03.939',0.783
'0:03.942',0.793
'0:03.944',0.777
'0:03.947',0.783
'0:03.950',0.777
'0:03.953',0.777
'0:03.956',0.783
'0:03.958',0.783
'0:03.961',0.8
'0:03.964',0.817
'0:03.967',0.827
'0:03.969',0.85
'0:03.972',0.863
'0:03.975',0.867
'0:03.978',0.873
'0:03.981',0.877
'0:03.983',0.863
'0:03.986',0.857
'0:03.989',0.867
'0:03.992',0.863
'0:03.994',0.87
'0:03.997',0.877
'0:04.000',0.907
'0:04.003',0.92
'0:04.006',0.923
'0:04.008',0.95
'0:04.011',0.95
'0:04.014',0.94
'0:04.017',0.94
'0:04.019',0.933
'0:04.022',0.923
'0:04.025',0.917
'0:04.028',0.903
'0:04.031',0.9
'0:04.033',0.887
'0:04.036',0.873
'0:04.039',0.863
'0:04.042',0.857
'0:04.044',0.84
'0:04.047',0.82
'0:04.050',0.807
'0:04.053',0.8
'0:04.056',0.793
'0:04.058',0.79
'0:04.061',0.773
'0:04.064',0.777
'0:04.067',0.77
'0:04.069',0.767
'0:04.072',0.77
'0:04.075',0.747
'0:04.078',0.737
'0:04.081',0.73
'0:04.083',0.727
'0:04.086',0.723
'0:04.089',0.717
'0:04.092',0.73
'0:04.094',0.73
'0:04.097',0.747
'0:04.100',0.757
'0:04.103',0.76
'0:04.106',0.77
'0:04.108',0.76
'0:04.111',0.76
'0:04.114',0.747
'0:04.117',0.74
'0:04.119',0.737
'0:04.122',0.737
'0:04.125',0.73
'0:04.128',0.723
'0:04.131',0.723
'0:04.133',0.723
'0:04.136',0.707
'0:04.139',0.693
'0:04.142',0.653
'0:04.144',0.597
'0:04.147',0.517
'0:04.150',0.43
'0:04.153',0.333
'0:04.156',0.22
'0:04.158',0.113
'0:04.161',0.013
'0:04.164',-0.087
'0:04.167',-0.19
'0:04.169',-0.303
'0:04.172',-0.403
'0:04.175',-0.48
'0:04.178',-0.527
'0:04.181',-0.517
'0:04.183',-0.467
'0:04.186',-0.377
'0:04.189',-0.263
'0:04.192',-0.14
'0:04.194',-0.02
'0:04.197',0.07
'0:04.200',0.163
'0:04.203',0.22
'0:04.206',0.293
'0:04.208',0.39
'0:04.211',0.517
'0:04.214',0.66
'0:04.217',0.78
'0:04.219',0.877
'0:04.222',0.933
'0:04.225',0.947
'0:04.228',0.963
'0:04.231',0.953
'0:04.233',0.947
'0:04.236',0.963
'0:04.239',0.957
'0:04.242',0.98
'0:04.244',0.983
'0:04.247',0.993
'0:04.250',0.997
'0:04.253',1.01
'0:04.256',1.017
'0:04.258',1.023
'0:04.261',1.033
'0:04.264',1.04
'0:04.267',1.047
'0:04.269',1.043
'0:04.272',1.047
'0:04.275',1.06
'0:04.278',1.047
'0:04.281',1.047
'0:04.283',1.04
'0:04.286',1.043
'0:04.289',1.047
'0:04.292',1.04
'0:04.294',1.05
'0:04.297',1.057
'0:04.300',1.063
'0:04.303',1.073
'0:04.306',1.073
'0:04.308',1.08
'0:04.311',1.077
'0:04.314',1.08
'0:04.317',1.08
'0:04.319',1.073
'0:04.322',1.08
'0:04.325',1.087
'0:04.328',1.093
'0:04.331',1.097
'0:04.333',1.107
'0:04.336',1.117
'0:04.339',1.127
'0:04.342',1.127
'0:04.344',1.12
'0:04.347',1.107
'0:04.350',1.103
'0:04.353',1.093
'0:04.356',1.087
'0:04.358',1.093
'0:04.361',1.097
'0:04.364',1.103
'0:04.367',1.103
'0:04.369',1.113
'0:04.372',1.12
'0:04.375',1.107
'0:04.378',1.113
'0:04.381',1.12
'0:04.383',1.113
'0:04.386',1.103
'0:04.389',1.103
'0:04.392',1.107
'0:04.394',1.11
'0:04.397',1.12
'0:04.400',1.12
'0:04.403',1.123
'0:04.406',1.12
'0:04.408',1.11
'0:04.411',1.097
'0:04.414',1.087
'0:04.417',1.073
'0:04.419',1.07
'0:04.422',1.073
'0:04.425',1.07
'0:04.428',1.063
'0:04.431',1.067
'0:04.433',1.06
'0:04.436',1.067
'0:04.439',1.073
'0:04.442',1.067
'0:04.444',1.063
'0:04.447',1.057
'0:04.450',1.053
'0:04.453',1.043
'0:04.456',1.04
'0:04.458',1.053
'0:04.461',1.05
'0:04.464',1.047
'0:04.467',1.053
'0:04.469',1.05
'0:04.472',1.053
'0:04.475',1.043
'0:04.478',1.033
'0:04.481',1.027
'0:04.483',1.01
'0:04.486',1.007
'0:04.489',0.993
'0:04.492',0.993
'0:04.494',0.993
'0:04.497',0.993
'0:04.500',0.993
'0:04.503',0.993
'0:04.506',0.993
'0:04.508',0.997
'0:04.511',0.987
'0:04.514',0.987
'0:04.517',0.98
'0:04.519',0.98
'0:04.522',0.963
'0:04.525',0.97
'0:04.528',0.977
'0:04.531',0.973
'0:04.533',0.98
'0:04.536',0.967
'0:04.539',0.977
'0:04.542',0.98
'0:04.544',0.957
'0:04.547',0.96
'0:04.550',0.95
'0:04.553',0.937
'0:04.556',0.937
'0:04.558',0.933
'0:04.561',0.94
'0:04.564',0.94
'0:04.567',0.933
'0:04.569',0.93
'0:04.572',0.93
'0:04.575',0.94
'0:04.578',0.923
'0:04.581',0.927
'0:04.583',0.917
'0:04.586',0.907
'0:04.589',0.907
'0:04.592',0.9
'0:04.594',0.91
'0:04.597',0.91
'0:04.600',0.903
'0:04.603',0.913
'0:04.606',0.913
'0:04.608',0.91
'0:04.611',0.9
'0:04.614',0.89
'0:04.617',0.883
'0:04.619',0.86
'0:04.622',0.863
'0:04.625',0.86
'0:04.628',0.86
'0:04.631',0.867
'0:04.633',0.853
'0:04.636',0.86
'0:04.639',0.867
'0:04.642',0.867
'0:04.644',0.86
'0:04.647',0.85
'0:04.650',0.853
'0:04.653',0.847
'0:04.656',0.847
'0:04.658',0.847
'0:04.661',0.853
'0:04.664',0.847
'0:04.667',0.847
'0:04.669',0.853
'0:04.672',0.853
'0:04.675',0.857
'0:04.678',0.847
'0:04.681',0.847
'0:04.683',0.847
'0:04.686',0.84
'0:04.689',0.837
'0:04.692',0.833
'0:04.694',0.837
'0:04.697',0.853
'0:04.700',0.85
'0:04.703',0.857
'0:04.706',0.853
'0:04.708',0.85
'0:04.711',0.853
'0:04.714',0.84
'0:04.717',0.843
'0:04.719',0.84
'0:04.722',0.847
'0:04.725',0.853
'0:04.728',0.853
'0:04.731',0.863
'0:04.733',0.87
'0:04.736',0.863
'0:04.739',0.87
'0:04.742',0.867
'0:04.744',0.87
'0:04.747',0.87
'0:04.750',0.863
'0:04.753',0.863
'0:04.756',0.847
'0:04.758',0.86
'0:04.761',0.867
'0:04.764',0.87
'0:04.767',0.877
'0:04.769',0.87
'0:04.772',0.873
'0:04.775',0.87
'0:04.778',0.883
'0:04.781',0.87
'0:04.783',0.873
'0:04.786',0.863
'0:04.789',0.857
'0:04.792',0.87
'0:04.794',0.873
'0:04.797',0.893
'0:04.800',0.9
'0:04.803',0.9
'0:04.806',0.91
'0:04.808',0.9
'0:04.811',0.887
'0:04.814',0.883
'0:04.817',0.877
'0:04.819',0.887
'0:04.822',0.877
'0:04.825',0.893
'0:04.828',0.9
'0:04.831',0.907
'0:04.833',0.923
'0:04.836',0.927
'0:04.839',0.947
'0:04.842',0.957
'0:04.844',0.957
'0:04.847',0.963
'0:04.850',0.963
'0:04.853',0.963
'0:04.856',0.957
'0:04.858',0.963
'0:04.861',0.97
'0:04.864',0.977
'0:04.867',0.993
'0:04.869',1.003
'0:04.872',1.027
'0:04.875',1.037
'0:04.878',1.057
'0:04.881',1.06
'0:04.883',1.05
'0:04.886',1.043
'0:04.889',1.017
'0:04.892',1.01
'0:04.894',1.013
'0:04.897',1.003
'0:04.900',1.003
'0:04.903',0.987
'0:04.906',0.963
'0:04.908',0.957
'0:04.911',0.933
'0:04.914',0.917
'0:04.917',0.9
'0:04.919',0.883
'0:04.922',0.867
'0:04.925',0.853
'0:04.928',0.853
'0:04.931',0.847
'0:04.933',0.847
'0:04.936',0.843
'0:04.939',0.833
'0:04.942',0.84
'0:04.944',0.823
'0:04.947',0.823
'0:04.950',0.82
'0:04.953',0.817
'0:04.956',0.823
'0:04.958',0.813
'0:04.961',0.823
'0:04.964',0.827
'0:04.967',0.83
'0:04.969',0.827
'0:04.972',0.823
'0:04.975',0.813
'0:04.978',0.8
'0:04.981',0.8
'0:04.983',0.8
'0:04.986',0.79
'0:04.989',0.8
'0:04.992',0.803
'0:04.994',0.803
'0:04.997',0.817
'0:05.000',0.817
'0:05.003',0.82
'0:05.006',0.803
'0:05.008',0.79
'0:05.011',0.777
'0:05.014',0.763
'0:05.017',0.737
'0:05.019',0.687
'0:05.022',0.63
'0:05.025',0.553
'0:05.028',0.463
'0:05.031',0.38
'0:05.033',0.263
'0:05.036',0.16
'0:05.039',0.037
'0:05.042',-0.083
'0:05.044',-0.217
'0:05.047',-0.347
'0:05.050',-0.457
'0:05.053',-0.52
'0:05.056',-0.52
'0:05.058',-0.47
'0:05.061',-0.38
'0:05.064',-0.247
'0:05.067',-0.103
'0:05.069',0.02
'0:05.072',0.14
'0:05.075',0.203
'0:05.078',0.28
'0:05.081',0.327
'0:05.083',0.383
'0:05.086',0.463
'0:05.089',0.567
'0:05.092',0.69
'0:05.094',0.817
'0:05.097',0.923
'0:05.100',0.993
'0:05.103',1.027
'0:05.106',1.05
'0:05.108',1.037
'0:05.111',1.027
'0:05.114',1.017
'0:05.117',1.017
'0:05.119',1.017
'0:05.122',1.023
'0:05.125',1.04
'0:05.128',1.043
'0:05.131',1.077
'0:05.133',1.093
'0:05.136',1.097
'0:05.139',1.107
'0:05.142',1.11
'0:05.144',1.11
'0:05.147',1.11
'0:05.150',1.103
'0:05.153',1.113
'0:05.156',1.11
'0:05.158',1.12
'0:05.161',1.133
'0:05.164',1.137
'0:05.167',1.153
'0:05.169',1.15
'0:05.172',1.157
'0:05.175',1.157
'0:05.178',1.14
'0:05.181',1.143
'0:05.183',1.143
'0:05.186',1.14
'0:05.189',1.14
'0:05.192',1.143
'0:05.194',1.163
'0:05.197',1.167
'0:05.200',1.187
'0:05.203',1.18
'0:05.206',1.17
'0:05.208',1.167
'0:05.211',1.17
'0:05.214',1.17
'0:05.217',1.173
'0:05.219',1.167
'0:05.222',1.17
'0:05.225',1.167
'0:05.228',1.18
'0:05.231',1.187
'0:05.233',1.197
'0:05.236',1.2
'0:05.239',1.203
'0:05.242',1.2
'0:05.244',1.18
'0:05.247',1.177
'0:05.250',1.173
'0:05.253',1.17
'0:05.256',1.17
'0:05.258',1.173
'0:05.261',1.18
'0:05.264',1.19
'0:05.267',1.19
'0:05.269',1.197
'0:05.272',1.183
'0:05.275',1.18
'0:05.278',1.173
'0:05.281',1.167
'0:05.283',1.163
'0:05.286',1.143
'0:05.289',1.143
'0:05.292',1.157
'0:05.294',1.167
'0:05.297',1.173
'0:05.300',1.167
'0:05.303',1.173
'0:05.306',1.17
'0:05.308',1.173
'0:05.311',1.167
'0:05.314',1.157
'0:05.317',1.157
'0:05.319',1.147
'0:05.322',1.137
'0:05.325',1.137
'0:05.328',1.14
'0:05.331',1.147
'0:05.333',1.147
'0:05.336',1.157
'0:05.339',1.167
'0:05.342',1.157
'0:05.344',1.157
'0:05.347',1.15
'0:05.350',1.147
'0:05.353',1.15
'0:05.356',1.15
'0:05.358',1.16
'0:05.361',1.167
'0:05.364',1.173
'0:05.367',1.18
'0:05.369',1.197
'0:05.372',1.197
'0:05.375',1.183
'0:05.378',1.173
'0:05.381',1.153
'0:05.383',1.143
'0:05.386',1.143
'0:05.389',1.137
'0:05.392',1.153
'0:05.394',1.163
'0:05.397',1.173
'0:05.400',1.19
'0:05.403',1.19
'0:05.406',1.19
'0:05.408',1.17
'0:05.411',1.167
'0:05.414',1.15
'0:05.417',1.157
'0:05.419',1.16
'0:05.422',1.15
'0:05.425',1.163
'0:05.428',1.16
'0:05.431',1.173
'0:05.433',1.177
'0:05.436',1.17
'0:05.439',1.163
'0:05.442',1.157
'0:05.444',1.143
'0:05.447',1.147
'0:05.450',1.14
'0:05.453',1.127
'0:05.456',1.1
'0:05.458',1.097
'0:05.461',1.1
'0:05.464',1.087
'0:05.467',1.083
'0:05.469',1.087
'0:05.472',1.083
'0:05.475',1.073
'0:05.478',1.05
'0:05.481',1.04
'0:05.483',1.027
'0:05.486',1.017
'0:05.489',1.01
'0:05.492',1.003
'0:05.494',1.007
'0:05.497',1
'0:05.500',1
'0:05.503',0.993
'0:05.506',0.987
'0:05.508',0.98
'0:05.511',0.963
'0:05.514',0.95
'0:05.517',0.94
'0:05.519',0.933
'0:05.522',0.923
'0:05.525',0.927
'0:05.528',0.927
'0:05.531',0.923
'0:05.533',0.933
'0:05.536',0.923
'0:05.539',0.92
'0:05.542',0.927
'0:05.544',0.907
'0:05.547',0.91
'0:05.550',0.89
'0:05.553',0.873
'0:05.556',0.87
'0:05.558',0.863
'0:05.561',0.863
'0:05.564',0.87
'0:05.567',0.89
'0:05.569',0.897
'0:05.572',0.893
'0:05.575',0.9
'0:05.578',0.89
'0:05.581',0.887
'0:05.583',0.88
'0:05.586',0.877
'0:05.589',0.887
'0:05.592',0.88
'0:05.594',0.883
'0:05.597',0.887
'0:05.600',0.893
'0:05.603',0.897
'0:05.606',0.89
'0:05.608',0.903
'0:05.611',0.89
'0:05.614',0.893
'0:05.617',0.887
'0:05.619',0.867
'0:05.622',0.877
'0:05.625',0.863
'0:05.628',0.877
'0:05.631',0.877
'0:05.633',0.88
'0:05.636',0.893
'0:05.639',0.887
'0:05.642',0.893
'0:05.644',0.883
'0:05.647',0.873
'0:05.650',0.877
'0:05.653',0.88
'0:05.656',0.883
'0:05.658',0.887
'0:05.661',0.893
'0:05.664',0.903
'0:05.667',0.907
'0:05.669',0.917
'0:05.672',0.91
'0:05.675',0.91
'0:05.678',0.91
'0:05.681',0.9
'0:05.683',0.89
'0:05.686',0.877
'0:05.689',0.877
'0:05.692',0.873
'0:05.694',0.88
'0:05.697',0.883
'0:05.700',0.877
'0:05.703',0.883
'0:05.706',0.89
'0:05.708',0.887
'0:05.711',0.883
'0:05.714',0.88
'0:05.717',0.88
'0:05.719',0.877
'0:05.722',0.87
'0:05.725',0.87
'0:05.728',0.877
'0:05.731',0.9
'0:05.733',0.903
'0:05.736',0.907
'0:05.739',0.907
'0:05.742',0.893
'0:05.744',0.893
'0:05.747',0.893
'0:05.750',0.893
'0:05.753',0.893
'0:05.756',0.883
'0:05.758',0.887
'0:05.761',0.887
'0:05.764',0.893
'0:05.767',0.9
'0:05.769',0.9
'0:05.772',0.903
'0:05.775',0.9
'0:05.778',0.893
'0:05.781',0.887
'0:05.783',0.88
'0:05.786',0.877
'0:05.789',0.877
'0:05.792',0.877
'0:05.794',0.877
'0:05.797',0.893
'0:05.800',0.91
'0:05.803',0.91
'0:05.806',0.917
'0:05.808',0.917
'0:05.811',0.91
'0:05.814',0.9
'0:05.817',0.89
'0:05.819',0.893
'0:05.822',0.883
'0:05.825',0.887
'0:05.828',0.893
'0:05.831',0.893
'0:05.833',0.893
'0:05.836',0.89
'0:05.839',0.883
'0:05.842',0.887
'0:05.844',0.88
'0:05.847',0.867
'0:05.850',0.853
'0:05.853',0.867
'0:05.856',0.873
'0:05.858',0.88
'0:05.861',0.89
'0:05.864',0.9
'0:05.867',0.907
'0:05.869',0.907
'0:05.872',0.907
'0:05.875',0.9
'0:05.878',0.89
'0:05.881',0.89
'0:05.883',0.87
'0:05.886',0.88
'0:05.889',0.893
'0:05.892',0.897
'0:05.894',0.913
'0:05.897',0.92
'0:05.900',0.913
'0:05.903',0.907
'0:05.906',0.897
'0:05.908',0.89
'0:05.911',0.873
'0:05.914',0.877
'0:05.917',0.873
'0:05.919',0.873
'0:05.922',0.877
'0:05.925',0.877
'0:05.928',0.893
'0:05.931',0.903
'0:05.933',0.91
'0:05.936',0.91
'0:05.939',0.91
'0:05.942',0.91
'0:05.944',0.9
'0:05.947',0.9
'0:05.950',0.9
'0:05.953',0.9
'0:05.956',0.9
'0:05.958',0.893
'0:05.961',0.897
'0:05.964',0.91
'0:05.967',0.923
'0:05.969',0.927
'0:05.972',0.94
'0:05.975',0.94
'0:05.978',0.943
'0:05.981',0.94
'0:05.983',0.947
'0:05.986',0.94
'0:05.989',0.95
'0:05.992',0.957
'0:05.994',0.963
'0:05.997',0.977
'0:06.000',0.97
'0:06.003',0.98
'0:06.006',0.983
'0:06.008',0.983
'0:06.011',0.987
'0:06.014',1.01
'0:06.017',1.037
'0:06.019',1.04
'0:06.022',1.05
'0:06.025',1.05
'0:06.028',1.053
'0:06.031',1.047
'0:06.033',1.033
'0:06.036',1.027
'0:06.039',1.01
'0:06.042',0.993
'0:06.044',0.97
'0:06.047',0.95
'0:06.050',0.937
'0:06.053',0.917
'0:06.056',0.903
'0:06.058',0.897
'0:06.061',0.887
'0:06.064',0.9
'0:06.067',0.9
'0:06.069',0.9
'0:06.072',0.893
'0:06.075',0.877
'0:06.078',0.86
'0:06.081',0.843
'0:06.083',0.833
'0:06.086',0.827
'0:06.089',0.827
'0:06.092',0.84
'0:06.094',0.853
'0:06.097',0.857
'0:06.100',0.87
'0:06.103',0.87
'0:06.106',0.867
'0:06.108',0.853
'0:06.111',0.837
'0:06.114',0.823
'0:06.117',0.81
'0:06.119',0.807
'0:06.122',0.8
'0:06.125',0.817
'0:06.128',0.817
'0:06.131',0.823
'0:06.133',0.83
'0:06.136',0.823
'0:06.139',0.82
'0:06.142',0.803
'0:06.144',0.773
'0:06.147',0.747
'0:06.150',0.69
'0:06.153',0.63
'0:06.156',0.543
'0:06.158',0.45
'0:06.161',0.353
'0:06.164',0.247
'0:06.167',0.147
'0:06.169',0.027
'0:06.172',-0.067
'0:06.175',-0.18
'0:06.178',-0.307
'0:06.181',-0.397
'0:06.183',-0.457
'0:06.186',-0.473
'0:06.189',-0.433
'0:06.192',-0.35
'0:06.194',-0.217
'0:06.197',-0.09
'0:06.200',0.04
'0:06.203',0.163
'0:06.206',0.263
'0:06.208',0.327
'0:06.211',0.39
'0:06.214',0.483
'0:06.217',0.603
'0:06.219',0.743
'0:06.222',0.88
'0:06.225',0.983
'0:06.228',1.057
'0:06.231',1.09
'0:06.233',1.097
'0:06.236',1.08
'0:06.239',1.067
'0:06.242',1.057
'0:06.244',1.047
'0:06.247',1.043
'0:06.250',1.04
'0:06.253',1.04
'0:06.256',1.05
'0:06.258',1.057
'0:06.261',1.08
'0:06.264',1.097
'0:06.267',1.107
'0:06.269',1.12
'0:06.272',1.123
'0:06.275',1.133
'0:06.278',1.123
'0:06.281',1.117
'0:06.283',1.12
'0:06.286',1.127
'0:06.289',1.137
'0:06.292',1.133
'0:06.294',1.14
'0:06.297',1.157
'0:06.300',1.157
'0:06.303',1.167
'0:06.306',1.163
'0:06.308',1.163
'0:06.311',1.163
'0:06.314',1.15
'0:06.317',1.153
'0:06.319',1.143
'0:06.322',1.143
'0:06.325',1.153
'0:06.328',1.153
'0:06.331',1.173
'0:06.333',1.18
'0:06.336',1.19
'0:06.339',1.19
'0:06.342',1.19
'0:06.344',1.19
'0:06.347',1.18
'0:06.350',1.187
'0:06.353',1.18
'0:06.356',1.183
'0:06.358',1.19
'0:06.361',1.197
'0:06.364',1.197
'0:06.367',1.197
'0:06.369',1.19
'0:06.372',1.203
'0:06.375',1.19
'0:06.378',1.183
'0:06.381',1.163
'0:06.383',1.15
'0:06.386',1.157
'0:06.389',1.15
'0:06.392',1.157
'0:06.394',1.16
'0:06.397',1.173
'0:06.400',1.167
'0:06.403',1.173
'0:06.406',1.19
'0:06.408',1.17
'0:06.411',1.15
'0:06.414',1.157
'0:06.417',1.153
'0:06.419',1.153
'0:06.422',1.15
'0:06.425',1.16
'0:06.428',1.157
'0:06.431',1.157
'0:06.433',1.163
'0:06.436',1.16
'0:06.439',1.157
'0:06.442',1.137
'0:06.444',1.137
'0:06.447',1.127
'0:06.450',1.12
'0:06.453',1.113
'0:06.456',1.1
'0:06.458',1.11
'0:06.461',1.107
'0:06.464',1.11
'0:06.467',1.12
'0:06.469',1.113
'0:06.472',1.12
'0:06.475',1.12
'0:06.478',1.113
'0:06.481',1.11
'0:06.483',1.093
'0:06.486',1.093
'0:06.489',1.083
'0:06.492',1.08
'0:06.494',1.08
'0:06.497',1.077
'0:06.500',1.087
'0:06.503',1.083
'0:06.506',1.083
'0:06.508',1.073
'0:06.511',1.057
'0:06.514',1.05
'0:06.517',1.04
'0:06.519',1.037
'0:06.522',1.027
'0:06.525',1.013
'0:06.528',1.03
'0:06.531',1.027
'0:06.533',1.033
'0:06.536',1.033
'0:06.539',1.03
'0:06.542',1.04
'0:06.544',1.023
'0:06.547',1.027
'0:06.550',1.023
'0:06.553',1.003
'0:06.556',1.007
'0:06.558',1.007
'0:06.561',1.01
'0:06.564',1.02
'0:06.567',1.027
'0:06.569',1.027
'0:06.572',1.027
'0:06.575',1.023
'0:06.578',1.003
'0:06.581',0.993
'0:06.583',0.98
'0:06.586',0.963
'0:06.589',0.963
'0:06.592',0.96
'0:06.594',0.953
'0:06.597',0.967
'0:06.600',0.963
'0:06.603',0.963
'0:06.606',0.967
'0:06.608',0.957
'0:06.611',0.953
'0:06.614',0.943
'0:06.617',0.94
'0:06.619',0.943
'0:06.622',0.937
'0:06.625',0.94
'0:06.628',0.937
'0:06.631',0.94
'0:06.633',0.94
'0:06.636',0.943
'0:06.639',0.937
'0:06.642',0.933
'0:06.644',0.917
'0:06.647',0.907
'0:06.650',0.907
'0:06.653',0.893
'0:06.656',0.893
'0:06.658',0.89
'0:06.661',0.89
'0:06.664',0.897
'0:06.667',0.903
'0:06.669',0.903
'0:06.672',0.89
'0:06.675',0.88
'0:06.678',0.887
'0:06.681',0.87
'0:06.683',0.877
'0:06.686',0.877
'0:06.689',0.877
'0:06.692',0.893
'0:06.694',0.893
'0:06.697',0.91
'0:06.700',0.917
'0:06.703',0.917
'0:06.706',0.92
'0:06.708',0.917
'0:06.711',0.92
'0:06.714',0.917
'0:06.717',0.91
'0:06.719',0.9
'0:06.722',0.9
'0:06.725',0.91
'0:06.728',0.91
'0:06.731',0.917
'0:06.733',0.923
'0:06.736',0.92
'0:06.739',0.93
'0:06.742',0.923
'0:06.744',0.92
'0:06.747',0.92
'0:06.750',0.9
'0:06.753',0.917
'0:06.756',0.903
'0:06.758',0.917
'0:06.761',0.927
'0:06.764',0.937
'0:06.767',0.95
'0:06.769',0.95
'0:06.772',0.957
'0:06.775',0.95
'0:06.778',0.933
'0:06.781',0.93
'0:06.783',0.917
'0:06.786',0.937
'0:06.789',0.933
'0:06.792',0.937
'0:06.794',0.943
'0:06.797',0.947
'0:06.800',0.957
'0:06.803',0.957
'0:06.806',0.96
'0:06.808',0.957
'0:06.811',0.937
'0:06.814',0.933
'0:06.817',0.93
'0:06.819',0.923
'0:06.822',0.923
'0:06.825',0.92
'0:06.828',0.933
'0:06.831',0.947
'0:06.833',0.953
'0:06.836',0.957
'0:06.839',0.96
'0:06.842',0.963
'0:06.844',0.953
'0:06.847',0.95
'0:06.850',0.947
'0:06.853',0.943
'0:06.856',0.933
'0:06.858',0.94
'0:06.861',0.953
'0:06.864',0.957
'0:06.867',0.957
'0:06.869',0.963
'0:06.872',0.963
'0:06.875',0.967
'0:06.878',0.957
'0:06.881',0.937
'0:06.883',0.933
'0:06.886',0.927
'0:06.889',0.937
'0:06.892',0.933
'0:06.894',0.937
'0:06.897',0.94
'0:06.900',0.943
'0:06.903',0.957
'0:06.906',0.96
'0:06.908',0.963
'0:06.911',0.953
'0:06.914',0.947
'0:06.917',0.94
'0:06.919',0.933
'0:06.922',0.94
'0:06.925',0.933
'0:06.928',0.94
'0:06.931',0.957
'0:06.933',0.957
'0:06.936',0.98
'0:06.939',0.973
'0:06.942',0.97
'0:06.944',0.963
'0:06.947',0.95
'0:06.950',0.943
'0:06.953',0.933
'0:06.956',0.933
'0:06.958',0.937
'0:06.961',0.94
'0:06.964',0.953
'0:06.967',0.957
'0:06.969',0.963
'0:06.972',0.963
'0:06.975',0.957
'0:06.978',0.957
'0:06.981',0.947
'0:06.983',0.94
'0:06.986',0.943
'0:06.989',0.947
'0:06.992',0.947
'0:06.994',0.947
'0:06.997',0.967
'0:07.000',0.98
'0:07.003',0.977
'0:07.006',0.977
'0:07.008',0.97
'0:07.011',0.97
'0:07.014',0.963
'0:07.017',0.957
'0:07.019',0.953
'0:07.022',0.94
'0:07.025',0.94
'0:07.028',0.937
'0:07.031',0.953
'0:07.033',0.953
'0:07.036',0.96
'0:07.039',0.963
'0:07.042',0.957
'0:07.044',0.953
'0:07.047',0.947
'0:07.050',0.95
'0:07.053',0.947
'0:07.056',0.947
'0:07.058',0.963
'0:07.061',0.967
'0:07.064',0.977
'0:07.067',0.987
'0:07.069',0.983
'0:07.072',0.993
'0:07.075',0.987
'0:07.078',0.987
'0:07.081',0.98
'0:07.083',0.97
'0:07.086',0.963
'0:07.089',0.97
'0:07.092',0.97
'0:07.094',0.983
'0:07.097',0.98
'0:07.100',0.987
'0:07.103',0.98
'0:07.106',0.983
'0:07.108',0.97
'0:07.111',0.96
'0:07.114',0.963
'0:07.117',0.95
'0:07.119',0.94
'0:07.122',0.94
'0:07.125',0.95
'0:07.128',0.963
'0:07.131',0.97
'0:07.133',0.993
'0:07.136',1.003
'0:07.139',1.013
'0:07.142',1.027
'0:07.144',1.033
'0:07.147',1.047
'0:07.150',1.05
'0:07.153',1.057
'0:07.156',1.05
'0:07.158',1.037
'0:07.161',1.043
'0:07.164',1.03
'0:07.167',1.04
'0:07.169',1.057
'0:07.172',1.063
'0:07.175',1.08
'0:07.178',1.093
'0:07.181',1.11
'0:07.183',1.103
'0:07.186',1.113
'0:07.189',1.113
'0:07.192',1.107
'0:07.194',1.103
'0:07.197',1.097
'0:07.200',1.083
'0:07.203',1.073
'0:07.206',1.053
'0:07.208',1.04
'0:07.211',1.01
'0:07.214',1.003
'0:07.217',0.993
'0:07.219',0.973
'0:07.222',0.957
'0:07.225',0.927
'0:07.228',0.917
'0:07.231',0.913
'0:07.233',0.917
'0:07.236',0.913
'0:07.239',0.9
'0:07.242',0.907
'0:07.244',0.893
'0:07.247',0.883
'0:07.250',0.87
'0:07.253',0.853
'0:07.256',0.847
'0:07.258',0.847
'0:07.261',0.85
'0:07.264',0.857
'0:07.267',0.857
'0:07.269',0.867
'0:07.272',0.877
'0:07.275',0.877
'0:07.278',0.867
'0:07.281',0.86
'0:07.283',0.853
'0:07.286',0.847
'0:07.289',0.84
'0:07.292',0.84
'0:07.294',0.84
'0:07.297',0.85
'0:07.300',0.84
'0:07.303',0.833
'0:07.306',0.813
'0:07.308',0.783
'0:07.311',0.743
'0:07.314',0.68
'0:07.317',0.607
'0:07.319',0.497
'0:07.322',0.39
'0:07.325',0.27
'0:07.328',0.153
'0:07.331',0.047
'0:07.333',-0.067
'0:07.336',-0.177
'0:07.339',-0.293
'0:07.342',-0.393
'0:07.344',-0.443
'0:07.347',-0.443
'0:07.350',-0.38
'0:07.353',-0.27
'0:07.356',-0.14
'0:07.358',0.013
'0:07.361',0.147
'0:07.364',0.263
'0:07.367',0.35
'0:07.369',0.437
'0:07.372',0.527
'0:07.375',0.633
'0:07.378',0.747
'0:07.381',0.863
'0:07.383',0.947
'0:07.386',1.01
'0:07.389',1.033
'0:07.392',1.047
'0:07.394',1.05
'0:07.397',1.043
'0:07.400',1.037
'0:07.403',1.033
'0:07.406',1.05
'0:07.408',1.05
'0:07.411',1.063
'0:07.414',1.08
'0:07.417',1.08
'0:07.419',1.087
'0:07.422',1.087
'0:07.425',1.09
'0:07.428',1.103
'0:07.431',1.103
'0:07.433',1.12
'0:07.436',1.113
'0:07.439',1.12
'0:07.442',1.107
'0:07.444',1.107
'0:07.447',1.113
'0:07.450',1.11
'0:07.453',1.107
'0:07.456',1.11
'0:07.458',1.11
'0:07.461',1.107
'0:07.464',1.12
'0:07.467',1.133
'0:07.469',1.137
'0:07.472',1.147
'0:07.475',1.143
'0:07.478',1.147
'0:07.481',1.147
'0:07.483',1.14
'0:07.486',1.137
'0:07.489',1.143
'0:07.492',1.143
'0:07.494',1.153
'0:07.497',1.157
'0:07.500',1.173
'0:07.503',1.167
'0:07.506',1.18
'0:07.508',1.187
'0:07.511',1.173
'0:07.514',1.173
'0:07.517',1.157
'0:07.519',1.143
'0:07.522',1.133
'0:07.525',1.143
'0:07.528',1.147
'0:07.531',1.15
'0:07.533',1.157
'0:07.536',1.17
'0:07.539',1.173
'0:07.542',1.167
'0:07.544',1.157
'0:07.547',1.147
'0:07.550',1.147
'0:07.553',1.14
'0:07.556',1.143
'0:07.558',1.133
'0:07.561',1.15
'0:07.564',1.15
'0:07.567',1.157
'0:07.569',1.153
'0:07.572',1.157
'0:07.575',1.143
'0:07.578',1.14
'0:07.581',1.137
'0:07.583',1.133
'0:07.586',1.12
'0:07.589',1.113
'0:07.592',1.103
'0:07.594',1.103
'0:07.597',1.103
'0:07.600',1.103
'0:07.603',1.107
'0:07.606',1.103
'0:07.608',1.113
'0:07.611',1.11
'0:07.614',1.107
'0:07.617',1.097
'0:07.619',1.093
'0:07.622',1.09
'0:07.625',1.093
'0:07.628',1.08
'0:07.631',1.093
'0:07.633',1.093
'0:07.636',1.093
'0:07.639',1.09
'0:07.642',1.073
'0:07.644',1.067
'0:07.647',1.063
'0:07.650',1.06
'0:07.653',1.043
'0:07.656',1.043
'0:07.658',1.05
'0:07.661',1.043
'0:07.664',1.05
'0:07.667',1.05
'0:07.669',1.047
'0:07.672',1.047
'0:07.675',1.023
'0:07.678',1.027
'0:07.681',1.017
'0:07.683',1.017
'0:07.686',1.02
'0:07.689',1.017
'0:07.692',1.023
'0:07.694',1.027
'0:07.697',1.04
'0:07.700',1.04
'0:07.703',1.04
'0:07.706',1.043
'0:07.708',1.03
'0:07.711',1.033
'0:07.714',1.03
'0:07.717',1.02
'0:07.719',1.017
'0:07.722',1.01
'0:07.725',1.017
'0:07.728',1.013
'0:07.731',1.013
'0:07.733',1.013
'0:07.736',0.993
'0:07.739',1.01
'0:07.742',0.993
'0:07.744',0.983
'0:07.747',0.98
'0:07.750',0.967
'0:07.753',0.97
'0:07.756',0.97
'0:07.758',0.967
'0:07.761',0.973
'0:07.764',0.967
'0:07.767',0.97
'0:07.769',0.963
'0:07.772',0.957
'0:07.775',0.957
'0:07.778',0.94
'0:07.781',0.933
'0:07.783',0.923
'0:07.786',0.913
'0:07.789',0.907
'0:07.792',0.89
'0:07.794',0.893
'0:07.797',0.89
'0:07.800',0.893
'0:07.803',0.893
'0:07.806',0.887
'0:07.808',0.883
'0:07.811',0.86
'0:07.814',0.863
'0:07.817',0.85
'0:07.819',0.843
'0:07.822',0.847
'0:07.825',0.843
'0:07.828',0.84
'0:07.831',0.86
'0:07.833',0.863
'0:07.836',0.863
'0:07.839',0.87
'0:07.842',0.863
'0:07.844',0.847
'0:07.847',0.847
'0:07.850',0.847
'0:07.853',0.837
'0:07.856',0.843
'0:07.858',0.847
'0:07.861',0.86
'0:07.864',0.863
'0:07.867',0.867
'0:07.869',0.873
'0:07.872',0.863
'0:07.875',0.863
'0:07.878',0.847
'0:07.881',0.85
'0:07.883',0.847
'0:07.886',0.833
'0:07.889',0.847
'0:07.892',0.84
'0:07.894',0.85
'0:07.897',0.863
'0:07.900',0.87
'0:07.903',0.887
'0:07.906',0.887
'0:07.908',0.877
'0:07.911',0.88
'0:07.914',0.87
'0:07.917',0.867
'0:07.919',0.87
'0:07.922',0.873
'0:07.925',0.88
'0:07.928',0.887
'0:07.931',0.903
'0:07.933',0.917
'0:07.936',0.917
'0:07.939',0.917
'0:07.942',0.9
'0:07.944',0.9
'0:07.947',0.887
'0:07.950',0.887
'0:07.953',0.883
'0:07.956',0.883
'0:07.958',0.893
'0:07.961',0.893
'0:07.964',0.91
'0:07.967',0.903
'0:07.969',0.907
'0:07.972',0.91
'0:07.975',0.9
'0:07.978',0.897
'0:07.981',0.9
'0:07.983',0.887
'0:07.986',0.893
'0:07.989',0.887
'0:07.992',0.893
'0:07.994',0.9
'0:07.997',0.91
'0:08.000',0.913
'0:08.003',0.913
'0:08.006',0.92
'0:08.008',0.91
'0:08.011',0.903
'0:08.014',0.9
'0:08.017',0.897
'0:08.019',0.9
'0:08.022',0.89
'0:08.025',0.897
'0:08.028',0.897
'0:08.031',0.893
'0:08.033',0.91
'0:08.036',0.897
'0:08.039',0.9
'0:08.042',0.893
'0:08.044',0.887
'0:08.047',0.893
'0:08.050',0.883
'0:08.053',0.887
'0:08.056',0.883
'0:08.058',0.9
'0:08.061',0.91
'0:08.064',0.907
'0:08.067',0.91
'0:08.069',0.9
'0:08.072',0.917
'0:08.075',0.917
'0:08.078',0.9
'0:08.081',0.903
'0:08.083',0.89
'0:08.086',0.9
'0:08.089',0.9
'0:08.092',0.897
'0:08.094',0.9
'0:08.097',0.897
'0:08.100',0.897
'0:08.103',0.89
'0:08.106',0.893
'0:08.108',0.9
'0:08.111',0.877
'0:08.114',0.883
'0:08.117',0.867
'0:08.119',0.867
'0:08.122',0.87
'0:08.125',0.867
'0:08.128',0.877
'0:08.131',0.88
'0:08.133',0.9
'0:08.136',0.903
'0:08.139',0.903
'0:08.142',0.907
'0:08.144',0.903
'0:08.147',0.897
'0:08.150',0.89
'0:08.153',0.893
'0:08.156',0.903
'0:08.158',0.9
'0:08.161',0.91
'0:08.164',0.91
'0:08.167',0.92
'0:08.169',0.92
'0:08.172',0.907
'0:08.175',0.9
'0:08.178',0.893
'0:08.181',0.893
'0:08.183',0.877
'0:08.186',0.87
'0:08.189',0.87
'0:08.192',0.877
'0:08.194',0.887
'0:08.197',0.887
'0:08.200',0.9
'0:08.203',0.9
'0:08.206',0.907
'0:08.208',0.91
'0:08.211',0.9
'0:08.214',0.887
'0:08.217',0.887
'0:08.219',0.893
'0:08.222',0.897
'0:08.225',0.897
'0:08.228',0.903
'0:08.231',0.91
'0:08.233',0.913
'0:08.236',0.92
'0:08.239',0.907
'0:08.242',0.91
'0:08.244',0.9
'0:08.247',0.887
'0:08.250',0.877
'0:08.253',0.87
'0:08.256',0.873
'0:08.258',0.88
'0:08.261',0.88
'0:08.264',0.9
'0:08.267',0.897
'0:08.269',0.903
'0:08.272',0.907
'0:08.275',0.897
'0:08.278',0.9
'0:08.281',0.893
'0:08.283',0.9
'0:08.286',0.9
'0:08.289',0.893
'0:08.292',0.91
'0:08.294',0.913
'0:08.297',0.93
'0:08.300',0.947
'0:08.303',0.97
'0:08.306',0.99
'0:08.308',0.993
'0:08.311',0.997
'0:08.314',0.99
'0:08.317',0.987
'0:08.319',0.967
'0:08.322',0.95
'0:08.325',0.94
'0:08.328',0.95
'0:08.331',0.98
'0:08.333',1
'0:08.336',1.02
'0:08.339',1.047
'0:08.342',1.057
'0:08.344',1.063
'0:08.347',1.053
'0:08.350',1.037
'0:08.353',1.033
'0:08.356',1.01
'0:08.358',1
'0:08.361',0.993
'0:08.364',0.987
'0:08.367',0.977
'0:08.369',0.97
'0:08.372',0.963
'0:08.375',0.957
'0:08.378',0.933
'0:08.381',0.92
'0:08.383',0.89
'0:08.386',0.873
'0:08.389',0.847
'0:08.392',0.837
'0:08.394',0.823
'0:08.397',0.807
'0:08.400',0.817
'0:08.403',0.823
'0:08.406',0.83
'0:08.408',0.823
'0:08.411',0.82
'0:08.414',0.817
'0:08.417',0.81
'0:08.419',0.81
'0:08.422',0.797
'0:08.425',0.803
'0:08.428',0.817
'0:08.431',0.813
'0:08.433',0.82
'0:08.436',0.817
'0:08.439',0.813
'0:08.442',0.82
'0:08.444',0.8
'0:08.447',0.8
'0:08.450',0.79
'0:08.453',0.783
'0:08.456',0.777
'0:08.458',0.767
'0:08.461',0.76
'0:08.464',0.743
'0:08.467',0.73
'0:08.469',0.713
'0:08.472',0.683
'0:08.475',0.637
'0:08.478',0.56
'0:08.481',0.473
'0:08.483',0.367
'0:08.486',0.25
'0:08.489',0.14
'0:08.492',0.02
'0:08.494',-0.083
'0:08.497',-0.187
'0:08.500',-0.3
'0:08.503',-0.387
'0:08.506',-0.47
'0:08.508',-0.487
'0:08.511',-0.47
'0:08.514',-0.387
'0:08.517',-0.263
'0:08.519',-0.13
'0:08.522',0.02
'0:08.525',0.15
'0:08.528',0.253
'0:08.531',0.34
'0:08.533',0.407
'0:08.536',0.497
'0:08.539',0.603
'0:08.542',0.727
'0:08.544',0.827
'0:08.547',0.913
'0:08.550',0.98
'0:08.553',1
'0:08.556',1.003
'0:08.558',1.003
'0:08.561',0.99
'0:08.564',0.987
'0:08.567',0.99
'0:08.569',1
'0:08.572',1.017
'0:08.575',1.03
'0:08.578',1.033
'0:08.581',1.027
'0:08.583',1.04
'0:08.586',1.043
'0:08.589',1.04
'0:08.592',1.043
'0:08.594',1.043
'0:08.597',1.047
'0:08.600',1.063
'0:08.603',1.073
'0:08.606',1.08
'0:08.608',1.073
'0:08.611',1.073
'0:08.614',1.06
'0:08.617',1.057
'0:08.619',1.05
'0:08.622',1.057
'0:08.625',1.067
'0:08.628',1.073
'0:08.631',1.087
'0:08.633',1.093
'0:08.636',1.103
'0:08.639',1.103
'0:08.642',1.1
'0:08.644',1.087
'0:08.647',1.077
'0:08.650',1.073
'0:08.653',1.073
'0:08.656',1.083
'0:08.658',1.09
'0:08.661',1.097
'0:08.664',1.097
'0:08.667',1.11
'0:08.669',1.1
'0:08.672',1.1
'0:08.675',1.083
'0:08.678',1.077
'0:08.681',1.08
'0:08.683',1.063
'0:08.686',1.06
'0:08.689',1.06
'0:08.692',1.057
'0:08.694',1.06
'0:08.697',1.067
'0:08.700',1.077
'0:08.703',1.077
'0:08.706',1.093
'0:08.708',1.09
'0:08.711',1.08
'0:08.714',1.08
'0:08.717',1.07
'0:08.719',1.057
'0:08.722',1.057
'0:08.725',1.057
'0:08.728',1.06
'0:08.731',1.07
'0:08.733',1.07
'0:08.736',1.063
'0:08.739',1.05
'0:08.742',1.037
'0:08.744',1.027
'0:08.747',1.033
'0:08.750',1.027
'0:08.753',1.027
'0:08.756',1.027
'0:08.758',1.02
'0:08.761',1.023
'0:08.764',1.017
'0:08.767',1.013
'0:08.769',1.007
'0:08.772',1.003
'0:08.775',0.997
'0:08.778',0.99
'0:08.781',0.997
'0:08.783',0.987
'0:08.786',0.99
'0:08.789',0.997
'0:08.792',0.993
'0:08.794',0.987
'0:08.797',0.987
'0:08.800',0.993
'0:08.803',0.99
'0:08.806',0.99
'0:08.808',0.99
'0:08.811',0.967
'0:08.814',0.967
'0:08.817',0.963
'0:08.819',0.95
'0:08.822',0.953
'0:08.825',0.947
'0:08.828',0.94
'0:08.831',0.947
'0:08.833',0.95
'0:08.836',0.957
'0:08.839',0.967
'0:08.842',0.97
'0:08.844',0.963
'0:08.847',0.957
'0:08.850',0.957
'0:08.853',0.94
'0:08.856',0.937
'0:08.858',0.933
'0:08.861',0.933
'0:08.864',0.95
'0:08.867',0.963
'0:08.869',0.967
'0:08.872',0.963
'0:08.875',0.947
'0:08.878',0.94
'0:08.881',0.93
'0:08.883',0.933
'0:08.886',0.927
'0:08.889',0.93
'0:08.892',0.927
'0:08.894',0.933
'0:08.897',0.933
'0:08.900',0.923
'0:08.903',0.913
'0:08.906',0.91
'0:08.908',0.887
'0:08.911',0.883
'0:08.914',0.87
'0:08.917',0.87
'0:08.919',0.873
'0:08.922',0.87
'0:08.925',0.863
'0:08.928',0.873
'0:08.931',0.88
'0:08.933',0.873
'0:08.936',0.87
'0:08.939',0.863
'0:08.942',0.857
'0:08.944',0.847
'0:08.947',0.833
'0:08.950',0.823
'0:08.953',0.813
'0:08.956',0.8
'0:08.958',0.79
'0:08.961',0.783
'0:08.964',0.8
'0:08.967',0.8
'0:08.969',0.79
'0:08.972',0.777
'0:08.975',0.767
'0:08.978',0.763
'0:08.981',0.753
'0:08.983',0.743
'0:08.986',0.743
'0:08.989',0.733
'0:08.992',0.76
'0:08.994',0.747
'0:08.997',0.763
'0:09.000',0.773
'0:09.003',0.777
'0:09.006',0.783
'0:09.008',0.77
'0:09.011',0.76
'0:09.014',0.76
'0:09.017',0.747
'0:09.019',0.757
'0:09.022',0.75
'0:09.025',0.75
'0:09.028',0.76
'0:09.031',0.76
'0:09.033',0.77
'0:09.036',0.757
'0:09.039',0.767
'0:09.042',0.76
'0:09.044',0.75
'0:09.047',0.753
'0:09.050',0.743
'0:09.053',0.75
'0:09.056',0.76
'0:09.058',0.767
'0:09.061',0.777
'0:09.064',0.787
'0:09.067',0.793
'0:09.069',0.793
'0:09.072',0.793
'0:09.075',0.78
'0:09.078',0.773
'0:09.081',0.8
'0:09.083',0.78
'0:09.086',0.777
'0:09.089',0.78
'0:09.092',0.773
'0:09.094',0.79
'0:09.097',0.79
'0:09.100',0.807
'0:09.103',0.807
'0:09.106',0.807
'0:09.108',0.793
'0:09.111',0.78
'0:09.114',0.777
'0:09.117',0.767
'0:09.119',0.76
'0:09.122',0.747
'0:09.125',0.76
'0:09.128',0.777
'0:09.131',0.783
'0:09.133',0.793
'0:09.136',0.8
'0:09.139',0.807
'0:09.142',0.817
'0:09.144',0.8
'0:09.147',0.8
'0:09.150',0.783
'0:09.153',0.78
'0:09.156',0.78
'0:09.158',0.773
'0:09.161',0.787
'0:09.164',0.79
'0:09.167',0.793
'0:09.169',0.803
'0:09.172',0.803
'0:09.175',0.8
'0:09.178',0.79
'0:09.181',0.77
'0:09.183',0.77
'0:09.186',0.763
'0:09.189',0.773
'0:09.192',0.79
'0:09.194',0.807
'0:09.197',0.817
'0:09.200',0.807
'0:09.203',0.81
'0:09.206',0.81
'0:09.208',0.817
'0:09.211',0.807
'0:09.214',0.8
'0:09.217',0.803
'0:09.219',0.793
'0:09.222',0.79
'0:09.225',0.79
'0:09.228',0.79
'0:09.231',0.8
'0:09.233',0.8
'0:09.236',0.81
'0:09.239',0.817
'0:09.242',0.82
'0:09.244',0.817
'0:09.247',0.813
'0:09.250',0.8
'0:09.253',0.783
'0:09.256',0.78
'0:09.258',0.78
'0:09.261',0.777
'0:09.264',0.777
'0:09.267',0.773
'0:09.269',0.783
'0:09.272',0.797
'0:09.275',0.803
'0:09.278',0.793
'0:09.281',0.79
'0:09.283',0.787
'0:09.286',0.78
'0:09.289',0.777
'0:09.292',0.79
'0:09.294',0.787
'0:09.297',0.807
'0:09.300',0.807
'0:09.303',0.803
'0:09.306',0.807
'0:09.308',0.817
'0:09.311',0.82
'0:09.314',0.817
'0:09.317',0.8
'0:09.319',0.783
'0:09.322',0.76
'0:09.325',0.753
'0:09.328',0.733
'0:09.331',0.747
'0:09.333',0.773
'0:09.336',0.783
'0:09.339',0.807
'0:09.342',0.807
'0:09.344',0.797
'0:09.347',0.793
'0:09.350',0.79
'0:09.353',0.783
'0:09.356',0.77
'0:09.358',0.77
'0:09.361',0.773
'0:09.364',0.79
'0:09.367',0.8
'0:09.369',0.807
'0:09.372',0.817
'0:09.375',0.817
'0:09.378',0.777
'0:09.381',0.773
'0:09.383',0.76
'0:09.386',0.763
'0:09.389',0.77
'0:09.392',0.787
'0:09.394',0.79
'0:09.397',0.777
'0:09.400',0.787
'0:09.403',0.777
'0:09.406',0.777
'0:09.408',0.777
'0:09.411',0.77
'0:09.414',0.773
'0:09.417',0.77
'0:09.419',0.767
'0:09.422',0.777
'0:09.425',0.783
'0:09.428',0.807
'0:09.431',0.82
'0:09.433',0.85
'0:09.436',0.877
'0:09.439',0.89
'0:09.442',0.89
'0:09.444',0.873
'0:09.447',0.87
'0:09.450',0.853
'0:09.453',0.847
'0:09.456',0.84
'0:09.458',0.84
'0:09.461',0.867
'0:09.464',0.89
'0:09.467',0.923
'0:09.469',0.937
'0:09.472',0.957
'0:09.475',0.963
'0:09.478',0.947
'0:09.481',0.937
'0:09.483',0.92
'0:09.486',0.89
'0:09.489',0.867
'0:09.492',0.843
'0:09.494',0.837
'0:09.497',0.85
'0:09.500',0.847
'0:09.503',0.853
'0:09.506',0.847
'0:09.508',0.843
'0:09.511',0.823
'0:09.514',0.8
'0:09.517',0.78
'0:09.519',0.757
'0:09.522',0.75
'0:09.525',0.727
'0:09.528',0.73
'0:09.531',0.737
'0:09.533',0.737
'0:09.536',0.733
'0:09.539',0.723
'0:09.542',0.713
'0:09.544',0.707
'0:09.547',0.697
'0:09.550',0.69
'0:09.553',0.677
'0:09.556',0.683
'0:09.558',0.683
'0:09.561',0.687
'0:09.564',0.693
'0:09.567',0.697
'0:09.569',0.713
'0:09.572',0.73
'0:09.575',0.713
'0:09.578',0.707
'0:09.581',0.683
'0:09.583',0.667
'0:09.586',0.653
'0:09.589',0.643
'0:09.592',0.643
'0:09.594',0.64
'0:09.597',0.643
'0:09.600',0.62
'0:09.603',0.577
'0:09.606',0.52
'0:09.608',0.42
'0:09.611',0.31
'0:09.614',0.183
'0:09.617',0.07
'0:09.619',-0.033
'0:09.622',-0.13
'0:09.625',-0.213
'0:09.628',-0.31
'0:09.631',-0.407
'0:09.633',-0.49
'0:09.636',-0.55
'0:09.639',-0.567
'0:09.642',-0.527
'0:09.644',-0.47
'0:09.647',-0.367
'0:09.650',-0.257
'0:09.653',-0.13
'0:09.656',-0.03
'0:09.658',0.067
'0:09.661',0.157
'0:09.664',0.25
'0:09.667',0.387
'0:09.669',0.527
'0:09.672',0.68
'0:09.675',0.783
'0:09.678',0.853
'0:09.681',0.88
'0:09.683',0.86
'0:09.686',0.853
'0:09.689',0.843
'0:09.692',0.84
'0:09.694',0.843
'0:09.697',0.853
'0:09.700',0.883
'0:09.703',0.887
'0:09.706',0.9
'0:09.708',0.897
'0:09.711',0.893
'0:09.714',0.893
'0:09.717',0.887
'0:09.719',0.893
'0:09.722',0.893
'0:09.725',0.913
'0:09.728',0.92
'0:09.731',0.93
'0:09.733',0.933
'0:09.736',0.933
'0:09.739',0.943
'0:09.742',0.947
'0:09.744',0.943
'0:09.747',0.94
'0:09.750',0.94
'0:09.753',0.94
'0:09.756',0.94
'0:09.758',0.94
'0:09.761',0.94
'0:09.764',0.933
'0:09.767',0.95
'0:09.769',0.943
'0:09.772',0.95
'0:09.775',0.957
'0:09.778',0.95
'0:09.781',0.963
'0:09.783',0.957
'0:09.786',0.957
'0:09.789',0.963
'0:09.792',0.957
'0:09.794',0.953
'0:09.797',0.96
'0:09.800',0.96
'0:09.803',0.967
'0:09.806',0.97
'0:09.808',0.97
'0:09.811',0.97
'0:09.814',0.967
'0:09.817',0.963
'0:09.819',0.943
'0:09.822',0.933
'0:09.825',0.923
'0:09.828',0.927
'0:09.831',0.94
'0:09.833',0.957
'0:09.836',0.967
'0:09.839',0.97
'0:09.842',0.963
'0:09.844',0.953
'0:09.847',0.93
'0:09.850',0.923
'0:09.853',0.923
'0:09.856',0.94
'0:09.858',0.933
'0:09.861',0.943
'0:09.864',0.94
'0:09.867',0.933
'0:09.869',0.937
'0:09.872',0.937
'0:09.875',0.937
'0:09.878',0.927
'0:09.881',0.92
'0:09.883',0.917
'0:09.886',0.907
'0:09.889',0.9
'0:09.892',0.897
'0:09.894',0.9
'0:09.897',0.917
'0:09.900',0.917
'0:09.903',0.92
'0:09.906',0.923
'0:09.908',0.917
'0:09.911',0.92
'0:09.914',0.917
'0:09.917',0.91
'0:09.919',0.91
'0:09.922',0.877
'0:09.925',0.87
'0:09.928',0.873
'0:09.931',0.877
'0:09.933',0.88
'0:09.936',0.887
'0:09.939',0.9
'0:09.942',0.893
'0:09.944',0.887
'0:09.947',0.87
'0:09.950',0.847
'0:09.953',0.83
'0:09.956',0.817
'0:09.958',0.817
'0:09.961',0.82
'0:09.964',0.823
'0:09.967',0.817
'0:09.969',0.817
'0:09.972',0.83
'0:09.975',0.837
'0:09.978',0.84
'0:09.981',0.823
'0:09.983',0.81
'0:09.986',0.8
'0:09.989',0.797
'0:09.992',0.807
'0:09.994',0.8
'0:09.997',0.813
'0:10.000',0.827
'0:10.003',0.84
'0:10.006',0.84
'0:10.008',0.823
'0:10.011',0.8
'0:10.014',0.777
'0:10.017',0.753
'0:10.019',0.743
'0:10.022',0.733
'0:10.025',0.737
'0:10.028',0.75
'0:10.031',0.747
'0:10.033',0.757
'0:10.036',0.74
'0:10.039',0.737
'0:10.042',0.73
'0:10.044',0.717
'0:10.047',0.72
'0:10.050',0.707
'0:10.053',0.703
'0:10.056',0.693
'0:10.058',0.697
'0:10.061',0.697
'0:10.064',0.697
'0:10.067',0.707
'0:10.069',0.707
'0:10.072',0.707
'0:10.075',0.7
'0:10.078',0.7
'0:10.081',0.693
'0:10.083',0.677
'0:10.086',0.663
'0:10.089',0.66
'0:10.092',0.663
'0:10.094',0.677
'0:10.097',0.683
'0:10.100',0.687
'0:10.103',0.697
'0:10.106',0.7
'0:10.108',0.703
'0:10.111',0.7
'0:10.114',0.697
'0:10.117',0.677
'0:10.119',0.677
'0:10.122',0.69
'0:10.125',0.707
'0:10.128',0.733
'0:10.131',0.75
'0:10.133',0.757
'0:10.136',0.773
'0:10.139',0.77
'0:10.142',0.77
'0:10.144',0.76
'0:10.147',0.76
'0:10.150',0.763
'0:10.153',0.783
'0:10.156',0.8
'0:10.158',0.813
'0:10.161',0.833
'0:10.164',0.843
'0:10.167',0.837
'0:10.169',0.83
'0:10.172',0.817
'0:10.175',0.807
'0:10.178',0.79
'0:10.181',0.783
'0:10.183',0.78
'0:10.186',0.76
'0:10.189',0.763
'0:10.192',0.747
'0:10.194',0.747
'0:10.197',0.747
'0:10.200',0.73
'0:10.203',0.727
'0:10.206',0.723
'0:10.208',0.703
'0:10.211',0.683
'0:10.214',0.66
'0:10.217',0.65
'0:10.219',0.623
'0:10.222',0.637
'0:10.225',0.64
'0:10.228',0.647
'0:10.231',0.663
'0:10.233',0.653
'0:10.236',0.643
'0:10.239',0.653
'0:10.242',0.637
'0:10.244',0.63
'0:10.247',0.623
'0:10.250',0.623
'0:10.253',0.613
'0:10.256',0.623
'0:10.258',0.647
'0:10.261',0.66
'0:10.264',0.667
'0:10.267',0.657
'0:10.269',0.633
'0:10.272',0.627
'0:10.275',0.617
'0:10.278',0.627
'0:10.281',0.63
'0:10.283',0.643
'0:10.286',0.647
'0:10.289',0.637
'0:10.292',0.65
'0:10.294',0.643
'0:10.297',0.633
'0:10.300',0.62
'0:10.303',0.61
'0:10.306',0.613
'0:10.308',0.613
'0:10.311',0.613
'0:10.314',0.597
'0:10.317',0.56
'0:10.319',0.517
'0:10.322',0.457
'0:10.325',0.397
'0:10.328',0.333
'0:10.331',0.257
'0:10.333',0.177
'0:10.336',0.07
'0:10.339',-0.043
'0:10.342',-0.17
'0:10.344',-0.317
'0:10.347',-0.457
'0:10.350',-0.613
'0:10.353',-0.737
'0:10.356',-0.82
'0:10.358',-0.833
'0:10.361',-0.777
'0:10.364',-0.683
'0:10.367',-0.553
'0:10.369',-0.407
'0:10.372',-0.27
'0:10.375',-0.15
'0:10.378',-0.087
'0:10.381',-0.027
'0:10.383',0.003
'0:10.386',0.057
'0:10.389',0.13
'0:10.392',0.267
'0:10.394',0.43
'0:10.397',0.593
'0:10.400',0.723
'0:10.403',0.8
'0:10.406',0.847
'0:10.408',0.857
'0:10.411',0.843
'0:10.414',0.84
'0:10.417',0.833
'0:10.419',0.83
'0:10.422',0.84
'0:10.425',0.85
'0:10.428',0.877
'0:10.431',0.883
'0:10.433',0.89
'0:10.436',0.887
'0:10.439',0.9
'0:10.442',0.91
'0:10.444',0.9
'0:10.447',0.91
'0:10.450',0.893
'0:10.453',0.877
'0:10.456',0.877
'0:10.458',0.877
'0:10.461',0.903
'0:10.464',0.913
'0:10.467',0.933
'0:10.469',0.947
'0:10.472',0.94
'0:10.475',0.943
'0:10.478',0.927
'0:10.481',0.923
'0:10.483',0.923
'0:10.486',0.92
'0:10.489',0.917
'0:10.492',0.913
'0:10.494',0.933
'0:10.497',0.947
'0:10.500',0.957
'0:10.503',0.977
'0:10.506',0.977
'0:10.508',0.963
'0:10.511',0.943
'0:10.514',0.943
'0:10.517',0.93
'0:10.519',0.92
'0:10.522',0.93
'0:10.525',0.933
'0:10.528',0.93
'0:10.531',0.953
'0:10.533',0.973
'0:10.536',0.967
'0:10.539',0.97
'0:10.542',0.97
'0:10.544',0.953
'0:10.547',0.96
'0:10.550',0.957
'0:10.553',0.96
'0:10.556',0.963
'0:10.558',0.97
'0:10.561',0.977
'0:10.564',0.993
'0:10.567',0.98
'0:10.569',0.987
'0:10.572',0.993
'0:10.575',0.987
'0:10.578',0.99
'0:10.581',0.973
'0:10.583',0.953
'0:10.586',0.943
'0:10.589',0.93
'0:10.592',0.937
'0:10.594',0.937
'0:10.597',0.963
'0:10.600',0.97
'0:10.603',0.983
'0:10.606',0.987
'0:10.608',0.963
'0:10.611',0.96
'0:10.614',0.947
'0:10.617',0.927
'0:10.619',0.92
'0:10.622',0.913
'0:10.625',0.927
'0:10.628',0.94
'0:10.631',0.95
'0:10.633',0.983
'0:10.636',1.003
'0:10.639',1.007
'0:10.642',1.003
'0:10.644',0.99
'0:10.647',0.993
'0:10.650',0.973
'0:10.653',0.967
'0:10.656',0.953
'0:10.658',0.957
'0:10.661',0.967
'0:10.664',0.98
'0:10.667',1.003
'0:10.669',1.013
'0:10.672',1.017
'0:10.675',1.01
'0:10.678',0.983
'0:10.681',0.977
'0:10.683',0.97
'0:10.686',0.98
'0:10.689',0.993
'0:10.692',0.987
'0:10.694',1
'0:10.697',1.007
'0:10.700',1.017
'0:10.703',1.017
'0:10.706',1.017
'0:10.708',1.013
'0:10.711',1.003
'0:10.714',1.01
'0:10.717',1.007
'0:10.719',1.01
'0:10.722',1.003
'0:10.725',0.99
'0:10.728',0.99
'0:10.731',0.99
'0:10.733',0.997
'0:10.736',0.993
'0:10.739',0.98
'0:10.742',0.963
'0:10.744',0.923
'0:10.747',0.903
'0:10.750',0.87
'0:10.753',0.863
'0:10.756',0.863
'0:10.758',0.863
'0:10.761',0.887
'0:10.764',0.887
'0:10.767',0.88
'0:10.769',0.887
'0:10.772',0.863
'0:10.775',0.863
'0:10.778',0.837
'0:10.781',0.817
'0:10.783',0.803
'0:10.786',0.793
'0:10.789',0.793
'0:10.792',0.793
'0:10.794',0.797
'0:10.797',0.8
'0:10.800',0.787
'0:10.803',0.777
'0:10.806',0.76
'0:10.808',0.757
'0:10.811',0.757
'0:10.814',0.753
'0:10.817',0.737
'0:10.819',0.713
'0:10.822',0.7
'0:10.825',0.683
'0:10.828',0.677
'0:10.831',0.687
'0:10.833',0.68
'0:10.836',0.68
'0:10.839',0.683
'0:10.842',0.68
'0:10.844',0.677
'0:10.847',0.657
'0:10.850',0.643
'0:10.853',0.63
'0:10.856',0.633
'0:10.858',0.643
'0:10.861',0.647
'0:10.864',0.663
'0:10.867',0.66
'0:10.869',0.66
'0:10.872',0.66
'0:10.875',0.65
'0:10.878',0.64
'0:10.881',0.63
'0:10.883',0.623
'0:10.886',0.607
'0:10.889',0.607
'0:10.892',0.613
'0:10.894',0.62
'0:10.897',0.64
'0:10.900',0.643
'0:10.903',0.637
'0:10.906',0.627
'0:10.908',0.603
'0:10.911',0.607
'0:10.914',0.6
'0:10.917',0.607
'0:10.919',0.61
'0:10.922',0.607
'0:10.925',0.62
'0:10.928',0.63
'0:10.931',0.637
'0:10.933',0.637
'0:10.936',0.63
'0:10.939',0.637
'0:10.942',0.617
'0:10.944',0.62
'0:10.947',0.613
'0:10.950',0.603
'0:10.953',0.607
'0:10.956',0.6
'0:10.958',0.613
'0:10.961',0.617
'0:10.964',0.63
'0:10.967',0.637
'0:10.969',0.643
'0:10.972',0.653
'0:10.975',0.637
'0:10.978',0.63
'0:10.981',0.6
'0:10.983',0.583
'0:10.986',0.583
'0:10.989',0.567
'0:10.992',0.583
'0:10.994',0.607
'0:10.997',0.603
'0:11.000',0.633
'0:11.003',0.633
'0:11.006',0.637
'0:11.008',0.63
'0:11.011',0.623
'0:11.014',0.633
'0:11.017',0.617
'0:11.019',0.607
'0:11.022',0.597
'0:11.025',0.583
'0:11.028',0.597
'0:11.031',0.593
'0:11.033',0.6
'0:11.036',0.613
'0:11.039',0.62
'0:11.042',0.623
'0:11.044',0.613
'0:11.047',0.623
'0:11.050',0.623
'0:11.053',0.623
'0:11.056',0.62
'0:11.058',0.613
'0:11.061',0.613
'0:11.064',0.607
'0:11.067',0.603
'0:11.069',0.613
'0:11.072',0.607
'0:11.075',0.607
'0:11.078',0.6
'0:11.081',0.607
'0:11.083',0.607
'0:11.086',0.607
'0:11.089',0.597
'0:11.092',0.597
'0:11.094',0.613
'0:11.097',0.62
'0:11.100',0.603
'0:11.103',0.613
'0:11.106',0.62
'0:11.108',0.62
'0:11.111',0.61
'0:11.114',0.607
'0:11.117',0.59
'0:11.119',0.573
'0:11.122',0.567
'0:11.125',0.583
'0:11.128',0.59
'0:11.131',0.61
'0:11.133',0.607
'0:11.136',0.607
'0:11.139',0.603
'0:11.142',0.597
'0:11.144',0.593
'0:11.147',0.593
'0:11.150',0.603
'0:11.153',0.597
'0:11.156',0.593
'0:11.158',0.597
'0:11.161',0.587
'0:11.164',0.593
'0:11.167',0.593
'0:11.169',0.597
'0:11.172',0.61
'0:11.175',0.613
'0:11.178',0.617
'0:11.181',0.607
'0:11.183',0.593
'0:11.186',0.58
'0:11.189',0.573
'0:11.192',0.573
'0:11.194',0.573
'0:11.197',0.58
'0:11.200',0.583
'0:11.203',0.593
'0:11.206',0.61
'0:11.208',0.603
'0:11.211',0.603
'0:11.214',0.593
'0:11.217',0.587
'0:11.219',0.577
'0:11.222',0.573
'0:11.225',0.59
'0:11.228',0.583
'0:11.231',0.607
'0:11.233',0.62
'0:11.236',0.617
'0:11.239',0.623
'0:11.242',0.61
'0:11.244',0.597
'0:11.247',0.59
'0:11.250',0.58
'0:11.253',0.577
'0:11.256',0.573
'0:11.258',0.597
'0:11.261',0.607
'0:11.264',0.613
'0:11.267',0.62
'0:11.269',0.607
'0:11.272',0.6
'0:11.275',0.587
'0:11.278',0.567
'0:11.281',0.567
'0:11.283',0.573
'0:11.286',0.583
'0:11.289',0.583
'0:11.292',0.593
'0:11.294',0.607
'0:11.297',0.617
'0:11.300',0.62
'0:11.303',0.613
'0:11.306',0.617
'0:11.308',0.607
'0:11.311',0.59
'0:11.314',0.593
'0:11.317',0.58
'0:11.319',0.573
'0:11.322',0.567
'0:11.325',0.573
'0:11.328',0.593
'0:11.331',0.59
'0:11.333',0.59
'0:11.336',0.583
'0:11.339',0.593
'0:11.342',0.59
'0:11.344',0.583
'0:11.347',0.59
'0:11.350',0.59
'0:11.353',0.583
'0:11.356',0.583
'0:11.358',0.583
'0:11.361',0.583
'0:11.364',0.59
'0:11.367',0.6
'0:11.369',0.607
'0:11.372',0.62
'0:11.375',0.613
'0:11.378',0.593
'0:11.381',0.583
'0:11.383',0.573
'0:11.386',0.57
'0:11.389',0.577
'0:11.392',0.58
'0:11.394',0.583
'0:11.397',0.593
'0:11.400',0.603
'0:11.403',0.603
'0:11.406',0.6
'0:11.408',0.597
'0:11.411',0.583
'0:11.414',0.577
'0:11.417',0.58
'0:11.419',0.573
'0:11.422',0.59
'0:11.425',0.593
'0:11.428',0.6
'0:11.431',0.607
'0:11.433',0.603
'0:11.436',0.607
'0:11.439',0.607
'0:11.442',0.597
'0:11.444',0.597
'0:11.447',0.6
'0:11.450',0.603
'0:11.453',0.597
'0:11.456',0.607
'0:11.458',0.603
'0:11.461',0.6
'0:11.464',0.61
'0:11.467',0.597
'0:11.469',0.607
'0:11.472',0.6
'0:11.475',0.597
'0:11.478',0.59
'0:11.481',0.587
'0:11.483',0.59
'0:11.486',0.583
'0:11.489',0.587
'0:11.492',0.593
'0:11.494',0.607
'0:11.497',0.617
'0:11.500',0.613
'0:11.503',0.633
'0:11.506',0.637
'0:11.508',0.62
'0:11.511',0.63
'0:11.514',0.627
'0:11.517',0.607
'0:11.519',0.603
'0:11.522',0.59
'0:11.525',0.607
'0:11.528',0.62
'0:11.531',0.637
'0:11.533',0.647
'0:11.536',0.653
'0:11.539',0.673
'0:11.542',0.683
'0:11.544',0.69
'0:11.547',0.7
'0:11.550',0.707
'0:11.553',0.717
'0:11.556',0.733
'0:11.558',0.76
'0:11.561',0.787
'0:11.564',0.807
'0:11.567',0.81
'0:11.569',0.823
'0:11.572',0.83
'0:11.575',0.807
'0:11.578',0.793
'0:11.581',0.773
'0:11.583',0.767
'0:11.586',0.76
'0:11.589',0.76
'0:11.592',0.753
'0:11.594',0.75
'0:11.597',0.743
'0:11.600',0.72
'0:11.603',0.69
'0:11.606',0.653
'0:11.608',0.61
'0:11.611',0.573
'0:11.614',0.547
'0:11.617',0.513
'0:11.619',0.507
'0:11.622',0.503
'0:11.625',0.507
'0:11.628',0.517
'0:11.631',0.527
'0:11.633',0.537
'0:11.636',0.527
'0:11.639',0.537
'0:11.642',0.527
'0:11.644',0.523
'0:11.647',0.513
'0:11.650',0.503
'0:11.653',0.503
'0:11.656',0.5
'0:11.658',0.497
'0:11.661',0.51
'0:11.664',0.527
'0:11.667',0.523
'0:11.669',0.52
'0:11.672',0.513
'0:11.675',0.49
'0:11.678',0.457
'0:11.681',0.443
'0:11.683',0.407
'0:11.686',0.373
'0:11.689',0.333
'0:11.692',0.267
'0:11.694',0.213
'0:11.697',0.123
'0:11.700',0.017
'0:11.703',-0.093
'0:11.706',-0.207
'0:11.708',-0.32
'0:11.711',-0.457
'0:11.714',-0.567
'0:11.717',-0.667
'0:11.719',-0.76
'0:11.722',-0.817
'0:11.725',-0.817
'0:11.728',-0.77
'0:11.731',-0.667
'0:11.733',-0.547
'0:11.736',-0.403
'0:11.739',-0.27
'0:11.742',-0.147
'0:11.744',-0.087
'0:11.747',-0.04
'0:11.750',0.007
'0:11.753',0.077
'0:11.756',0.2
'0:11.758',0.333
'0:11.761',0.48
'0:11.764',0.61
'0:11.767',0.677
'0:11.769',0.7
'0:11.772',0.71
'0:11.775',0.693
'0:11.778',0.68
'0:11.781',0.663
'0:11.783',0.667
'0:11.786',0.673
'0:11.789',0.693
'0:11.792',0.703
'0:11.794',0.717
'0:11.797',0.747
'0:11.800',0.74
'0:11.803',0.75
'0:11.806',0.747
'0:11.808',0.753
'0:11.811',0.753
'0:11.814',0.747
'0:11.817',0.747
'0:11.819',0.74
'0:11.822',0.737
'0:11.825',0.737
'0:11.828',0.753
'0:11.831',0.76
'0:11.833',0.77
'0:11.836',0.773
'0:11.839',0.777
'0:11.842',0.78
'0:11.844',0.787
'0:11.847',0.773
'0:11.850',0.757
'0:11.853',0.753
'0:11.856',0.753
'0:11.858',0.773
'0:11.861',0.78
'0:11.864',0.803
'0:11.867',0.8
'0:11.869',0.793
'0:11.872',0.817
'0:11.875',0.8
'0:11.878',0.797
'0:11.881',0.787
'0:11.883',0.773
'0:11.886',0.777
'0:11.889',0.773
'0:11.892',0.783
'0:11.894',0.783
'0:11.897',0.79
'0:11.900',0.797
'0:11.903',0.783
'0:11.906',0.787
'0:11.908',0.79
'0:11.911',0.783
'0:11.914',0.79
'0:11.917',0.783
'0:11.919',0.77
'0:11.922',0.77
'0:11.925',0.773
'0:11.928',0.777
'0:11.931',0.783
'0:11.933',0.807
'0:11.936',0.803
'0:11.939',0.8
'0:11.942',0.787
'0:11.944',0.77
'0:11.947',0.773
'0:11.950',0.753
'0:11.953',0.753
'0:11.956',0.737
'0:11.958',0.723
'0:11.961',0.73
'0:11.964',0.733
'0:11.967',0.737
'0:11.969',0.74
'0:11.972',0.737
'0:11.975',0.737
'0:11.978',0.73
'0:11.981',0.723
'0:11.983',0.713
'0:11.986',0.707
'0:11.989',0.707
'0:11.992',0.697
'0:11.994',0.7
'0:11.997',0.697
'0:12.000',0.7
'0:12.003',0.7
'0:12.006',0.697
'0:12.008',0.693
'0:12.011',0.667
'0:12.014',0.66
'0:12.017',0.663
'0:12.019',0.657
'0:12.022',0.653
'0:12.025',0.65
'0:12.028',0.653
'0:12.031',0.637
'0:12.033',0.617
'0:12.036',0.617
'0:12.039',0.613
'0:12.042',0.607
'0:12.044',0.583
'0:12.047',0.58
'0:12.050',0.573
'0:12.053',0.567
'0:12.056',0.56
'0:12.058',0.56
'0:12.061',0.56
'0:12.064',0.563
'0:12.067',0.557
'0:12.069',0.553
'0:12.072',0.55
'0:12.075',0.547
'0:12.078',0.533
'0:12.081',0.517
'0:12.083',0.513
'0:12.086',0.497
'0:12.089',0.497
'0:12.092',0.49
'0:12.094',0.497
'0:12.097',0.497
'0:12.100',0.473
'0:12.103',0.473
'0:12.106',0.457
'0:12.108',0.45
'0:12.111',0.45
'0:12.114',0.43
'0:12.117',0.427
'0:12.119',0.42
'0:12.122',0.427
'0:12.125',0.427
'0:12.128',0.427
'0:12.131',0.44
'0:12.133',0.437
'0:12.136',0.433
'0:12.139',0.43
'0:12.142',0.417
'0:12.144',0.41
'0:12.147',0.4
'0:12.150',0.397
'0:12.153',0.383
'0:12.156',0.393
'0:12.158',0.397
'0:12.161',0.393
'0:12.164',0.393
'0:12.167',0.39
'0:12.169',0.387
'0:12.172',0.387
'0:12.175',0.383
'0:12.178',0.377
'0:12.181',0.36
'0:12.183',0.36
'0:12.186',0.347
'0:12.189',0.35
'0:12.192',0.353
'0:12.194',0.353
'0:12.197',0.38
'0:12.200',0.38
'0:12.203',0.387
'0:12.206',0.41
'0:12.208',0.403
'0:12.211',0.4
'0:12.214',0.403
'0:12.217',0.387
'0:12.219',0.38
'0:12.222',0.38
'0:12.225',0.387
'0:12.228',0.403
'0:12.231',0.413
'0:12.233',0.427
'0:12.236',0.433
'0:12.239',0.443
'0:12.242',0.433
'0:12.244',0.42
'0:12.247',0.41
'0:12.250',0.417
'0:12.253',0.42
'0:12.256',0.427
'0:12.258',0.433
'0:12.261',0.453
'0:12.264',0.453
'0:12.267',0.47
'0:12.269',0.48
'0:12.272',0.49
'0:12.275',0.493
'0:12.278',0.497
'0:12.281',0.52
'0:12.283',0.527
'0:12.286',0.557
'0:12.289',0.557
'0:12.292',0.56
'0:12.294',0.567
'0:12.297',0.563
'0:12.300',0.59
'0:12.303',0.607
'0:12.306',0.623
'0:12.308',0.637
'0:12.311',0.647
'0:12.314',0.667
'0:12.317',0.677
'0:12.319',0.703
'0:12.322',0.72
'0:12.325',0.727
'0:12.328',0.737
'0:12.331',0.73
'0:12.333',0.73
'0:12.336',0.73
'0:12.339',0.713
'0:12.342',0.707
'0:12.344',0.677
'0:12.347',0.667
'0:12.350',0.647
'0:12.353',0.63
'0:12.356',0.617
'0:12.358',0.6
'0:12.361',0.593
'0:12.364',0.58
'0:12.367',0.567
'0:12.369',0.56
'0:12.372',0.543
'0:12.375',0.54
'0:12.378',0.527
'0:12.381',0.52
'0:12.383',0.52
'0:12.386',0.513
'0:12.389',0.517
'0:12.392',0.513
'0:12.394',0.517
'0:12.397',0.53
'0:12.400',0.54
'0:12.403',0.543
'0:12.406',0.53
'0:12.408',0.52
'0:12.411',0.503
'0:12.414',0.5
'0:12.417',0.497
'0:12.419',0.49
'0:12.422',0.49
'0:12.425',0.5
'0:12.428',0.5
'0:12.431',0.507
'0:12.433',0.507
'0:12.436',0.51
'0:12.439',0.523
'0:12.442',0.513
'0:12.444',0.513
'0:12.447',0.503
'0:12.450',0.503
'0:12.453',0.497
'0:12.456',0.493
'0:12.458',0.49
'0:12.461',0.483
'0:12.464',0.483
'0:12.467',0.46
'0:12.469',0.45
'0:12.472',0.413
'0:12.475',0.35
'0:12.478',0.283
'0:12.481',0.193
'0:12.483',0.08
'0:12.486',-0.05
'0:12.489',-0.18
'0:12.492',-0.293
'0:12.494',-0.42
'0:12.497',-0.533
'0:12.500',-0.66
'0:12.503',-0.773
'0:12.506',-0.873
'0:12.508',-0.933
'0:12.511',-0.913
'0:12.514',-0.847
'0:12.517',-0.743
'0:12.519',-0.607
'0:12.522',-0.46
'0:12.525',-0.333
'0:12.528',-0.233
'0:12.531',-0.147
'0:12.533',-0.083
'0:12.536',-0.05
'0:12.539',0.007
'0:12.542',0.063
'0:12.544',0.15
'0:12.547',0.27
'0:12.550',0.4
'0:12.553',0.523
'0:12.556',0.61
'0:12.558',0.68
'0:12.561',0.713
'0:12.564',0.72
'0:12.567',0.713
'0:12.569',0.707
'0:12.572',0.723
'0:12.575',0.713
'0:12.578',0.7
'0:12.581',0.717
'0:12.583',0.73
'0:12.586',0.75
'0:12.589',0.753
'0:12.592',0.763
'0:12.594',0.773
'0:12.597',0.777
'0:12.600',0.787
'0:12.603',0.79
'0:12.606',0.797
'0:12.608',0.797
'0:12.611',0.79
'0:12.614',0.8
'0:12.617',0.797
'0:12.619',0.8
'0:12.622',0.797
'0:12.625',0.79
'0:12.628',0.8
'0:12.631',0.8
'0:12.633',0.8
'0:12.636',0.807
'0:12.639',0.813
'0:12.642',0.813
'0:12.644',0.807
'0:12.647',0.817
'0:12.650',0.813
'0:12.653',0.823
'0:12.656',0.83
'0:12.658',0.823
'0:12.661',0.837
'0:12.664',0.853
'0:12.667',0.86
'0:12.669',0.86
'0:12.672',0.863
'0:12.675',0.853
'0:12.678',0.847
'0:12.681',0.853
'0:12.683',0.853
'0:12.686',0.847
'0:12.689',0.847
'0:12.692',0.84
'0:12.694',0.853
'0:12.697',0.86
'0:12.700',0.853
'0:12.703',0.847
'0:12.706',0.853
'0:12.708',0.853
'0:12.711',0.847
'0:12.714',0.847
'0:12.717',0.833
'0:12.719',0.83
'0:12.722',0.84
'0:12.725',0.84
'0:12.728',0.847
'0:12.731',0.857
'0:12.733',0.863
'0:12.736',0.867
'0:12.739',0.867
'0:12.742',0.863
'0:12.744',0.857
'0:12.747',0.847
'0:12.750',0.84
'0:12.753',0.847
'0:12.756',0.85
'0:12.758',0.853
'0:12.761',0.853
'0:12.764',0.863
'0:12.767',0.847
'0:12.769',0.863
'0:12.772',0.857
'0:12.775',0.847
'0:12.778',0.84
'0:12.781',0.827
'0:12.783',0.823
'0:12.786',0.82
'0:12.789',0.82
'0:12.792',0.823
'0:12.794',0.823
'0:12.797',0.85
'0:12.800',0.857
'0:12.803',0.863
'0:12.806',0.863
'0:12.808',0.863
'0:12.811',0.85
'0:12.814',0.85
'0:12.817',0.843
'0:12.819',0.853
'0:12.822',0.857
'0:12.825',0.87
'0:12.828',0.877
'0:12.831',0.887
'0:12.833',0.883
'0:12.836',0.88
'0:12.839',0.897
'0:12.842',0.89
'0:12.844',0.88
'0:12.847',0.87
'0:12.850',0.863
'0:12.853',0.857
'0:12.856',0.857
'0:12.858',0.86
'0:12.861',0.857
'0:12.864',0.87
'0:12.867',0.863
'0:12.869',0.863
'0:12.872',0.877
'0:12.875',0.873
'0:12.878',0.873
'0:12.881',0.853
'0:12.883',0.847
'0:12.886',0.847
'0:12.889',0.84
'0:12.892',0.84
'0:12.894',0.84
'0:12.897',0.843
'0:12.900',0.847
'0:12.903',0.837
'0:12.906',0.83
'0:12.908',0.81
'0:12.911',0.797
'0:12.914',0.777
'0:12.917',0.753
'0:12.919',0.75
'0:12.922',0.747
'0:12.925',0.737
'0:12.928',0.73
'0:12.931',0.737
'0:12.933',0.723
'0:12.936',0.713
'0:12.939',0.717
'0:12.942',0.693
'0:12.944',0.677
'0:12.947',0.667
'0:12.950',0.657
'0:12.953',0.653
'0:12.956',0.643
'0:12.958',0.633
'0:12.961',0.637
'0:12.964',0.637
'0:12.967',0.643
'0:12.969',0.63
'0:12.972',0.63
'0:12.975',0.613
'0:12.978',0.6
'0:12.981',0.597
'0:12.983',0.583
'0:12.986',0.583
'0:12.989',0.567
'0:12.992',0.56
'0:12.994',0.567
'0:12.997',0.563
'0:13.000',0.56
'0:13.003',0.563
'0:13.006',0.56
'0:13.008',0.553
'0:13.011',0.537
'0:13.014',0.533
'0:13.017',0.523
'0:13.019',0.517
'0:13.022',0.527
'0:13.025',0.527
'0:13.028',0.537
'0:13.031',0.543
'0:13.033',0.537
'0:13.036',0.543
'0:13.039',0.533
'0:13.042',0.537
'0:13.044',0.527
'0:13.047',0.523
'0:13.050',0.523
'0:13.053',0.52
'0:13.056',0.517
'0:13.058',0.52
'0:13.061',0.527
'0:13.064',0.53
'0:13.067',0.523
'0:13.069',0.52
'0:13.072',0.51
'0:13.075',0.507
'0:13.078',0.49
'0:13.081',0.49
'0:13.083',0.497
'0:13.086',0.49
'0:13.089',0.497
'0:13.092',0.5
'0:13.094',0.503
'0:13.097',0.52
'0:13.100',0.52
'0:13.103',0.527
'0:13.106',0.53
'0:13.108',0.52
'0:13.111',0.517
'0:13.114',0.513
'0:13.117',0.52
'0:13.119',0.507
'0:13.122',0.507
'0:13.125',0.507
'0:13.128',0.51
'0:13.131',0.523
'0:13.133',0.523
'0:13.136',0.527
'0:13.139',0.527
'0:13.142',0.51
'0:13.144',0.51
'0:13.147',0.5
'0:13.150',0.5
'0:13.153',0.497
'0:13.156',0.497
'0:13.158',0.503
'0:13.161',0.503
'0:13.164',0.513
'0:13.167',0.52
'0:13.169',0.523
'0:13.172',0.537
'0:13.175',0.527
'0:13.178',0.523
'0:13.181',0.51
'0:13.183',0.5
'0:13.186',0.513
'0:13.189',0.513
'0:13.192',0.52
'0:13.194',0.527
'0:13.197',0.54
'0:13.200',0.543
'0:13.203',0.54
'0:13.206',0.55
'0:13.208',0.547
'0:13.211',0.537
'0:13.214',0.523
'0:13.217',0.51
'0:13.219',0.507
'0:13.222',0.503
'0:13.225',0.507
'0:13.228',0.517
'0:13.231',0.527
'0:13.233',0.533
'0:13.236',0.52
'0:13.239',0.527
'0:13.242',0.527
'0:13.244',0.523
'0:13.247',0.527
'0:13.250',0.517
'0:13.253',0.527
'0:13.256',0.52
'0:13.258',0.523
'0:13.261',0.533
'0:13.264',0.523
'0:13.267',0.53
'0:13.269',0.54
'0:13.272',0.543
'0:13.275',0.543
'0:13.278',0.53
'0:13.281',0.533
'0:13.283',0.527
'0:13.286',0.527
'0:13.289',0.527
'0:13.292',0.527
'0:13.294',0.527
'0:13.297',0.523
'0:13.300',0.533
'0:13.303',0.53
'0:13.306',0.533
'0:13.308',0.537
'0:13.311',0.527
'0:13.314',0.527
'0:13.317',0.527
'0:13.319',0.527
'0:13.322',0.53
'0:13.325',0.53
'0:13.328',0.543
'0:13.331',0.543
'0:13.333',0.543
'0:13.336',0.543
'0:13.339',0.54
'0:13.342',0.553
'0:13.344',0.547
'0:13.347',0.547
'0:13.350',0.543
'0:13.353',0.537
'0:13.356',0.54
'0:13.358',0.537
'0:13.361',0.543
'0:13.364',0.543
'0:13.367',0.547
'0:13.369',0.547
'0:13.372',0.537
'0:13.375',0.537
'0:13.378',0.527
'0:13.381',0.52
'0:13.383',0.52
'0:13.386',0.523
'0:13.389',0.537
'0:13.392',0.54
'0:13.394',0.55
'0:13.397',0.56
'0:13.400',0.563
'0:13.403',0.567
'0:13.406',0.563
'0:13.408',0.55
'0:13.411',0.56
'0:13.414',0.56
'0:13.417',0.563
'0:13.419',0.547
'0:13.422',0.547
'0:13.425',0.55
'0:13.428',0.553
'0:13.431',0.563
'0:13.433',0.553
'0:13.436',0.55
'0:13.439',0.547
'0:13.442',0.547
'0:13.444',0.55
'0:13.447',0.553
'0:13.450',0.57
'0:13.453',0.57
'0:13.456',0.583
'0:13.458',0.613
'0:13.461',0.633
'0:13.464',0.663
'0:13.467',0.683
'0:13.469',0.677
'0:13.472',0.677
'0:13.475',0.66
'0:13.478',0.647
'0:13.481',0.643
'0:13.483',0.643
'0:13.486',0.66
'0:13.489',0.673
'0:13.492',0.703
'0:13.494',0.717
'0:13.497',0.73
'0:13.500',0.743
'0:13.503',0.737
'0:13.506',0.737
'0:13.508',0.713
'0:13.511',0.693
'0:13.514',0.677
'0:13.517',0.657
'0:13.519',0.637
'0:13.522',0.623
'0:13.525',0.633
'0:13.528',0.63
'0:13.531',0.637
'0:13.533',0.627
'0:13.536',0.607
'0:13.539',0.597
'0:13.542',0.56
'0:13.544',0.543
'0:13.547',0.523
'0:13.550',0.507
'0:13.553',0.513
'0:13.556',0.507
'0:13.558',0.507
'0:13.561',0.513
'0:13.564',0.517
'0:13.567',0.517
'0:13.569',0.507
'0:13.572',0.503
'0:13.575',0.49
'0:13.578',0.48
'0:13.581',0.48
'0:13.583',0.47
'0:13.586',0.473
'0:13.589',0.467
'0:13.592',0.477
'0:13.594',0.487
'0:13.597',0.49
'0:13.600',0.497
'0:13.603',0.497
'0:13.606',0.507
'0:13.608',0.497
'0:13.611',0.477
'0:13.614',0.47
'0:13.617',0.46
'0:13.619',0.45
'0:13.622',0.423
'0:13.625',0.397
'0:13.628',0.373
'0:13.631',0.32
'0:13.633',0.247
'0:13.636',0.15
'0:13.639',0.03
'0:13.642',-0.083
'0:13.644',-0.223
'0:13.647',-0.35
'0:13.650',-0.477
'0:13.653',-0.61
'0:13.656',-0.73
'0:13.658',-0.847
'0:13.661',-0.893
'0:13.664',-0.89
'0:13.667',-0.827
'0:13.669',-0.707
'0:13.672',-0.553
'0:13.675',-0.387
'0:13.678',-0.243
'0:13.681',-0.12
'0:13.683',-0.037
'0:13.686',0.017
'0:13.689',0.073
'0:13.692',0.167
'0:13.694',0.3
'0:13.697',0.44
'0:13.700',0.553
'0:13.703',0.647
'0:13.706',0.697
'0:13.708',0.707
'0:13.711',0.7
'0:13.714',0.683
'0:13.717',0.663
'0:13.719',0.65
'0:13.722',0.66
'0:13.725',0.677
'0:13.728',0.7
'0:13.731',0.727
'0:13.733',0.737
'0:13.736',0.757
'0:13.739',0.76
'0:13.742',0.76
'0:13.744',0.757
'0:13.747',0.753
'0:13.750',0.753
'0:13.753',0.747
'0:13.756',0.75
'0:13.758',0.763
'0:13.761',0.77
'0:13.764',0.79
'0:13.767',0.8
'0:13.769',0.8
'0:13.772',0.807
'0:13.775',0.803
'0:13.778',0.797
'0:13.781',0.8
'0:13.783',0.793
'0:13.786',0.787
'0:13.789',0.783
'0:13.792',0.793
'0:13.794',0.793
'0:13.797',0.8
'0:13.800',0.81
'0:13.803',0.817
'0:13.806',0.827
'0:13.808',0.83
'0:13.811',0.83
'0:13.814',0.823
'0:13.817',0.817
'0:13.819',0.817
'0:13.822',0.813
'0:13.825',0.82
'0:13.828',0.823
'0:13.831',0.84
'0:13.833',0.837
'0:13.836',0.83
'0:13.839',0.83
'0:13.842',0.82
'0:13.844',0.82
'0:13.847',0.81
'0:13.850',0.797
'0:13.853',0.79
'0:13.856',0.787
'0:13.858',0.793
'0:13.861',0.797
'0:13.864',0.8
'0:13.867',0.8
'0:13.869',0.793
'0:13.872',0.807
'0:13.875',0.803
'0:13.878',0.797
'0:13.881',0.793
'0:13.883',0.783
'0:13.886',0.777
'0:13.889',0.777
'0:13.892',0.773
'0:13.894',0.773
'0:13.897',0.79
'0:13.900',0.783
'0:13.903',0.777
'0:13.906',0.777
'0:13.908',0.777
'0:13.911',0.76
'0:13.914',0.753
'0:13.917',0.737
'0:13.919',0.73
'0:13.922',0.707
'0:13.925',0.707
'0:13.928',0.707
'0:13.931',0.71
'0:13.933',0.723
'0:13.936',0.717
'0:13.939',0.713
'0:13.942',0.707
'0:13.944',0.693
'0:13.947',0.69
'0:13.950',0.677
'0:13.953',0.687
'0:13.956',0.687
'0:13.958',0.683
'0:13.961',0.69
'0:13.964',0.68
'0:13.967',0.683
'0:13.969',0.7
'0:13.972',0.69
'0:13.975',0.69
'0:13.978',0.683
'0:13.981',0.673
'0:13.983',0.66
'0:13.986',0.653
'0:13.989',0.657
'0:13.992',0.647
'0:13.994',0.653
'0:13.997',0.653
'0:14.000',0.66
'0:14.003',0.653
'0:14.006',0.65
'0:14.008',0.653
'0:14.011',0.637
'0:14.014',0.633
'0:14.017',0.627
'0:14.019',0.617
'0:14.022',0.63
'0:14.025',0.617
'0:14.028',0.613
'0:14.031',0.62
'0:14.033',0.62
'0:14.036',0.63
'0:14.039',0.633
'0:14.042',0.63
'0:14.044',0.62
'0:14.047',0.61
'0:14.050',0.607
'0:14.053',0.593
'0:14.056',0.593
'0:14.058',0.59
'0:14.061',0.587
'0:14.064',0.59
'0:14.067',0.573
'0:14.069',0.573
'0:14.072',0.577
'0:14.075',0.567
'0:14.078',0.56
'0:14.081',0.547
'0:14.083',0.543
'0:14.086',0.537
'0:14.089',0.537
'0:14.092',0.537
'0:14.094',0.543
'0:14.097',0.543
'0:14.100',0.547
'0:14.103',0.54
'0:14.106',0.543
'0:14.108',0.527
'0:14.111',0.53
'0:14.114',0.517
'0:14.117',0.513
'0:14.119',0.513
'0:14.122',0.503
'0:14.125',0.503
'0:14.128',0.493
'0:14.131',0.497
'0:14.133',0.487
'0:14.136',0.483
'0:14.139',0.493
'0:14.142',0.49
'0:14.144',0.49
'0:14.147',0.487
'0:14.150',0.48
'0:14.153',0.477
'0:14.156',0.473
'0:14.158',0.49
'0:14.161',0.5
'0:14.164',0.507
'0:14.167',0.527
'0:14.169',0.527
'0:14.172',0.53
'0:14.175',0.52
'0:14.178',0.51
'0:14.181',0.517
'0:14.183',0.513
'0:14.186',0.513
'0:14.189',0.517
'0:14.192',0.52
'0:14.194',0.537
'0:14.197',0.533
'0:14.200',0.537
'0:14.203',0.533
'0:14.206',0.537
'0:14.208',0.543
'0:14.211',0.543
'0:14.214',0.54
'0:14.217',0.53
'0:14.219',0.543
'0:14.222',0.543
'0:14.225',0.553
'0:14.228',0.567
'0:14.231',0.58
'0:14.233',0.59
'0:14.236',0.583
'0:14.239',0.587
'0:14.242',0.59
'0:14.244',0.58
'0:14.247',0.583
'0:14.250',0.573
'0:14.253',0.577
'0:14.256',0.583
'0:14.258',0.583
'0:14.261',0.597
'0:14.264',0.6
'0:14.267',0.607
'0:14.269',0.6
'0:14.272',0.593
'0:14.275',0.59
'0:14.278',0.573
'0:14.281',0.573
'0:14.283',0.573
'0:14.286',0.573
'0:14.289',0.577
'0:14.292',0.583
'0:14.294',0.603
'0:14.297',0.607
'0:14.300',0.61
'0:14.303',0.613
'0:14.306',0.613
'0:14.308',0.613
'0:14.311',0.6
'0:14.314',0.593
'0:14.317',0.59
'0:14.319',0.59
'0:14.322',0.597
'0:14.325',0.603
'0:14.328',0.613
'0:14.331',0.623
'0:14.333',0.62
'0:14.336',0.617
'0:14.339',0.613
'0:14.342',0.607
'0:14.344',0.597
'0:14.347',0.593
'0:14.350',0.593
'0:14.353',0.583
'0:14.356',0.59
'0:14.358',0.597
'0:14.361',0.597
'0:14.364',0.61
'0:14.367',0.613
'0:14.369',0.623
'0:14.372',0.623
'0:14.375',0.613
'0:14.378',0.613
'0:14.381',0.61
'0:14.383',0.607
'0:14.386',0.607
'0:14.389',0.607
'0:14.392',0.617
'0:14.394',0.62
'0:14.397',0.63
'0:14.400',0.623
'0:14.403',0.62
'0:14.406',0.63
'0:14.408',0.62
'0:14.411',0.613
'0:14.414',0.6
'0:14.417',0.593
'0:14.419',0.587
'0:14.422',0.583
'0:14.425',0.59
'0:14.428',0.59
'0:14.431',0.603
'0:14.433',0.6
'0:14.436',0.6
'0:14.439',0.613
'0:14.442',0.61
'0:14.444',0.607
'0:14.447',0.607
'0:14.450',0.61
'0:14.453',0.6
'0:14.456',0.597
'0:14.458',0.597
'0:14.461',0.603
'0:14.464',0.62
'0:14.467',0.617
'0:14.469',0.62
'0:14.472',0.623
'0:14.475',0.613
'0:14.478',0.61
'0:14.481',0.59
'0:14.483',0.587
'0:14.486',0.59
'0:14.489',0.58
'0:14.492',0.583
'0:14.494',0.597
'0:14.497',0.6
'0:14.500',0.603
'0:14.503',0.603
'0:14.506',0.61
'0:14.508',0.593
'0:14.511',0.607
'0:14.514',0.607
'0:14.517',0.59
'0:14.519',0.597
'0:14.522',0.597
'0:14.525',0.6
'0:14.528',0.607
'0:14.531',0.613
'0:14.533',0.633
'0:14.536',0.63
'0:14.539',0.633
'0:14.542',0.627
'0:14.544',0.62
'0:14.547',0.607
'0:14.550',0.59
'0:14.553',0.593
'0:14.556',0.59
'0:14.558',0.597
'0:14.561',0.607
'0:14.564',0.613
'0:14.567',0.62
'0:14.569',0.607
'0:14.572',0.617
'0:14.575',0.62
'0:14.578',0.613
'0:14.581',0.61
'0:14.583',0.6
'0:14.586',0.607
'0:14.589',0.607
'0:14.592',0.61
'0:14.594',0.623
'0:14.597',0.637
'0:14.600',0.647
'0:14.603',0.657
'0:14.606',0.673
'0:14.608',0.69
'0:14.611',0.7
'0:14.614',0.713
'0:14.617',0.7
'0:14.619',0.69
'0:14.622',0.687
'0:14.625',0.677
'0:14.628',0.68
'0:14.631',0.67
'0:14.633',0.677
'0:14.636',0.693
'0:14.639',0.703
'0:14.642',0.73
'0:14.644',0.743
'0:14.647',0.753
'0:14.650',0.76
'0:14.653',0.76
'0:14.656',0.763
'0:14.658',0.753
'0:14.661',0.747
'0:14.664',0.73
'0:14.667',0.72
'0:14.669',0.717
'0:14.672',0.707
'0:14.675',0.69
'0:14.678',0.68
'0:14.681',0.66
'0:14.683',0.643
'0:14.686',0.613
'0:14.689',0.607
'0:14.692',0.567
'0:14.694',0.553
'0:14.697',0.557
'0:14.700',0.54
'0:14.703',0.543
'0:14.706',0.537
'0:14.708',0.527
'0:14.711',0.523
'0:14.714',0.517
'0:14.717',0.51
'0:14.719',0.507
'0:14.722',0.507
'0:14.725',0.507
'0:14.728',0.517
'0:14.731',0.527
'0:14.733',0.513
'0:14.736',0.513
'0:14.739',0.523
'0:14.742',0.52
'0:14.744',0.52
'0:14.747',0.513
'0:14.750',0.503
'0:14.753',0.49
'0:14.756',0.497
'0:14.758',0.5
'0:14.761',0.49
'0:14.764',0.49
'0:14.767',0.477
'0:14.769',0.467
'0:14.772',0.443
'0:14.775',0.403
'0:14.778',0.343
'0:14.781',0.263
'0:14.783',0.153
'0:14.786',0.05
'0:14.789',-0.073
'0:14.792',-0.19
'0:14.794',-0.307
'0:14.797',-0.42
'0:14.800',-0.533
'0:14.803',-0.66
'0:14.806',-0.76
'0:14.808',-0.833
'0:14.811',-0.867
'0:14.814',-0.83
'0:14.817',-0.737
'0:14.819',-0.597
'0:14.822',-0.46
'0:14.825',-0.293
'0:14.828',-0.153
'0:14.831',-0.053
'0:14.833',0.017
'0:14.836',0.073
'0:14.839',0.177
'0:14.842',0.273
'0:14.844',0.387
'0:14.847',0.5
'0:14.850',0.583
'0:14.853',0.65
'0:14.856',0.683
'0:14.858',0.7
'0:14.861',0.713
'0:14.864',0.717
'0:14.867',0.707
'0:14.869',0.703
'0:14.872',0.713
'0:14.875',0.713
'0:14.878',0.723
'0:14.881',0.733
'0:14.883',0.737
'0:14.886',0.747
'0:14.889',0.753
'0:14.892',0.753
'0:14.894',0.76
'0:14.897',0.763
'0:14.900',0.767
'0:14.903',0.767
'0:14.906',0.773
'0:14.908',0.777
'0:14.911',0.77
'0:14.914',0.777
'0:14.917',0.77
'0:14.919',0.76
'0:14.922',0.76
'0:14.925',0.767
'0:14.928',0.783
'0:14.931',0.797
'0:14.933',0.8
'0:14.936',0.8
'0:14.939',0.803
'0:14.942',0.817
'0:14.944',0.8
'0:14.947',0.803
'0:14.950',0.807
'0:14.953',0.81
'0:14.956',0.823
'0:14.958',0.82
'0:14.961',0.823
'0:14.964',0.83
'0:14.967',0.83
'0:14.969',0.843
'0:14.972',0.827
'0:14.975',0.823
'0:14.978',0.817
'0:14.981',0.81
'0:14.983',0.81
'0:14.986',0.803
'0:14.989',0.81
'0:14.992',0.81
'0:14.994',0.813
'0:14.997',0.83
'0:15.000',0.83
'0:15.003',0.83
'0:15.006',0.827
'0:15.008',0.82
'0:15.011',0.817
'0:15.014',0.807
'0:15.017',0.803
'0:15.019',0.797
'0:15.022',0.8
'0:15.025',0.803
'0:15.028',0.8
'0:15.031',0.8
'0:15.033',0.793
'0:15.036',0.787
'0:15.039',0.787
'0:15.042',0.773
'0:15.044',0.77
'0:15.047',0.753
'0:15.050',0.743
'0:15.053',0.737
'0:15.056',0.737
'0:15.058',0.747
'0:15.061',0.753
'0:15.064',0.76
'0:15.067',0.753
'0:15.069',0.76
'0:15.072',0.76
'0:15.075',0.747
'0:15.078',0.737
'0:15.081',0.737
'0:15.083',0.73
'0:15.086',0.713
'0:15.089',0.707
'0:15.092',0.717
'0:15.094',0.723
'0:15.097',0.727
'0:15.100',0.73
'0:15.103',0.73
'0:15.106',0.73
'0:15.108',0.707
'0:15.111',0.69
'0:15.114',0.68
'0:15.117',0.663
'0:15.119',0.663
'0:15.122',0.667
'0:15.125',0.67
'0:15.128',0.68
'0:15.131',0.687
'0:15.133',0.687
'0:15.136',0.683
'0:15.139',0.687
'0:15.142',0.68
'0:15.144',0.667
'0:15.147',0.67
'0:15.150',0.667
'0:15.153',0.667
'0:15.156',0.643
'0:15.158',0.66
'0:15.161',0.673
'0:15.164',0.673
'0:15.167',0.683
'0:15.169',0.687
'0:15.172',0.69
'0:15.175',0.677
'0:15.178',0.653
'0:15.181',0.653
'0:15.183',0.637
'0:15.186',0.637
'0:15.189',0.633
'0:15.192',0.637
'0:15.194',0.643
'0:15.197',0.643
'0:15.200',0.643
'0:15.203',0.643
'0:15.206',0.65
'0:15.208',0.64
'0:15.211',0.623
'0:15.214',0.623
'0:15.217',0.61
'0:15.219',0.607
'0:15.222',0.59
'0:15.225',0.597
'0:15.228',0.603
'0:15.231',0.6
'0:15.233',0.6
'0:15.236',0.607
'0:15.239',0.593
'0:15.242',0.59
'0:15.244',0.573
'0:15.247',0.573
'0:15.250',0.567
'0:15.253',0.55
'0:15.256',0.543
'0:15.258',0.533
'0:15.261',0.533
'0:15.264',0.537
'0:15.267',0.53
'0:15.269',0.527
'0:15.272',0.527
'0:15.275',0.523
'0:15.278',0.51
'0:15.281',0.507
'0:15.283',0.503
'0:15.286',0.5
'0:15.289',0.513
'0:15.292',0.503
'0:15.294',0.5
'0:15.297',0.513
'0:15.300',0.507
'0:15.303',0.503
'0:15.306',0.513
'0:15.308',0.527
'0:15.311',0.52
'0:15.314',0.513
'0:15.317',0.517
'0:15.319',0.507
'0:15.322',0.497
'0:15.325',0.503
'0:15.328',0.503
'0:15.331',0.507
'0:15.333',0.51
'0:15.336',0.52
'0:15.339',0.52
'0:15.342',0.513
'0:15.344',0.513
'0:15.347',0.51
'0:15.350',0.51
'0:15.353',0.507
'0:15.356',0.51
'0:15.358',0.52
'0:15.361',0.53
'0:15.364',0.543
'0:15.367',0.553
'0:15.369',0.56
'0:15.372',0.56
'0:15.375',0.56
'0:15.378',0.557
'0:15.381',0.543
'0:15.383',0.537
'0:15.386',0.537
'0:15.389',0.53
'0:15.392',0.543
'0:15.394',0.547
'0:15.397',0.563
'0:15.400',0.573
'0:15.403',0.57
'0:15.406',0.573
'0:15.408',0.56
'0:15.411',0.557
'0:15.414',0.55
'0:15.417',0.547
'0:15.419',0.543
'0:15.422',0.547
'0:15.425',0.56
'0:15.428',0.567
'0:15.431',0.583
'0:15.433',0.59
'0:15.436',0.59
'0:15.439',0.597
'0:15.442',0.58
'0:15.444',0.577
'0:15.447',0.573
'0:15.450',0.567
'0:15.453',0.573
'0:15.456',0.57
'0:15.458',0.573
'0:15.461',0.583
'0:15.464',0.597
'0:15.467',0.603
'0:15.469',0.597
'0:15.472',0.607
'0:15.475',0.593
'0:15.478',0.583
'0:15.481',0.577
'0:15.483',0.567
'0:15.486',0.567
'0:15.489',0.567
'0:15.492',0.57
'0:15.494',0.573
'0:15.497',0.573
'0:15.500',0.597
'0:15.503',0.6
'0:15.506',0.607
'0:15.508',0.6
'0:15.511',0.583
'0:15.514',0.59
'0:15.517',0.577
'0:15.519',0.587
'0:15.522',0.583
'0:15.525',0.583
'0:15.528',0.59
'0:15.531',0.597
'0:15.533',0.613
'0:15.536',0.613
'0:15.539',0.613
'0:15.542',0.613
'0:15.544',0.603
'0:15.547',0.597
'0:15.550',0.587
'0:15.553',0.58
'0:15.556',0.577
'0:15.558',0.567
'0:15.561',0.573
'0:15.564',0.583
'0:15.567',0.587
'0:15.569',0.597
'0:15.572',0.607
'0:15.575',0.603
'0:15.578',0.603
'0:15.581',0.597
'0:15.583',0.603
'0:15.586',0.593
'0:15.589',0.593
'0:15.592',0.593
'0:15.594',0.603
'0:15.597',0.61
'0:15.600',0.61
'0:15.603',0.617
'0:15.606',0.617
'0:15.608',0.613
'0:15.611',0.61
'0:15.614',0.607
'0:15.617',0.6
'0:15.619',0.59
'0:15.622',0.593
'0:15.625',0.593
'0:15.628',0.603
'0:15.631',0.607
'0:15.633',0.607
'0:15.636',0.603
'0:15.639',0.6
'0:15.642',0.603
'0:15.644',0.603
'0:15.647',0.597
'0:15.650',0.6
'0:15.653',0.597
'0:15.656',0.597
'0:15.658',0.607
'0:15.661',0.61
'0:15.664',0.62
'0:15.667',0.623
'0:15.669',0.62
'0:15.672',0.623
'0:15.675',0.62
'0:15.678',0.62
'0:15.681',0.61
'0:15.683',0.613
'0:15.686',0.61
'0:15.689',0.603
'0:15.692',0.61
'0:15.694',0.603
'0:15.697',0.617
'0:15.700',0.617
'0:15.703',0.613
'0:15.706',0.613
'0:15.708',0.597
'0:15.711',0.603
'0:15.714',0.597
'0:15.717',0.597
'0:15.719',0.6
'0:15.722',0.59
'0:15.725',0.597
'0:15.728',0.593
'0:15.731',0.62
'0:15.733',0.63
'0:15.736',0.627
'0:15.739',0.63
'0:15.742',0.62
'0:15.744',0.62
'0:15.747',0.613
'0:15.750',0.603
'0:15.753',0.61
'0:15.756',0.593
'0:15.758',0.6
'0:15.761',0.613
'0:15.764',0.62
'0:15.767',0.633
'0:15.769',0.637
'0:15.772',0.657
'0:15.775',0.66
'0:15.778',0.663
'0:15.781',0.673
'0:15.783',0.673
'0:15.786',0.68
'0:15.789',0.677
'0:15.792',0.677
'0:15.794',0.683
'0:15.797',0.683
'0:15.800',0.69
'0:15.803',0.7
'0:15.806',0.707
'0:15.808',0.72
'0:15.811',0.73
'0:15.814',0.767
'0:15.817',0.773
'0:15.819',0.78
'0:15.822',0.78
'0:15.825',0.77
'0:15.828',0.76
'0:15.831',0.747
'0:15.833',0.73
'0:15.836',0.717
'0:15.839',0.707
'0:15.842',0.683
'0:15.844',0.653
'0:15.847',0.653
'0:15.850',0.633
'0:15.853',0.617
'0:15.856',0.607
'0:15.858',0.587
'0:15.861',0.583
'0:15.864',0.563
'0:15.867',0.563
'0:15.869',0.553
'0:15.872',0.55
'0:15.875',0.557
'0:15.878',0.537
'0:15.881',0.54
'0:15.883',0.527
'0:15.886',0.527
'0:15.889',0.527
'0:15.892',0.527
'0:15.894',0.55
'0:15.897',0.54
'0:15.900',0.543
'0:15.903',0.55
'0:15.906',0.54
'0:15.908',0.53
'0:15.911',0.513
'0:15.914',0.5
'0:15.917',0.497
'0:15.919',0.493
'0:15.922',0.497
'0:15.925',0.497
'0:15.928',0.497
'0:15.931',0.493
'0:15.933',0.493
'0:15.936',0.497
'0:15.939',0.483
'0:15.942',0.46
'0:15.944',0.423
'0:15.947',0.373
'0:15.950',0.303
'0:15.953',0.2
'0:15.956',0.083
'0:15.958',-0.033
'0:15.961',-0.153
'0:15.964',-0.27
'0:15.967',-0.39
'0:15.969',-0.507
'0:15.972',-0.623
'0:15.975',-0.743
'0:15.978',-0.83
'0:15.981',-0.887
'0:15.983',-0.883
'0:15.986',-0.827
'0:15.989',-0.713
'0:15.992',-0.573
'0:15.994',-0.42
'0:15.997',-0.257
'0:16.000',-0.13
'0:16.003',-0.027
'0:16.006',0.043
'0:16.008',0.117
'0:16.011',0.223
'0:16.014',0.343
'0:16.017',0.473
'0:16.019',0.577
'0:16.022',0.657
'0:16.025',0.707
'0:16.028',0.727
'0:16.031',0.747
'0:16.033',0.747
'0:16.036',0.74
'0:16.039',0.737
'0:16.042',0.723
'0:16.044',0.72
'0:16.047',0.723
'0:16.050',0.723
'0:16.053',0.733
'0:16.056',0.74
'0:16.058',0.747
'0:16.061',0.757
'0:16.064',0.763
'0:16.067',0.77
'0:16.069',0.77
'0:16.072',0.763
'0:16.075',0.77
'0:16.078',0.783
'0:16.081',0.783
'0:16.083',0.777
'0:16.086',0.793
'0:16.089',0.787
'0:16.092',0.803
'0:16.094',0.807
'0:16.097',0.807
'0:16.100',0.823
'0:16.103',0.823
'0:16.106',0.837
'0:16.108',0.833
'0:16.111',0.83
'0:16.114',0.827
'0:16.117',0.823
'0:16.119',0.813
'0:16.122',0.813
'0:16.125',0.823
'0:16.128',0.827
'0:16.131',0.823
'0:16.133',0.83
'0:16.136',0.833
'0:16.139',0.847
'0:16.142',0.84
'0:16.144',0.833
'0:16.147',0.83
'0:16.150',0.83
'0:16.153',0.823
'0:16.156',0.83
'0:16.158',0.837
'0:16.161',0.84
'0:16.164',0.84
'0:16.167',0.857
'0:16.169',0.847
'0:16.172',0.833
'0:16.175',0.827
'0:16.178',0.823
'0:16.181',0.837
'0:16.183',0.83
'0:16.186',0.82
'0:16.189',0.817
'0:16.192',0.81
'0:16.194',0.817
'0:16.197',0.817
'0:16.200',0.807
'0:16.203',0.817
'0:16.206',0.817
'0:16.208',0.81
'0:16.211',0.783
'0:16.214',0.79
'0:16.217',0.783
'0:16.219',0.777
'0:16.222',0.787
'0:16.225',0.777
'0:16.228',0.783
'0:16.231',0.79
'0:16.233',0.783
'0:16.236',0.787
'0:16.239',0.79
'0:16.242',0.787
'0:16.244',0.777
'0:16.247',0.76
'0:16.250',0.757
'0:16.253',0.753
'0:16.256',0.747
'0:16.258',0.73
'0:16.261',0.73
'0:16.264',0.73
'0:16.267',0.74
'0:16.269',0.737
'0:16.272',0.733
'0:16.275',0.73
'0:16.278',0.723
'0:16.281',0.717
'0:16.283',0.71
'0:16.286',0.707
'0:16.289',0.703
'0:16.292',0.707
'0:16.294',0.707
'0:16.297',0.713
'0:16.300',0.713
'0:16.303',0.72
'0:16.306',0.717
'0:16.308',0.707
'0:16.311',0.7
'0:16.314',0.687
'0:16.317',0.69
'0:16.319',0.68
'0:16.322',0.667
'0:16.325',0.667
'0:16.328',0.677
'0:16.331',0.677
'0:16.333',0.663
'0:16.336',0.66
'0:16.339',0.66
'0:16.342',0.64
'0:16.344',0.637
'0:16.347',0.63
'0:16.350',0.637
'0:16.353',0.633
'0:16.356',0.637
'0:16.358',0.637
'0:16.361',0.633
'0:16.364',0.647
'0:16.367',0.63
'0:16.369',0.633
'0:16.372',0.633
'0:16.375',0.607
'0:16.378',0.613
'0:16.381',0.603
'0:16.383',0.587
'0:16.386',0.577
'0:16.389',0.583
'0:16.392',0.583
'0:16.394',0.59
'0:16.397',0.59
'0:16.400',0.59
'0:16.403',0.583
'0:16.406',0.58
'0:16.408',0.55
'0:16.411',0.553
'0:16.414',0.55
'0:16.417',0.533
'0:16.419',0.527
'0:16.422',0.52
'0:16.425',0.527
'0:16.428',0.537
'0:16.431',0.537
'0:16.433',0.54
'0:16.436',0.537
'0:16.439',0.537
'0:16.442',0.527
'0:16.444',0.52
'0:16.447',0.517
'0:16.450',0.5
'0:16.453',0.507
'0:16.456',0.507
'0:16.458',0.52
'0:16.461',0.523
'0:16.464',0.537
'0:16.467',0.537
'0:16.469',0.527
'0:16.472',0.537
'0:16.475',0.513
'0:16.478',0.503
'0:16.481',0.503
'0:16.483',0.497
'0:16.486',0.497
'0:16.489',0.513
'0:16.492',0.517
'0:16.494',0.537
'0:16.497',0.543
'0:16.500',0.557
'0:16.503',0.557
'0:16.506',0.56
'0:16.508',0.56
'0:16.511',0.543
'0:16.514',0.55
'0:16.517',0.543
'0:16.519',0.543
'0:16.522',0.55
'0:16.525',0.557
'0:16.528',0.567
'0:16.531',0.57
'0:16.533',0.577
'0:16.536',0.573
'0:16.539',0.567
'0:16.542',0.56
'0:16.544',0.537
'0:16.547',0.543
'0:16.550',0.537
'0:16.553',0.537
'0:16.556',0.543
'0:16.558',0.55
'0:16.561',0.557
'0:16.564',0.56
'0:16.567',0.573
'0:16.569',0.583
'0:16.572',0.583
'0:16.575',0.583
'0:16.578',0.573
'0:16.581',0.577
'0:16.583',0.56
'0:16.586',0.56
'0:16.589',0.58
'0:16.592',0.577
'0:16.594',0.583
'0:16.597',0.597
'0:16.600',0.6
'0:16.603',0.607
'0:16.606',0.6
'0:16.608',0.597
'0:16.611',0.577
'0:16.614',0.583
'0:16.617',0.567
'0:16.619',0.557
'0:16.622',0.56
'0:16.625',0.56
'0:16.628',0.567
'0:16.631',0.577
'0:16.633',0.573
'0:16.636',0.583
'0:16.639',0.59
'0:16.642',0.59
'0:16.644',0.59
'0:16.647',0.583
'0:16.650',0.573
'0:16.653',0.56
'0:16.656',0.57
'0:16.658',0.587
'0:16.661',0.59
'0:16.664',0.607
'0:16.667',0.597
'0:16.669',0.607
'0:16.672',0.607
'0:16.675',0.597
'0:16.678',0.597
'0:16.681',0.59
'0:16.683',0.577
'0:16.686',0.563
'0:16.689',0.557
'0:16.692',0.563
'0:16.694',0.567
'0:16.697',0.57
'0:16.700',0.573
'0:16.703',0.58
'0:16.706',0.587
'0:16.708',0.573
'0:16.711',0.57
'0:16.714',0.567
'0:16.717',0.56
'0:16.719',0.56
'0:16.722',0.563
'0:16.725',0.573
'0:16.728',0.577
'0:16.731',0.587
'0:16.733',0.59
'0:16.736',0.59
'0:16.739',0.597
'0:16.742',0.583
'0:16.744',0.587
'0:16.747',0.58
'0:16.750',0.563
'0:16.753',0.567
'0:16.756',0.56
'0:16.758',0.57
'0:16.761',0.57
'0:16.764',0.573
'0:16.767',0.577
'0:16.769',0.577
'0:16.772',0.587
'0:16.775',0.573
'0:16.778',0.577
'0:16.781',0.583
'0:16.783',0.573
'0:16.786',0.573
'0:16.789',0.573
'0:16.792',0.577
'0:16.794',0.583
'0:16.797',0.59
'0:16.800',0.59
'0:16.803',0.59
'0:16.806',0.593
'0:16.808',0.59
'0:16.811',0.59
'0:16.814',0.59
'0:16.817',0.57
'0:16.819',0.57
'0:16.822',0.563
'0:16.825',0.563
'0:16.828',0.57
'0:16.831',0.57
'0:16.833',0.577
'0:16.836',0.573
'0:16.839',0.573
'0:16.842',0.577
'0:16.844',0.563
'0:16.847',0.563
'0:16.850',0.553
'0:16.853',0.56
'0:16.856',0.563
'0:16.858',0.56
'0:16.861',0.573
'0:16.864',0.58
'0:16.867',0.583
'0:16.869',0.587
'0:16.872',0.59
'0:16.875',0.583
'0:16.878',0.58
'0:16.881',0.58
'0:16.883',0.577
'0:16.886',0.57
'0:16.889',0.57
'0:16.892',0.567
'0:16.894',0.573
'0:16.897',0.573
'0:16.900',0.577
'0:16.903',0.573
'0:16.906',0.57
'0:16.908',0.567
'0:16.911',0.56
'0:16.914',0.56
'0:16.917',0.567
'0:16.919',0.567
'0:16.922',0.573
'0:16.925',0.593
'0:16.928',0.617
'0:16.931',0.647
'0:16.933',0.653
'0:16.936',0.667
'0:16.939',0.667
'0:16.942',0.653
'0:16.944',0.637
'0:16.947',0.63
'0:16.950',0.63
'0:16.953',0.63
'0:16.956',0.64
'0:16.958',0.653
'0:16.961',0.683
'0:16.964',0.717
'0:16.967',0.73
'0:16.969',0.74
'0:16.972',0.747
'0:16.975',0.74
'0:16.978',0.723
'0:16.981',0.693
'0:16.983',0.667
'0:16.986',0.643
'0:16.989',0.63
'0:16.992',0.62
'0:16.994',0.62
'0:16.997',0.627
'0:17.000',0.62
'0:17.003',0.61
'0:17.006',0.607
'0:17.008',0.58
'0:17.011',0.56
'0:17.014',0.523
'0:17.017',0.493
'0:17.019',0.49
'0:17.022',0.48
'0:17.025',0.49
'0:17.028',0.49
'0:17.031',0.497
'0:17.033',0.49
'0:17.036',0.483
'0:17.039',0.483
'0:17.042',0.467
'0:17.044',0.457
'0:17.047',0.457
'0:17.050',0.44
'0:17.053',0.443
'0:17.056',0.443
'0:17.058',0.457
'0:17.061',0.453
'0:17.064',0.47
'0:17.067',0.47
'0:17.069',0.463
'0:17.072',0.477
'0:17.075',0.46
'0:17.078',0.45
'0:17.081',0.443
'0:17.083',0.427
'0:17.086',0.427
'0:17.089',0.403
'0:17.092',0.403
'0:17.094',0.373
'0:17.097',0.333
'0:17.100',0.27
'0:17.103',0.167
'0:17.106',0.06
'0:17.108',-0.07
'0:17.111',-0.22
'0:17.114',-0.34
'0:17.117',-0.48
'0:17.119',-0.613
'0:17.122',-0.743
'0:17.125',-0.863
'0:17.128',-0.923
'0:17.131',-0.947
'0:17.133',-0.903
'0:17.136',-0.813
'0:17.139',-0.677
'0:17.142',-0.527
'0:17.144',-0.38
'0:17.147',-0.237
'0:17.150',-0.14
'0:17.153',-0.057
'0:17.156',0.013
'0:17.158',0.123
'0:17.161',0.253
'0:17.164',0.387
'0:17.167',0.517
'0:17.169',0.607
'0:17.172',0.657
'0:17.175',0.68
'0:17.178',0.67
'0:17.181',0.673
'0:17.183',0.653
'0:17.186',0.643
'0:17.189',0.643
'0:17.192',0.64
'0:17.194',0.66
'0:17.197',0.663
'0:17.200',0.677
'0:17.203',0.69
'0:17.206',0.697
'0:17.208',0.693
'0:17.211',0.69
'0:17.214',0.683
'0:17.217',0.693
'0:17.219',0.693
'0:17.222',0.707
'0:17.225',0.707
'0:17.228',0.727
'0:17.231',0.737
'0:17.233',0.73
'0:17.236',0.74
'0:17.239',0.737
'0:17.242',0.747
'0:17.244',0.74
'0:17.247',0.733
'0:17.250',0.74
'0:17.253',0.733
'0:17.256',0.74
'0:17.258',0.743
'0:17.261',0.75
'0:17.264',0.76
'0:17.267',0.76
'0:17.269',0.76
'0:17.272',0.763
'0:17.275',0.757
'0:17.278',0.753
'0:17.281',0.743
'0:17.283',0.743
'0:17.286',0.743
'0:17.289',0.74
'0:17.292',0.747
'0:17.294',0.763
'0:17.297',0.777
'0:17.300',0.777
'0:17.303',0.78
'0:17.306',0.777
'0:17.308',0.77
'0:17.311',0.76
'0:17.314',0.757
'0:17.317',0.76
'0:17.319',0.75
'0:17.322',0.743
'0:17.325',0.747
'0:17.328',0.75
'0:17.331',0.753
'0:17.333',0.75
'0:17.336',0.75
'0:17.339',0.753
'0:17.342',0.74
'0:17.344',0.737
'0:17.347',0.727
'0:17.350',0.713
'0:17.353',0.713
'0:17.356',0.713
'0:17.358',0.72
'0:17.361',0.713
'0:17.364',0.73
'0:17.367',0.73
'0:17.369',0.72
'0:17.372',0.723
'0:17.375',0.71
'0:17.378',0.707
'0:17.381',0.693
'0:17.383',0.677
'0:17.386',0.677
'0:17.389',0.67
'0:17.392',0.673
'0:17.394',0.673
'0:17.397',0.667
'0:17.400',0.663
'0:17.403',0.667
'0:17.406',0.667
'0:17.408',0.653
'0:17.411',0.633
'0:17.414',0.63
'0:17.417',0.613
'0:17.419',0.613
'0:17.422',0.607
'0:17.425',0.613
'0:17.428',0.63
'0:17.431',0.63
'0:17.433',0.63
'0:17.436',0.637
'0:17.439',0.637
'0:17.442',0.627
'0:17.444',0.613
'0:17.447',0.61
'0:17.450',0.59
'0:17.453',0.597
'0:17.456',0.593
'0:17.458',0.59
'0:17.461',0.597
'0:17.464',0.593
'0:17.467',0.593
'0:17.469',0.583
'0:17.472',0.58
'0:17.475',0.567
'0:17.478',0.55
'0:17.481',0.557
'0:17.483',0.537
'0:17.486',0.54
'0:17.489',0.54
'0:17.492',0.537
'0:17.494',0.54
'0:17.497',0.55
'0:17.500',0.55
'0:17.503',0.553
'0:17.506',0.55
'0:17.508',0.53
'0:17.511',0.513
'0:17.514',0.513
'0:17.517',0.507
'0:17.519',0.5
'0:17.522',0.503
'0:17.525',0.5
'0:17.528',0.507
'0:17.531',0.487
'0:17.533',0.49
'0:17.536',0.49
'0:17.539',0.48
'0:17.542',0.473
'0:17.544',0.45
'0:17.547',0.443
'0:17.550',0.433
'0:17.553',0.427
'0:17.556',0.423
'0:17.558',0.423
'0:17.561',0.427
'0:17.564',0.44
'0:17.567',0.43
'0:17.569',0.433
'0:17.572',0.42
'0:17.575',0.413
'0:17.578',0.407
'0:17.581',0.39
'0:17.583',0.397
'0:17.586',0.39
'0:17.589',0.393
'0:17.592',0.393
'0:17.594',0.4
'0:17.597',0.413
'0:17.600',0.407
'0:17.603',0.413
'0:17.606',0.41
'0:17.608',0.403
'0:17.611',0.383
'0:17.614',0.38
'0:17.617',0.38
'0:17.619',0.373
'0:17.622',0.377
'0:17.625',0.387
'0:17.628',0.39
'0:17.631',0.403
'0:17.633',0.397
'0:17.636',0.41
'0:17.639',0.427
'0:17.642',0.42
'0:17.644',0.417
'0:17.647',0.41
'0:17.650',0.41
'0:17.653',0.41
'0:17.656',0.407
'0:17.658',0.427
'0:17.661',0.433
'0:17.664',0.44
'0:17.667',0.443
'0:17.669',0.447
'0:17.672',0.457
'0:17.675',0.44
'0:17.678',0.433
'0:17.681',0.43
'0:17.683',0.417
'0:17.686',0.42
'0:17.689',0.413
'0:17.692',0.42
'0:17.694',0.427
'0:17.697',0.427
'0:17.700',0.443
'0:17.703',0.45
'0:17.706',0.457
'0:17.708',0.447
'0:17.711',0.447
'0:17.714',0.447
'0:17.717',0.433
'0:17.719',0.443
'0:17.722',0.427
'0:17.725',0.443
'0:17.728',0.457
'0:17.731',0.463
'0:17.733',0.47
'0:17.736',0.47
'0:17.739',0.467
'0:17.742',0.457
'0:17.744',0.453
'0:17.747',0.45
'0:17.750',0.437
'0:17.753',0.433
'0:17.756',0.437
'0:17.758',0.433
'0:17.761',0.443
'0:17.764',0.45
'0:17.767',0.457
'0:17.769',0.45
'0:17.772',0.45
'0:17.775',0.447
'0:17.778',0.433
'0:17.781',0.447
'0:17.783',0.43
'0:17.786',0.443
'0:17.789',0.443
'0:17.792',0.443
'0:17.794',0.457
'0:17.797',0.457
'0:17.800',0.473
'0:17.803',0.47
'0:17.806',0.467
'0:17.808',0.457
'0:17.811',0.447
'0:17.814',0.443
'0:17.817',0.433
'0:17.819',0.427
'0:17.822',0.43
'0:17.825',0.427
'0:17.828',0.443
'0:17.831',0.443
'0:17.833',0.45
'0:17.836',0.453
'0:17.839',0.45
'0:17.842',0.447
'0:17.844',0.437
'0:17.847',0.443
'0:17.850',0.437
'0:17.853',0.43
'0:17.856',0.433
'0:17.858',0.433
'0:17.861',0.443
'0:17.864',0.45
'0:17.867',0.447
'0:17.869',0.453
'0:17.872',0.45
'0:17.875',0.45
'0:17.878',0.45
'0:17.881',0.44
'0:17.883',0.433
'0:17.886',0.42
'0:17.889',0.427
'0:17.892',0.423
'0:17.894',0.43
'0:17.897',0.437
'0:17.900',0.433
'0:17.903',0.43
'0:17.906',0.437
'0:17.908',0.433
'0:17.911',0.427
'0:17.914',0.427
'0:17.917',0.423
'0:17.919',0.42
'0:17.922',0.42
'0:17.925',0.427
'0:17.928',0.443
'0:17.931',0.447
'0:17.933',0.44
'0:17.936',0.443
'0:17.939',0.457
'0:17.942',0.45
'0:17.944',0.447
'0:17.947',0.427
'0:17.950',0.437
'0:17.953',0.43
'0:17.956',0.427
'0:17.958',0.433
'0:17.961',0.433
'0:17.964',0.443
'0:17.967',0.433
'0:17.969',0.437
'0:17.972',0.437
'0:17.975',0.427
'0:17.978',0.42
'0:17.981',0.413
'0:17.983',0.42
'0:17.986',0.413
'0:17.989',0.417
'0:17.992',0.427
'0:17.994',0.433
'0:17.997',0.443
'0:18.000',0.45
'0:18.003',0.443
'0:18.006',0.443
'0:18.008',0.433
'0:18.011',0.427
'0:18.014',0.427
'0:18.017',0.42
'0:18.019',0.423
'0:18.022',0.417
'0:18.025',0.423
'0:18.028',0.433
'0:18.031',0.447
'0:18.033',0.433
'0:18.036',0.433
'0:18.039',0.437
'0:18.042',0.42
'0:18.044',0.423
'0:18.047',0.413
'0:18.050',0.41
'0:18.053',0.41
'0:18.056',0.41
'0:18.058',0.42
'0:18.061',0.43
'0:18.064',0.44
'0:18.067',0.46
'0:18.069',0.467
'0:18.072',0.477
'0:18.075',0.49
'0:18.078',0.497
'0:18.081',0.513
'0:18.083',0.51
'0:18.086',0.513
'0:18.089',0.507
'0:18.092',0.507
'0:18.094',0.51
'0:18.097',0.513
'0:18.100',0.507
'0:18.103',0.51
'0:18.106',0.53
'0:18.108',0.55
'0:18.111',0.56
'0:18.114',0.577
'0:18.117',0.577
'0:18.119',0.58
'0:18.122',0.573
'0:18.125',0.56
'0:18.128',0.547
'0:18.131',0.53
'0:18.133',0.537
'0:18.136',0.52
'0:18.139',0.52
'0:18.142',0.503
'0:18.144',0.483
'0:18.147',0.47
'0:18.150',0.457
'0:18.153',0.44
'0:18.156',0.42
'0:18.158',0.397
'0:18.161',0.383
'0:18.164',0.373
'0:18.167',0.373
'0:18.169',0.367
'0:18.172',0.363
'0:18.175',0.357
'0:18.178',0.337
'0:18.181',0.337
'0:18.183',0.33
'0:18.186',0.317
'0:18.189',0.327
'0:18.192',0.323
'0:18.194',0.33
'0:18.197',0.333
'0:18.200',0.34
'0:18.203',0.34
'0:18.206',0.34
'0:18.208',0.35
'0:18.211',0.34
'0:18.214',0.327
'0:18.217',0.333
'0:18.219',0.327
'0:18.222',0.337
'0:18.225',0.327
'0:18.228',0.337
'0:18.231',0.34
'0:18.233',0.333
'0:18.236',0.317
'0:18.239',0.29
'0:18.242',0.25
'0:18.244',0.217
'0:18.247',0.13
'0:18.250',0.03
'0:18.253',-0.08
'0:18.256',-0.203
'0:18.258',-0.327
'0:18.261',-0.457
'0:18.264',-0.56
'0:18.267',-0.683
'0:18.269',-0.807
'0:18.272',-0.923
'0:18.275',-1.023
'0:18.278',-1.07
'0:18.281',-1.06
'0:18.283',-0.98
'0:18.286',-0.87
'0:18.289',-0.717
'0:18.292',-0.537
'0:18.294',-0.38
'0:18.297',-0.25
'0:18.300',-0.17
'0:18.303',-0.08
'0:18.306',0.023
'0:18.308',0.14
'0:18.311',0.26
'0:18.314',0.373
'0:18.317',0.467
'0:18.319',0.507
'0:18.322',0.523
'0:18.325',0.537
'0:18.328',0.537
'0:18.331',0.53
'0:18.333',0.527
'0:18.336',0.537
'0:18.339',0.537
'0:18.342',0.54
'0:18.344',0.55
'0:18.347',0.557
'0:18.350',0.55
'0:18.353',0.56
'0:18.356',0.563
'0:18.358',0.58
'0:18.361',0.593
'0:18.364',0.6
'0:18.367',0.617
'0:18.369',0.613
'0:18.372',0.63
'0:18.375',0.62
'0:18.378',0.61
'0:18.381',0.61
'0:18.383',0.6
'0:18.386',0.607
'0:18.389',0.593
'0:18.392',0.61
'0:18.394',0.617
'0:18.397',0.617
'0:18.400',0.623
'0:18.403',0.633
'0:18.406',0.637
'0:18.408',0.637
'0:18.411',0.63
'0:18.414',0.637
'0:18.417',0.63
'0:18.419',0.637
'0:18.422',0.63
'0:18.425',0.627
'0:18.428',0.643
'0:18.431',0.65
'0:18.433',0.663
'0:18.436',0.663
'0:18.439',0.663
'0:18.442',0.66
'0:18.444',0.647
'0:18.447',0.647
'0:18.450',0.627
'0:18.453',0.637
'0:18.456',0.637
'0:18.458',0.637
'0:18.461',0.643
'0:18.464',0.643
'0:18.467',0.637
'0:18.469',0.643
'0:18.472',0.643
'0:18.475',0.643
'0:18.478',0.627
'0:18.481',0.63
'0:18.483',0.613
'0:18.486',0.613
'0:18.489',0.61
'0:18.492',0.613
'0:18.494',0.62
'0:18.497',0.617
'0:18.500',0.62
'0:18.503',0.63
'0:18.506',0.627
'0:18.508',0.62
'0:18.511',0.61
'0:18.514',0.607
'0:18.517',0.597
'0:18.519',0.573
'0:18.522',0.573
'0:18.525',0.573
'0:18.528',0.563
'0:18.531',0.573
'0:18.533',0.563
'0:18.536',0.573
'0:18.539',0.567
'0:18.542',0.553
'0:18.544',0.54
'0:18.547',0.533
'0:18.550',0.537
'0:18.553',0.527
'0:18.556',0.527
'0:18.558',0.53
'0:18.561',0.537
'0:18.564',0.54
'0:18.567',0.533
'0:18.569',0.53
'0:18.572',0.53
'0:18.575',0.527
'0:18.578',0.52
'0:18.581',0.51
'0:18.583',0.503
'0:18.586',0.493
'0:18.589',0.493
'0:18.592',0.49
'0:18.594',0.477
'0:18.597',0.473
'0:18.600',0.47
'0:18.603',0.473
'0:18.606',0.473
'0:18.608',0.46
'0:18.611',0.457
'0:18.614',0.45
'0:18.617',0.45
'0:18.619',0.437
'0:18.622',0.427
'0:18.625',0.437
'0:18.628',0.433
'0:18.631',0.433
'0:18.633',0.433
'0:18.636',0.437
'0:18.639',0.427
'0:18.642',0.417
'0:18.644',0.42
'0:18.647',0.41
'0:18.650',0.403
'0:18.653',0.393
'0:18.656',0.383
'0:18.658',0.397
'0:18.661',0.393
'0:18.664',0.393
'0:18.667',0.393
'0:18.669',0.38
'0:18.672',0.383
'0:18.675',0.363
'0:18.678',0.353
'0:18.681',0.35
'0:18.683',0.327
'0:18.686',0.32
'0:18.689',0.32
'0:18.692',0.323
'0:18.694',0.327
'0:18.697',0.333
'0:18.700',0.327
'0:18.703',0.33
'0:18.706',0.34
'0:18.708',0.323
'0:18.711',0.317
'0:18.714',0.303
'0:18.717',0.293
'0:18.719',0.293
'0:18.722',0.29
'0:18.725',0.29
'0:18.728',0.303
'0:18.731',0.297
'0:18.733',0.303
'0:18.736',0.287
'0:18.739',0.293
'0:18.742',0.283
'0:18.744',0.27
'0:18.747',0.27
'0:18.750',0.26
'0:18.753',0.27
'0:18.756',0.267
'0:18.758',0.283
'0:18.761',0.29
'0:18.764',0.293
'0:18.767',0.303
'0:18.769',0.303
'0:18.772',0.303
'0:18.775',0.303
'0:18.778',0.28
'0:18.781',0.287
'0:18.783',0.28
'0:18.786',0.293
'0:18.789',0.293
'0:18.792',0.293
'0:18.794',0.303
'0:18.797',0.317
'0:18.800',0.317
'0:18.803',0.31
'0:18.806',0.31
'0:18.808',0.313
'0:18.811',0.307
'0:18.814',0.31
'0:18.817',0.3
'0:18.819',0.303
'0:18.822',0.31
'0:18.825',0.313
'0:18.828',0.33
'0:18.831',0.337
'0:18.833',0.34
'0:18.836',0.34
'0:18.839',0.34
'0:18.842',0.34
'0:18.844',0.34
'0:18.847',0.337
'0:18.850',0.33
'0:18.853',0.32
'0:18.856',0.327
'0:18.858',0.34
'0:18.861',0.343
'0:18.864',0.35
'0:18.867',0.343
'0:18.869',0.35
'0:18.872',0.34
'0:18.875',0.33
'0:18.878',0.333
'0:18.881',0.327
'0:18.883',0.33
'0:18.886',0.317
'0:18.889',0.317
'0:18.892',0.323
'0:18.894',0.333
'0:18.897',0.35
'0:18.900',0.35
'0:18.903',0.357
'0:18.906',0.357
'0:18.908',0.347
'0:18.911',0.353
'0:18.914',0.343
'0:18.917',0.343
'0:18.919',0.34
'0:18.922',0.34
'0:18.925',0.35
'0:18.928',0.357
'0:18.931',0.363
'0:18.933',0.35
'0:18.936',0.36
'0:18.939',0.357
'0:18.942',0.34
'0:18.944',0.327
'0:18.947',0.32
'0:18.950',0.323
'0:18.953',0.317
'0:18.956',0.32
'0:18.958',0.333
'0:18.961',0.343
'0:18.964',0.353
'0:18.967',0.357
'0:18.969',0.357
'0:18.972',0.363
'0:18.975',0.35
'0:18.978',0.343
'0:18.981',0.333
'0:18.983',0.333
'0:18.986',0.33
'0:18.989',0.317
'0:18.992',0.34
'0:18.994',0.35
'0:18.997',0.35
'0:19.000',0.363
'0:19.003',0.363
'0:19.006',0.363
'0:19.008',0.353
'0:19.011',0.337
'0:19.014',0.33
'0:19.017',0.317
'0:19.019',0.323
'0:19.022',0.323
'0:19.025',0.333
'0:19.028',0.35
'0:19.031',0.35
'0:19.033',0.357
'0:19.036',0.357
'0:19.039',0.357
'0:19.042',0.35
'0:19.044',0.347
'0:19.047',0.34
'0:19.050',0.323
'0:19.053',0.327
'0:19.056',0.323
'0:19.058',0.343
'0:19.061',0.34
'0:19.064',0.35
'0:19.067',0.35
'0:19.069',0.357
'0:19.072',0.363
'0:19.075',0.353
'0:19.078',0.333
'0:19.081',0.337
'0:19.083',0.32
'0:19.086',0.317
'0:19.089',0.313
'0:19.092',0.313
'0:19.094',0.327
'0:19.097',0.327
'0:19.100',0.34
'0:19.103',0.35
'0:19.106',0.347
'0:19.108',0.337
'0:19.111',0.327
'0:19.114',0.33
'0:19.117',0.327
'0:19.119',0.323
'0:19.122',0.317
'0:19.125',0.317
'0:19.128',0.333
'0:19.131',0.347
'0:19.133',0.35
'0:19.136',0.347
'0:19.139',0.35
'0:19.142',0.35
'0:19.144',0.34
'0:19.147',0.327
'0:19.150',0.317
'0:19.153',0.31
'0:19.156',0.31
'0:19.158',0.317
'0:19.161',0.327
'0:19.164',0.337
'0:19.167',0.337
'0:19.169',0.347
'0:19.172',0.337
'0:19.175',0.333
'0:19.178',0.33
'0:19.181',0.327
'0:19.183',0.337
'0:19.186',0.333
'0:19.189',0.333
'0:19.192',0.333
'0:19.194',0.34
'0:19.197',0.35
'0:19.200',0.35
'0:19.203',0.363
'0:19.206',0.367
'0:19.208',0.37
'0:19.211',0.38
'0:19.214',0.377
'0:19.217',0.387
'0:19.219',0.4
'0:19.222',0.403
'0:19.225',0.41
'0:19.228',0.413
'0:19.231',0.42
'0:19.233',0.41
'0:19.236',0.42
'0:19.239',0.42
'0:19.242',0.423
'0:19.244',0.427
'0:19.247',0.443
'0:19.250',0.473
'0:19.253',0.49
'0:19.256',0.503
'0:19.258',0.52
'0:19.261',0.523
'0:19.264',0.527
'0:19.267',0.513
'0:19.269',0.483
'0:19.272',0.467
'0:19.275',0.437
'0:19.278',0.427
'0:19.281',0.423
'0:19.283',0.41
'0:19.286',0.403
'0:19.289',0.38
'0:19.292',0.367
'0:19.294',0.34
'0:19.297',0.323
'0:19.300',0.303
'0:19.303',0.28
'0:19.306',0.27
'0:19.308',0.263
'0:19.311',0.263
'0:19.314',0.263
'0:19.317',0.25
'0:19.319',0.253
'0:19.322',0.24
'0:19.325',0.24
'0:19.328',0.25
'0:19.331',0.257
'0:19.333',0.263
'0:19.336',0.26
'0:19.339',0.27
'0:19.342',0.257
'0:19.344',0.26
'0:19.347',0.253
'0:19.350',0.233
'0:19.353',0.243
'0:19.356',0.233
'0:19.358',0.24
'0:19.361',0.233
'0:19.364',0.233
'0:19.367',0.24
'0:19.369',0.22
'0:19.372',0.223
'0:19.375',0.193
'0:19.378',0.163
'0:19.381',0.117
'0:19.383',0.06
'0:19.386',-0.007
'0:19.389',-0.123
'0:19.392',-0.22
'0:19.394',-0.337
'0:19.397',-0.457
'0:19.400',-0.577
'0:19.403',-0.72
'0:19.406',-0.857
'0:19.408',-0.993
'0:19.411',-1.113
'0:19.414',-1.183
'0:19.417',-1.197
'0:19.419',-1.147
'0:19.422',-1.04
'0:19.425',-0.91
'0:19.428',-0.747
'0:19.431',-0.56
'0:19.433',-0.413
'0:19.436',-0.317
'0:19.439',-0.257
'0:19.442',-0.197
'0:19.444',-0.1
'0:19.447',0.02
'0:19.450',0.143
'0:19.453',0.27
'0:19.456',0.367
'0:19.458',0.423
'0:19.461',0.457
'0:19.464',0.437
'0:19.467',0.443
'0:19.469',0.447
'0:19.472',0.443
'0:19.475',0.443
'0:19.478',0.44
'0:19.481',0.45
'0:19.483',0.457
'0:19.486',0.467
'0:19.489',0.473
'0:19.492',0.473
'0:19.494',0.483
'0:19.497',0.487
'0:19.500',0.49
'0:19.503',0.503
'0:19.506',0.497
'0:19.508',0.497
'0:19.511',0.497
'0:19.514',0.49
'0:19.517',0.49
'0:19.519',0.497
'0:19.522',0.507
'0:19.525',0.51
'0:19.528',0.52
'0:19.531',0.54
'0:19.533',0.54
'0:19.536',0.55
'0:19.539',0.547
'0:19.542',0.543
'0:19.544',0.543
'0:19.547',0.54
'0:19.550',0.537
'0:19.553',0.533
'0:19.556',0.537
'0:19.558',0.543
'0:19.561',0.55
'0:19.564',0.55
'0:19.567',0.547
'0:19.569',0.553
'0:19.572',0.55
'0:19.575',0.543
'0:19.578',0.537
'0:19.581',0.53
'0:19.583',0.53
'0:19.586',0.527
'0:19.589',0.527
'0:19.592',0.537
'0:19.594',0.543
'0:19.597',0.567
'0:19.600',0.56
'0:19.603',0.557
'0:19.606',0.56
'0:19.608',0.557
'0:19.611',0.55
'0:19.614',0.543
'0:19.617',0.543
'0:19.619',0.543
'0:19.622',0.527
'0:19.625',0.54
'0:19.628',0.533
'0:19.631',0.533
'0:19.633',0.537
'0:19.636',0.537
'0:19.639',0.537
'0:19.642',0.523
'0:19.644',0.52
'0:19.647',0.507
'0:19.650',0.497
'0:19.653',0.493
'0:19.656',0.497
'0:19.658',0.5
'0:19.661',0.503
'0:19.664',0.52
'0:19.667',0.52
'0:19.669',0.52
'0:19.672',0.52
'0:19.675',0.503
'0:19.678',0.5
'0:19.681',0.497
'0:19.683',0.487
'0:19.686',0.48
'0:19.689',0.473
'0:19.692',0.473
'0:19.694',0.47
'0:19.697',0.483
'0:19.700',0.49
'0:19.703',0.48
'0:19.706',0.477
'0:19.708',0.46
'0:19.711',0.45
'0:19.714',0.44
'0:19.717',0.427
'0:19.719',0.42
'0:19.722',0.41
'0:19.725',0.42
'0:19.728',0.423
'0:19.731',0.417
'0:19.733',0.423
'0:19.736',0.41
'0:19.739',0.41
'0:19.742',0.403
'0:19.744',0.397
'0:19.747',0.38
'0:19.750',0.38
'0:19.753',0.38
'0:19.756',0.38
'0:19.758',0.38
'0:19.761',0.387
'0:19.764',0.387
'0:19.767',0.397
'0:19.769',0.387
'0:19.772',0.38
'0:19.775',0.363
'0:19.778',0.347
'0:19.781',0.34
'0:19.783',0.327
'0:19.786',0.32
'0:19.789',0.317
'0:19.792',0.313
'0:19.794',0.327
'0:19.797',0.327
'0:19.800',0.33
'0:19.803',0.323
'0:19.806',0.317
'0:19.808',0.313
'0:19.811',0.303
'0:19.814',0.303
'0:19.817',0.287
'0:19.819',0.28
'0:19.822',0.277
'0:19.825',0.277
'0:19.828',0.283
'0:19.831',0.287
'0:19.833',0.287
'0:19.836',0.293
'0:19.839',0.283
'0:19.842',0.28
'0:19.844',0.263
'0:19.847',0.257
'0:19.850',0.24
'0:19.853',0.233
'0:19.856',0.223
'0:19.858',0.22
'0:19.861',0.233
'0:19.864',0.227
'0:19.867',0.227
'0:19.869',0.217
'0:19.872',0.2
'0:19.875',0.21
'0:19.878',0.21
'0:19.881',0.207
'0:19.883',0.217
'0:19.886',0.21
'0:19.889',0.217
'0:19.892',0.217
'0:19.894',0.223
'0:19.897',0.233
'0:19.900',0.24
'0:19.903',0.247
'0:19.906',0.243
'0:19.908',0.247
'0:19.911',0.24
'0:19.914',0.243
'0:19.917',0.24
'0:19.919',0.233
'0:19.922',0.233
'0:19.925',0.23
'0:19.928',0.24
'0:19.931',0.247
'0:19.933',0.24
'0:19.936',0.257
'0:19.939',0.257
'0:19.942',0.257
'0:19.944',0.257
'0:19.947',0.263
'0:19.950',0.263
'0:19.953',0.26
'0:19.956',0.263
'0:19.958',0.283
'0:19.961',0.287
'0:19.964',0.303
'0:19.967',0.307
'0:19.969',0.31
'0:19.972',0.313
'0:19.975',0.307
'0:19.978',0.307
'0:19.981',0.29
'0:19.983',0.3
'0:19.986',0.293
'0:19.989',0.293
'0:19.992',0.307
'0:19.994',0.303
'0:19.997',0.317
'0:20.000',0.31
