'0:00.000',-0.047
'0:00.003',-0.047
'0:00.006',-0.047
'0:00.008',-0.036
'0:00.011',-0.03
'0:00.014',-0.036
'0:00.017',-0.033
'0:00.019',-0.017
'0:00.022',0
'0:00.025',0
'0:00.028',-0.008
'0:00.031',-0.008
'0:00.033',-0.006
'0:00.036',-0.008
'0:00.039',-0.008
'0:00.042',-0.006
'0:00.044',-0.006
'0:00.047',-0.011
'0:00.050',-0.019
'0:00.053',-0.028
'0:00.056',-0.036
'0:00.058',-0.036
'0:00.061',-0.03
'0:00.064',-0.022
'0:00.067',-0.022
'0:00.069',-0.028
'0:00.072',-0.03
'0:00.075',-0.028
'0:00.078',-0.03
'0:00.081',-0.025
'0:00.083',-0.025
'0:00.086',-0.022
'0:00.089',-0.022
'0:00.092',-0.033
'0:00.094',-0.044
'0:00.097',-0.052
'0:00.100',-0.055
'0:00.103',-0.052
'0:00.106',-0.047
'0:00.108',-0.052
'0:00.111',-0.058
'0:00.114',-0.064
'0:00.117',-0.055
'0:00.119',-0.052
'0:00.122',-0.05
'0:00.125',-0.052
'0:00.128',-0.058
'0:00.131',-0.064
'0:00.133',-0.061
'0:00.136',-0.055
'0:00.139',-0.061
'0:00.142',-0.064
'0:00.144',-0.055
'0:00.147',-0.047
'0:00.150',-0.017
'0:00.153',0.033
'0:00.156',0.091
'0:00.158',0.138
'0:00.161',0.18
'0:00.164',0.202
'0:00.167',0.191
'0:00.169',0.119
'0:00.172',0
'0:00.175',-0.163
'0:00.178',-0.348
'0:00.181',-0.522
'0:00.183',-0.663
'0:00.186',-0.798
'0:00.189',-0.887
'0:00.192',-0.873
'0:00.194',-0.779
'0:00.197',-0.649
'0:00.200',-0.497
'0:00.203',-0.351
'0:00.206',-0.229
'0:00.208',-0.138
'0:00.211',-0.094
'0:00.214',-0.077
'0:00.217',-0.064
'0:00.219',-0.044
'0:00.222',-0.019
'0:00.225',-0.006
'0:00.228',-0.006
'0:00.231',-0.014
'0:00.233',-0.008
'0:00.236',0
'0:00.239',0.006
'0:00.242',0.003
'0:00.244',0.003
'0:00.247',0.006
'0:00.250',0.017
'0:00.253',0.025
'0:00.256',0.028
'0:00.258',0.025
'0:00.261',0.014
'0:00.264',0.011
'0:00.267',0.017
'0:00.269',0.03
'0:00.272',0.033
'0:00.275',0.03
'0:00.278',0.028
'0:00.281',0.033
'0:00.283',0.036
'0:00.286',0.033
'0:00.289',0.039
'0:00.292',0.047
'0:00.294',0.05
'0:00.297',0.05
'0:00.300',0.05
'0:00.303',0.05
'0:00.306',0.061
'0:00.308',0.064
'0:00.311',0.061
'0:00.314',0.052
'0:00.317',0.05
'0:00.319',0.058
'0:00.322',0.061
'0:00.325',0.061
'0:00.328',0.072
'0:00.331',0.086
'0:00.333',0.088
'0:00.336',0.088
'0:00.339',0.091
'0:00.342',0.097
'0:00.344',0.097
'0:00.347',0.097
'0:00.350',0.102
'0:00.353',0.116
'0:00.356',0.127
'0:00.358',0.122
'0:00.361',0.122
'0:00.364',0.13
'0:00.367',0.141
'0:00.369',0.155
'0:00.372',0.16
'0:00.375',0.16
'0:00.378',0.157
'0:00.381',0.163
'0:00.383',0.169
'0:00.386',0.188
'0:00.389',0.202
'0:00.392',0.204
'0:00.394',0.196
'0:00.397',0.199
'0:00.400',0.199
'0:00.403',0.204
'0:00.406',0.224
'0:00.408',0.218
'0:00.411',0.204
'0:00.414',0.196
'0:00.417',0.202
'0:00.419',0.21
'0:00.422',0.213
'0:00.425',0.213
'0:00.428',0.202
'0:00.431',0.185
'0:00.433',0.18
'0:00.436',0.177
'0:00.439',0.171
'0:00.442',0.166
'0:00.444',0.157
'0:00.447',0.141
'0:00.450',0.127
'0:00.453',0.11
'0:00.456',0.105
'0:00.458',0.102
'0:00.461',0.086
'0:00.464',0.064
'0:00.467',0.055
'0:00.469',0.05
'0:00.472',0.052
'0:00.475',0.047
'0:00.478',0.044
'0:00.481',0.036
'0:00.483',0.025
'0:00.486',0.028
'0:00.489',0.041
'0:00.492',0.047
'0:00.494',0.039
'0:00.497',0.028
'0:00.500',0.036
'0:00.503',0.039
'0:00.506',0.03
'0:00.508',0.022
'0:00.511',0.025
'0:00.514',0.033
'0:00.517',0.028
'0:00.519',0.025
'0:00.522',0.039
'0:00.525',0.036
'0:00.528',0.03
'0:00.531',0.022
'0:00.533',0.022
'0:00.536',0.036
'0:00.539',0.041
'0:00.542',0.039
'0:00.544',0.039
'0:00.547',0.036
'0:00.550',0.028
'0:00.553',0.028
'0:00.556',0.03
'0:00.558',0.036
'0:00.561',0.028
'0:00.564',0.019
'0:00.567',0.022
'0:00.569',0.036
'0:00.572',0.036
'0:00.575',0.025
'0:00.578',0.022
'0:00.581',0.022
'0:00.583',0.014
'0:00.586',0.008
'0:00.589',0.011
'0:00.592',0.014
'0:00.594',0.008
'0:00.597',0.003
'0:00.600',0.006
'0:00.603',0.008
'0:00.606',0.017
'0:00.608',0.014
'0:00.611',0.008
'0:00.614',0.003
'0:00.617',0.006
'0:00.619',0.008
'0:00.622',0.006
'0:00.625',0.003
'0:00.628',0.006
'0:00.631',0.006
'0:00.633',0
'0:00.636',0
'0:00.639',0.008
'0:00.642',0.006
'0:00.644',0
'0:00.647',-0.008
'0:00.650',-0.011
'0:00.653',0
'0:00.656',0.006
'0:00.658',0.003
'0:00.661',-0.008
'0:00.664',-0.006
'0:00.667',0
'0:00.669',0
'0:00.672',0
'0:00.675',0
'0:00.678',-0.006
'0:00.681',0
'0:00.683',0
'0:00.686',-0.006
'0:00.689',-0.006
'0:00.692',0
'0:00.694',0.003
'0:00.697',0
'0:00.700',-0.008
'0:00.703',0
'0:00.706',0
'0:00.708',0
'0:00.711',0
'0:00.714',0
'0:00.717',-0.008
'0:00.719',-0.008
'0:00.722',0
'0:00.725',0
'0:00.728',-0.014
'0:00.731',-0.011
'0:00.733',0
'0:00.736',0
'0:00.739',0
'0:00.742',-0.006
'0:00.744',-0.008
'0:00.747',-0.008
'0:00.750',0
'0:00.753',0
'0:00.756',0
'0:00.758',-0.006
'0:00.761',-0.008
'0:00.764',-0.011
'0:00.767',0
'0:00.769',0.017
'0:00.772',0.03
'0:00.775',0.03
'0:00.778',0.017
'0:00.781',0.011
'0:00.783',0.03
'0:00.786',0.047
'0:00.789',0.047
'0:00.792',0.033
'0:00.794',0.033
'0:00.797',0.044
'0:00.800',0.044
'0:00.803',0.036
'0:00.806',0.019
'0:00.808',0.014
'0:00.811',0.017
'0:00.814',0.019
'0:00.817',0.019
'0:00.819',0.022
'0:00.822',0.025
'0:00.825',0.022
'0:00.828',0.017
'0:00.831',0.017
'0:00.833',0.014
'0:00.836',0.008
'0:00.839',0.008
'0:00.842',0.003
'0:00.844',0
'0:00.847',0
'0:00.850',0
'0:00.853',-0.006
'0:00.856',-0.011
'0:00.858',-0.006
'0:00.861',0
'0:00.864',0
'0:00.867',-0.006
'0:00.869',-0.008
'0:00.872',-0.008
'0:00.875',-0.014
'0:00.878',-0.019
'0:00.881',-0.019
'0:00.883',-0.017
'0:00.886',-0.011
'0:00.889',-0.006
'0:00.892',0
'0:00.894',-0.011
'0:00.897',-0.022
'0:00.900',-0.014
'0:00.903',0.006
'0:00.906',0.044
'0:00.908',0.102
'0:00.911',0.155
'0:00.914',0.196
'0:00.917',0.229
'0:00.919',0.238
'0:00.922',0.185
'0:00.925',0.086
'0:00.928',-0.066
'0:00.931',-0.243
'0:00.933',-0.428
'0:00.936',-0.58
'0:00.939',-0.71
'0:00.942',-0.829
'0:00.944',-0.862
'0:00.947',-0.782
'0:00.950',-0.66
'0:00.953',-0.517
'0:00.956',-0.367
'0:00.958',-0.24
'0:00.961',-0.146
'0:00.964',-0.088
'0:00.967',-0.044
'0:00.969',-0.008
'0:00.972',0.003
'0:00.975',0.006
'0:00.978',0.006
'0:00.981',0.003
'0:00.983',0.011
'0:00.986',0.03
'0:00.989',0.041
'0:00.992',0.039
'0:00.994',0.039
'0:00.997',0.047
'0:01.000',0.058
'0:01.003',0.055
'0:01.006',0.055
'0:01.008',0.055
'0:01.011',0.058
'0:01.014',0.069
'0:01.017',0.069
'0:01.019',0.064
'0:01.022',0.058
'0:01.025',0.055
'0:01.028',0.061
'0:01.031',0.072
'0:01.033',0.077
'0:01.036',0.077
'0:01.039',0.077
'0:01.042',0.083
'0:01.044',0.08
'0:01.047',0.077
'0:01.050',0.08
'0:01.053',0.088
'0:01.056',0.097
'0:01.058',0.097
'0:01.061',0.091
'0:01.064',0.086
'0:01.067',0.083
'0:01.069',0.083
'0:01.072',0.094
'0:01.075',0.108
'0:01.078',0.11
'0:01.081',0.113
'0:01.083',0.11
'0:01.086',0.116
'0:01.089',0.116
'0:01.092',0.119
'0:01.094',0.133
'0:01.097',0.138
'0:01.100',0.141
'0:01.103',0.141
'0:01.106',0.146
'0:01.108',0.157
'0:01.111',0.157
'0:01.114',0.16
'0:01.117',0.169
'0:01.119',0.185
'0:01.122',0.196
'0:01.125',0.191
'0:01.128',0.188
'0:01.131',0.193
'0:01.133',0.202
'0:01.136',0.213
'0:01.139',0.227
'0:01.142',0.232
'0:01.144',0.235
'0:01.147',0.235
'0:01.150',0.235
'0:01.153',0.246
'0:01.156',0.246
'0:01.158',0.243
'0:01.161',0.24
'0:01.164',0.24
'0:01.167',0.249
'0:01.169',0.254
'0:01.172',0.254
'0:01.175',0.249
'0:01.178',0.24
'0:01.181',0.235
'0:01.183',0.232
'0:01.186',0.227
'0:01.189',0.229
'0:01.192',0.224
'0:01.194',0.202
'0:01.197',0.185
'0:01.200',0.185
'0:01.203',0.177
'0:01.206',0.16
'0:01.208',0.144
'0:01.211',0.127
'0:01.214',0.11
'0:01.217',0.105
'0:01.219',0.105
'0:01.222',0.102
'0:01.225',0.097
'0:01.228',0.086
'0:01.231',0.08
'0:01.233',0.075
'0:01.236',0.072
'0:01.239',0.069
'0:01.242',0.064
'0:01.244',0.064
'0:01.247',0.066
'0:01.250',0.066
'0:01.253',0.066
'0:01.256',0.069
'0:01.258',0.064
'0:01.261',0.052
'0:01.264',0.052
'0:01.267',0.055
'0:01.269',0.055
'0:01.272',0.058
'0:01.275',0.064
'0:01.278',0.066
'0:01.281',0.061
'0:01.283',0.052
'0:01.286',0.061
'0:01.289',0.064
'0:01.292',0.061
'0:01.294',0.061
'0:01.297',0.061
'0:01.300',0.061
'0:01.303',0.064
'0:01.306',0.072
'0:01.308',0.072
'0:01.311',0.052
'0:01.314',0.036
'0:01.317',0.044
'0:01.319',0.061
'0:01.322',0.066
'0:01.325',0.061
'0:01.328',0.05
'0:01.331',0.039
'0:01.333',0.039
'0:01.336',0.05
'0:01.339',0.058
'0:01.342',0.055
'0:01.344',0.05
'0:01.347',0.047
'0:01.350',0.047
'0:01.353',0.047
'0:01.356',0.044
'0:01.358',0.036
'0:01.361',0.028
'0:01.364',0.025
'0:01.367',0.03
'0:01.369',0.039
'0:01.372',0.05
'0:01.375',0.047
'0:01.378',0.039
'0:01.381',0.033
'0:01.383',0.039
'0:01.386',0.041
'0:01.389',0.052
'0:01.392',0.05
'0:01.394',0.033
'0:01.397',0.025
'0:01.400',0.036
'0:01.403',0.039
'0:01.406',0.036
'0:01.408',0.03
'0:01.411',0.028
'0:01.414',0.025
'0:01.417',0.028
'0:01.419',0.025
'0:01.422',0.028
'0:01.425',0.033
'0:01.428',0.028
'0:01.431',0.028
'0:01.433',0.036
'0:01.436',0.039
'0:01.439',0.033
'0:01.442',0.03
'0:01.444',0.036
'0:01.447',0.039
'0:01.450',0.041
'0:01.453',0.039
'0:01.456',0.033
'0:01.458',0.03
'0:01.461',0.036
'0:01.464',0.028
'0:01.467',0.019
'0:01.469',0.014
'0:01.472',0.019
'0:01.475',0.025
'0:01.478',0.03
'0:01.481',0.03
'0:01.483',0.033
'0:01.486',0.033
'0:01.489',0.041
'0:01.492',0.036
'0:01.494',0.022
'0:01.497',0.025
'0:01.500',0.033
'0:01.503',0.033
'0:01.506',0.039
'0:01.508',0.039
'0:01.511',0.033
'0:01.514',0.03
'0:01.517',0.025
'0:01.519',0.033
'0:01.522',0.047
'0:01.525',0.05
'0:01.528',0.055
'0:01.531',0.061
'0:01.533',0.064
'0:01.536',0.072
'0:01.539',0.086
'0:01.542',0.086
'0:01.544',0.072
'0:01.547',0.061
'0:01.550',0.055
'0:01.553',0.05
'0:01.556',0.05
'0:01.558',0.052
'0:01.561',0.047
'0:01.564',0.047
'0:01.567',0.058
'0:01.569',0.066
'0:01.572',0.066
'0:01.575',0.052
'0:01.578',0.041
'0:01.581',0.039
'0:01.583',0.041
'0:01.586',0.041
'0:01.589',0.036
'0:01.592',0.033
'0:01.594',0.033
'0:01.597',0.03
'0:01.600',0.028
'0:01.603',0.019
'0:01.606',0.022
'0:01.608',0.025
'0:01.611',0.025
'0:01.614',0.022
'0:01.617',0.022
'0:01.619',0.025
'0:01.622',0.028
'0:01.625',0.022
'0:01.628',0.017
'0:01.631',0.006
'0:01.633',0.006
'0:01.636',0.014
'0:01.639',0.025
'0:01.642',0.03
'0:01.644',0.03
'0:01.647',0.025
'0:01.650',0.019
'0:01.653',0.019
'0:01.656',0.03
'0:01.658',0.058
'0:01.661',0.105
'0:01.664',0.163
'0:01.667',0.218
'0:01.669',0.257
'0:01.672',0.265
'0:01.675',0.235
'0:01.678',0.152
'0:01.681',0.019
'0:01.683',-0.157
'0:01.686',-0.343
'0:01.689',-0.497
'0:01.692',-0.638
'0:01.694',-0.771
'0:01.697',-0.834
'0:01.700',-0.782
'0:01.703',-0.677
'0:01.706',-0.544
'0:01.708',-0.395
'0:01.711',-0.26
'0:01.714',-0.149
'0:01.717',-0.064
'0:01.719',-0.011
'0:01.722',0.014
'0:01.725',0.03
'0:01.728',0.041
'0:01.731',0.041
'0:01.733',0.047
'0:01.736',0.05
'0:01.739',0.058
'0:01.742',0.064
'0:01.744',0.066
'0:01.747',0.066
'0:01.750',0.075
'0:01.753',0.086
'0:01.756',0.091
'0:01.758',0.088
'0:01.761',0.088
'0:01.764',0.088
'0:01.767',0.091
'0:01.769',0.088
'0:01.772',0.088
'0:01.775',0.099
'0:01.778',0.105
'0:01.781',0.102
'0:01.783',0.099
'0:01.786',0.099
'0:01.789',0.108
'0:01.792',0.113
'0:01.794',0.113
'0:01.797',0.108
'0:01.800',0.108
'0:01.803',0.108
'0:01.806',0.11
'0:01.808',0.116
'0:01.811',0.119
'0:01.814',0.119
'0:01.817',0.116
'0:01.819',0.119
'0:01.822',0.13
'0:01.825',0.138
'0:01.828',0.138
'0:01.831',0.13
'0:01.833',0.127
'0:01.836',0.135
'0:01.839',0.155
'0:01.842',0.166
'0:01.844',0.157
'0:01.847',0.155
'0:01.850',0.155
'0:01.853',0.163
'0:01.856',0.169
'0:01.858',0.177
'0:01.861',0.185
'0:01.864',0.182
'0:01.867',0.185
'0:01.869',0.196
'0:01.872',0.207
'0:01.875',0.215
'0:01.878',0.221
'0:01.881',0.227
'0:01.883',0.235
'0:01.886',0.24
'0:01.889',0.249
'0:01.892',0.257
'0:01.894',0.265
'0:01.897',0.265
'0:01.900',0.268
'0:01.903',0.268
'0:01.906',0.279
'0:01.908',0.282
'0:01.911',0.273
'0:01.914',0.273
'0:01.917',0.279
'0:01.919',0.285
'0:01.922',0.285
'0:01.925',0.276
'0:01.928',0.273
'0:01.931',0.276
'0:01.933',0.285
'0:01.936',0.271
'0:01.939',0.271
'0:01.942',0.268
'0:01.944',0.251
'0:01.947',0.232
'0:01.950',0.227
'0:01.953',0.221
'0:01.956',0.207
'0:01.958',0.188
'0:01.961',0.171
'0:01.964',0.166
'0:01.967',0.157
'0:01.969',0.141
'0:01.972',0.133
'0:01.975',0.13
'0:01.978',0.124
'0:01.981',0.108
'0:01.983',0.094
'0:01.986',0.088
'0:01.989',0.094
'0:01.992',0.105
'0:01.994',0.108
'0:01.997',0.105
'0:02.000',0.099
'0:02.003',0.091
'0:02.006',0.086
'0:02.008',0.088
'0:02.011',0.097
'0:02.014',0.097
'0:02.017',0.094
'0:02.019',0.094
'0:02.022',0.099
'0:02.025',0.099
'0:02.028',0.094
'0:02.031',0.097
'0:02.033',0.097
'0:02.036',0.094
'0:02.039',0.088
'0:02.042',0.083
'0:02.044',0.083
'0:02.047',0.083
'0:02.050',0.086
'0:02.053',0.091
'0:02.056',0.105
'0:02.058',0.108
'0:02.061',0.088
'0:02.064',0.077
'0:02.067',0.08
'0:02.069',0.08
'0:02.072',0.083
'0:02.075',0.086
'0:02.078',0.088
'0:02.081',0.08
'0:02.083',0.083
'0:02.086',0.08
'0:02.089',0.077
'0:02.092',0.077
'0:02.094',0.075
'0:02.097',0.08
'0:02.100',0.072
'0:02.103',0.075
'0:02.106',0.083
'0:02.108',0.077
'0:02.111',0.064
'0:02.114',0.055
'0:02.117',0.052
'0:02.119',0.055
'0:02.122',0.064
'0:02.125',0.08
'0:02.128',0.08
'0:02.131',0.072
'0:02.133',0.066
'0:02.136',0.069
'0:02.139',0.066
'0:02.142',0.061
'0:02.144',0.047
'0:02.147',0.052
'0:02.150',0.064
'0:02.153',0.075
'0:02.156',0.077
'0:02.158',0.064
'0:02.161',0.052
'0:02.164',0.052
'0:02.167',0.055
'0:02.169',0.064
'0:02.172',0.064
'0:02.175',0.058
'0:02.178',0.052
'0:02.181',0.055
'0:02.183',0.061
'0:02.186',0.058
'0:02.189',0.055
'0:02.192',0.055
'0:02.194',0.05
'0:02.197',0.05
'0:02.200',0.055
'0:02.203',0.052
'0:02.206',0.058
'0:02.208',0.052
'0:02.211',0.052
'0:02.214',0.064
'0:02.217',0.072
'0:02.219',0.064
'0:02.222',0.052
'0:02.225',0.055
'0:02.228',0.064
'0:02.231',0.066
'0:02.233',0.061
'0:02.236',0.058
'0:02.239',0.058
'0:02.242',0.05
'0:02.244',0.039
'0:02.247',0.039
'0:02.250',0.05
'0:02.253',0.064
'0:02.256',0.064
'0:02.258',0.058
'0:02.261',0.052
'0:02.264',0.05
'0:02.267',0.055
'0:02.269',0.066
'0:02.272',0.072
'0:02.275',0.072
'0:02.278',0.075
'0:02.281',0.083
'0:02.283',0.091
'0:02.286',0.099
'0:02.289',0.102
'0:02.292',0.091
'0:02.294',0.083
'0:02.297',0.072
'0:02.300',0.064
'0:02.303',0.069
'0:02.306',0.075
'0:02.308',0.077
'0:02.311',0.069
'0:02.314',0.069
'0:02.317',0.075
'0:02.319',0.072
'0:02.322',0.072
'0:02.325',0.072
'0:02.328',0.075
'0:02.331',0.064
'0:02.333',0.055
'0:02.336',0.055
'0:02.339',0.055
'0:02.342',0.064
'0:02.344',0.061
'0:02.347',0.036
'0:02.350',0.033
'0:02.353',0.044
'0:02.356',0.05
'0:02.358',0.044
'0:02.361',0.033
'0:02.364',0.03
'0:02.367',0.039
'0:02.369',0.039
'0:02.372',0.028
'0:02.375',0.03
'0:02.378',0.03
'0:02.381',0.028
'0:02.383',0.028
'0:02.386',0.03
'0:02.389',0.033
'0:02.392',0.036
'0:02.394',0.039
'0:02.397',0.033
'0:02.400',0.036
'0:02.403',0.041
'0:02.406',0.061
'0:02.408',0.097
'0:02.411',0.157
'0:02.414',0.21
'0:02.417',0.257
'0:02.419',0.296
'0:02.422',0.29
'0:02.425',0.224
'0:02.428',0.094
'0:02.431',-0.077
'0:02.433',-0.268
'0:02.436',-0.436
'0:02.439',-0.572
'0:02.442',-0.707
'0:02.444',-0.823
'0:02.447',-0.829
'0:02.450',-0.735
'0:02.453',-0.597
'0:02.456',-0.448
'0:02.458',-0.312
'0:02.461',-0.182
'0:02.464',-0.086
'0:02.467',-0.03
'0:02.469',-0.003
'0:02.472',0.019
'0:02.475',0.041
'0:02.478',0.058
'0:02.481',0.061
'0:02.483',0.064
'0:02.486',0.072
'0:02.489',0.086
'0:02.492',0.091
'0:02.494',0.086
'0:02.497',0.08
'0:02.500',0.086
'0:02.503',0.094
'0:02.506',0.105
'0:02.508',0.108
'0:02.511',0.102
'0:02.514',0.094
'0:02.517',0.097
'0:02.519',0.108
'0:02.522',0.116
'0:02.525',0.11
'0:02.528',0.105
'0:02.531',0.099
'0:02.533',0.091
'0:02.536',0.105
'0:02.539',0.13
'0:02.542',0.135
'0:02.544',0.124
'0:02.547',0.113
'0:02.550',0.113
'0:02.553',0.122
'0:02.556',0.135
'0:02.558',0.138
'0:02.561',0.13
'0:02.564',0.124
'0:02.567',0.133
'0:02.569',0.141
'0:02.572',0.146
'0:02.575',0.141
'0:02.578',0.133
'0:02.581',0.135
'0:02.583',0.144
'0:02.586',0.144
'0:02.589',0.152
'0:02.592',0.163
'0:02.594',0.163
'0:02.597',0.157
'0:02.600',0.169
'0:02.603',0.182
'0:02.606',0.182
'0:02.608',0.185
'0:02.611',0.196
'0:02.614',0.188
'0:02.617',0.188
'0:02.619',0.207
'0:02.622',0.229
'0:02.625',0.224
'0:02.628',0.218
'0:02.631',0.224
'0:02.633',0.235
'0:02.636',0.243
'0:02.639',0.26
'0:02.642',0.268
'0:02.644',0.268
'0:02.647',0.265
'0:02.650',0.268
'0:02.653',0.265
'0:02.656',0.268
'0:02.658',0.285
'0:02.661',0.293
'0:02.664',0.29
'0:02.667',0.285
'0:02.669',0.285
'0:02.672',0.29
'0:02.675',0.293
'0:02.678',0.285
'0:02.681',0.282
'0:02.683',0.279
'0:02.686',0.273
'0:02.689',0.271
'0:02.692',0.254
'0:02.694',0.238
'0:02.697',0.221
'0:02.700',0.215
'0:02.703',0.21
'0:02.706',0.199
'0:02.708',0.188
'0:02.711',0.171
'0:02.714',0.155
'0:02.717',0.149
'0:02.719',0.146
'0:02.722',0.144
'0:02.725',0.135
'0:02.728',0.119
'0:02.731',0.108
'0:02.733',0.108
'0:02.736',0.105
'0:02.739',0.108
'0:02.742',0.102
'0:02.744',0.094
'0:02.747',0.094
'0:02.750',0.102
'0:02.753',0.108
'0:02.756',0.102
'0:02.758',0.091
'0:02.761',0.088
'0:02.764',0.086
'0:02.767',0.094
'0:02.769',0.097
'0:02.772',0.099
'0:02.775',0.097
'0:02.778',0.088
'0:02.781',0.08
'0:02.783',0.086
'0:02.786',0.094
'0:02.789',0.102
'0:02.792',0.094
'0:02.794',0.083
'0:02.797',0.083
'0:02.800',0.094
'0:02.803',0.097
'0:02.806',0.091
'0:02.808',0.083
'0:02.811',0.08
'0:02.814',0.075
'0:02.817',0.077
'0:02.819',0.083
'0:02.822',0.088
'0:02.825',0.088
'0:02.828',0.08
'0:02.831',0.075
'0:02.833',0.075
'0:02.836',0.072
'0:02.839',0.072
'0:02.842',0.075
'0:02.844',0.077
'0:02.847',0.075
'0:02.850',0.072
'0:02.853',0.064
'0:02.856',0.069
'0:02.858',0.072
'0:02.861',0.066
'0:02.864',0.061
'0:02.867',0.064
'0:02.869',0.066
'0:02.872',0.069
'0:02.875',0.066
'0:02.878',0.066
'0:02.881',0.052
'0:02.883',0.058
'0:02.886',0.066
'0:02.889',0.072
'0:02.892',0.069
'0:02.894',0.061
'0:02.897',0.058
'0:02.900',0.058
'0:02.903',0.055
'0:02.906',0.052
'0:02.908',0.055
'0:02.911',0.061
'0:02.914',0.055
'0:02.917',0.05
'0:02.919',0.047
'0:02.922',0.055
'0:02.925',0.066
'0:02.928',0.064
'0:02.931',0.055
'0:02.933',0.05
'0:02.936',0.05
'0:02.939',0.055
'0:02.942',0.052
'0:02.944',0.05
'0:02.947',0.044
'0:02.950',0.044
'0:02.953',0.061
'0:02.956',0.075
'0:02.958',0.066
'0:02.961',0.055
'0:02.964',0.044
'0:02.967',0.044
'0:02.969',0.05
'0:02.972',0.052
'0:02.975',0.055
'0:02.978',0.052
'0:02.981',0.05
'0:02.983',0.055
'0:02.986',0.061
'0:02.989',0.064
'0:02.992',0.058
'0:02.994',0.047
'0:02.997',0.05
'0:03.000',0.064
'0:03.003',0.072
'0:03.006',0.08
'0:03.008',0.08
'0:03.011',0.083
'0:03.014',0.083
'0:03.017',0.075
'0:03.019',0.072
'0:03.022',0.091
'0:03.025',0.099
'0:03.028',0.083
'0:03.031',0.064
'0:03.033',0.064
'0:03.036',0.066
'0:03.039',0.066
'0:03.042',0.064
'0:03.044',0.069
'0:03.047',0.069
'0:03.050',0.069
'0:03.053',0.072
'0:03.056',0.064
'0:03.058',0.058
'0:03.061',0.061
'0:03.064',0.064
'0:03.067',0.061
'0:03.069',0.058
'0:03.072',0.061
'0:03.075',0.052
'0:03.078',0.047
'0:03.081',0.033
'0:03.083',0.025
'0:03.086',0.019
'0:03.089',0.028
'0:03.092',0.033
'0:03.094',0.036
'0:03.097',0.036
'0:03.100',0.03
'0:03.103',0.033
'0:03.106',0.039
'0:03.108',0.036
'0:03.111',0.03
'0:03.114',0.03
'0:03.117',0.033
'0:03.119',0.036
'0:03.122',0.036
'0:03.125',0.036
'0:03.128',0.039
'0:03.131',0.033
'0:03.133',0.039
'0:03.136',0.075
'0:03.139',0.146
'0:03.142',0.202
'0:03.144',0.229
'0:03.147',0.262
'0:03.150',0.271
'0:03.153',0.227
'0:03.156',0.141
'0:03.158',0.003
'0:03.161',-0.166
'0:03.164',-0.334
'0:03.167',-0.461
'0:03.169',-0.588
'0:03.172',-0.715
'0:03.175',-0.751
'0:03.178',-0.68
'0:03.181',-0.569
'0:03.183',-0.439
'0:03.186',-0.304
'0:03.189',-0.182
'0:03.192',-0.083
'0:03.194',-0.022
'0:03.197',0.008
'0:03.200',0.022
'0:03.203',0.033
'0:03.206',0.052
'0:03.208',0.072
'0:03.211',0.072
'0:03.214',0.066
'0:03.217',0.069
'0:03.219',0.075
'0:03.222',0.083
'0:03.225',0.088
'0:03.228',0.094
'0:03.231',0.086
'0:03.233',0.083
'0:03.236',0.094
'0:03.239',0.105
'0:03.242',0.108
'0:03.244',0.099
'0:03.247',0.102
'0:03.250',0.105
'0:03.253',0.108
'0:03.256',0.105
'0:03.258',0.102
'0:03.261',0.11
'0:03.264',0.116
'0:03.267',0.116
'0:03.269',0.11
'0:03.272',0.11
'0:03.275',0.113
'0:03.278',0.122
'0:03.281',0.113
'0:03.283',0.113
'0:03.286',0.127
'0:03.289',0.135
'0:03.292',0.127
'0:03.294',0.122
'0:03.297',0.122
'0:03.300',0.119
'0:03.303',0.127
'0:03.306',0.135
'0:03.308',0.138
'0:03.311',0.141
'0:03.314',0.146
'0:03.317',0.152
'0:03.319',0.152
'0:03.322',0.149
'0:03.325',0.152
'0:03.328',0.171
'0:03.331',0.177
'0:03.333',0.163
'0:03.336',0.16
'0:03.339',0.171
'0:03.342',0.18
'0:03.344',0.182
'0:03.347',0.182
'0:03.350',0.193
'0:03.353',0.207
'0:03.356',0.218
'0:03.358',0.218
'0:03.361',0.218
'0:03.364',0.229
'0:03.367',0.232
'0:03.369',0.24
'0:03.372',0.251
'0:03.375',0.249
'0:03.378',0.257
'0:03.381',0.265
'0:03.383',0.265
'0:03.386',0.262
'0:03.389',0.251
'0:03.392',0.249
'0:03.394',0.254
'0:03.397',0.257
'0:03.400',0.262
'0:03.403',0.265
'0:03.406',0.265
'0:03.408',0.26
'0:03.411',0.251
'0:03.414',0.246
'0:03.417',0.24
'0:03.419',0.235
'0:03.422',0.229
'0:03.425',0.224
'0:03.428',0.207
'0:03.431',0.185
'0:03.433',0.18
'0:03.436',0.177
'0:03.439',0.166
'0:03.442',0.152
'0:03.444',0.144
'0:03.447',0.138
'0:03.450',0.13
'0:03.453',0.122
'0:03.456',0.122
'0:03.458',0.127
'0:03.461',0.113
'0:03.464',0.105
'0:03.467',0.105
'0:03.469',0.097
'0:03.472',0.099
'0:03.475',0.11
'0:03.478',0.11
'0:03.481',0.099
'0:03.483',0.094
'0:03.486',0.094
'0:03.489',0.099
'0:03.492',0.102
'0:03.494',0.102
'0:03.497',0.097
'0:03.500',0.091
'0:03.503',0.099
'0:03.506',0.102
'0:03.508',0.102
'0:03.511',0.097
'0:03.514',0.091
'0:03.517',0.091
'0:03.519',0.091
'0:03.522',0.094
'0:03.525',0.097
'0:03.528',0.094
'0:03.531',0.091
'0:03.533',0.094
'0:03.536',0.091
'0:03.539',0.088
'0:03.542',0.094
'0:03.544',0.091
'0:03.547',0.083
'0:03.550',0.083
'0:03.553',0.086
'0:03.556',0.086
'0:03.558',0.094
'0:03.561',0.086
'0:03.564',0.072
'0:03.567',0.072
'0:03.569',0.08
'0:03.572',0.083
'0:03.575',0.08
'0:03.578',0.072
'0:03.581',0.066
'0:03.583',0.072
'0:03.586',0.086
'0:03.589',0.091
'0:03.592',0.086
'0:03.594',0.072
'0:03.597',0.061
'0:03.600',0.058
'0:03.603',0.066
'0:03.606',0.072
'0:03.608',0.069
'0:03.611',0.072
'0:03.614',0.072
'0:03.617',0.075
'0:03.619',0.077
'0:03.622',0.066
'0:03.625',0.058
'0:03.628',0.058
'0:03.631',0.064
'0:03.633',0.075
'0:03.636',0.077
'0:03.639',0.075
'0:03.642',0.072
'0:03.644',0.066
'0:03.647',0.058
'0:03.650',0.052
'0:03.653',0.055
'0:03.656',0.064
'0:03.658',0.069
'0:03.661',0.069
'0:03.664',0.064
'0:03.667',0.058
'0:03.669',0.061
'0:03.672',0.064
'0:03.675',0.064
'0:03.678',0.055
'0:03.681',0.05
'0:03.683',0.052
'0:03.686',0.072
'0:03.689',0.094
'0:03.692',0.086
'0:03.694',0.075
'0:03.697',0.075
'0:03.700',0.086
'0:03.703',0.099
'0:03.706',0.108
'0:03.708',0.108
'0:03.711',0.102
'0:03.714',0.097
'0:03.717',0.102
'0:03.719',0.099
'0:03.722',0.094
'0:03.725',0.086
'0:03.728',0.08
'0:03.731',0.064
'0:03.733',0.064
'0:03.736',0.077
'0:03.739',0.091
'0:03.742',0.086
'0:03.744',0.08
'0:03.747',0.077
'0:03.750',0.077
'0:03.753',0.075
'0:03.756',0.075
'0:03.758',0.072
'0:03.761',0.058
'0:03.764',0.041
'0:03.767',0.052
'0:03.769',0.064
'0:03.772',0.058
'0:03.775',0.041
'0:03.778',0.047
'0:03.781',0.052
'0:03.783',0.052
'0:03.786',0.041
'0:03.789',0.033
'0:03.792',0.03
'0:03.794',0.025
'0:03.797',0.022
'0:03.800',0.028
'0:03.803',0.039
'0:03.806',0.047
'0:03.808',0.044
'0:03.811',0.044
'0:03.814',0.047
'0:03.817',0.052
'0:03.819',0.052
'0:03.822',0.047
'0:03.825',0.05
'0:03.828',0.072
'0:03.831',0.113
'0:03.833',0.174
'0:03.836',0.227
'0:03.839',0.276
'0:03.842',0.301
'0:03.844',0.279
'0:03.847',0.202
'0:03.850',0.066
'0:03.853',-0.102
'0:03.856',-0.287
'0:03.858',-0.439
'0:03.861',-0.575
'0:03.864',-0.707
'0:03.867',-0.773
'0:03.869',-0.715
'0:03.872',-0.61
'0:03.875',-0.497
'0:03.878',-0.376
'0:03.881',-0.232
'0:03.883',-0.116
'0:03.886',-0.033
'0:03.889',0.008
'0:03.892',0.028
'0:03.894',0.039
'0:03.897',0.047
'0:03.900',0.058
'0:03.903',0.072
'0:03.906',0.091
'0:03.908',0.102
'0:03.911',0.099
'0:03.914',0.094
'0:03.917',0.091
'0:03.919',0.091
'0:03.922',0.099
'0:03.925',0.108
'0:03.928',0.105
'0:03.931',0.102
'0:03.933',0.097
'0:03.936',0.102
'0:03.939',0.116
'0:03.942',0.119
'0:03.944',0.124
'0:03.947',0.119
'0:03.950',0.116
'0:03.953',0.119
'0:03.956',0.127
'0:03.958',0.127
'0:03.961',0.13
'0:03.964',0.119
'0:03.967',0.11
'0:03.969',0.122
'0:03.972',0.149
'0:03.975',0.155
'0:03.978',0.141
'0:03.981',0.122
'0:03.983',0.122
'0:03.986',0.133
'0:03.989',0.152
'0:03.992',0.155
'0:03.994',0.152
'0:03.997',0.149
'0:04.000',0.152
'0:04.003',0.155
'0:04.006',0.163
'0:04.008',0.171
'0:04.011',0.177
'0:04.014',0.169
'0:04.017',0.171
'0:04.019',0.188
'0:04.022',0.196
'0:04.025',0.199
'0:04.028',0.204
'0:04.031',0.204
'0:04.033',0.204
'0:04.036',0.221
'0:04.039',0.24
'0:04.042',0.243
'0:04.044',0.24
'0:04.047',0.238
'0:04.050',0.249
'0:04.053',0.26
'0:04.056',0.265
'0:04.058',0.271
'0:04.061',0.287
'0:04.064',0.298
'0:04.067',0.301
'0:04.069',0.296
'0:04.072',0.301
'0:04.075',0.307
'0:04.078',0.312
'0:04.081',0.312
'0:04.083',0.312
'0:04.086',0.318
'0:04.089',0.323
'0:04.092',0.32
'0:04.094',0.32
'0:04.097',0.312
'0:04.100',0.307
'0:04.103',0.307
'0:04.106',0.307
'0:04.108',0.301
'0:04.111',0.287
'0:04.114',0.273
'0:04.117',0.262
'0:04.119',0.254
'0:04.122',0.238
'0:04.125',0.218
'0:04.128',0.21
'0:04.131',0.191
'0:04.133',0.174
'0:04.136',0.163
'0:04.139',0.163
'0:04.142',0.152
'0:04.144',0.138
'0:04.147',0.13
'0:04.150',0.135
'0:04.153',0.135
'0:04.156',0.124
'0:04.158',0.108
'0:04.161',0.11
'0:04.164',0.11
'0:04.167',0.11
'0:04.169',0.108
'0:04.172',0.11
'0:04.175',0.116
'0:04.178',0.113
'0:04.181',0.11
'0:04.183',0.108
'0:04.186',0.116
'0:04.189',0.116
'0:04.192',0.102
'0:04.194',0.099
'0:04.197',0.099
'0:04.200',0.099
'0:04.203',0.102
'0:04.206',0.105
'0:04.208',0.102
'0:04.211',0.102
'0:04.214',0.102
'0:04.217',0.102
'0:04.219',0.108
'0:04.222',0.119
'0:04.225',0.116
'0:04.228',0.102
'0:04.231',0.086
'0:04.233',0.08
'0:04.236',0.088
'0:04.239',0.102
'0:04.242',0.105
'0:04.244',0.102
'0:04.247',0.091
'0:04.250',0.08
'0:04.253',0.088
'0:04.256',0.102
'0:04.258',0.099
'0:04.261',0.094
'0:04.264',0.086
'0:04.267',0.08
'0:04.269',0.077
'0:04.272',0.077
'0:04.275',0.08
'0:04.278',0.083
'0:04.281',0.091
'0:04.283',0.086
'0:04.286',0.08
'0:04.289',0.075
'0:04.292',0.075
'0:04.294',0.075
'0:04.297',0.075
'0:04.300',0.08
'0:04.303',0.08
'0:04.306',0.083
'0:04.308',0.08
'0:04.311',0.091
'0:04.314',0.08
'0:04.317',0.069
'0:04.319',0.069
'0:04.322',0.08
'0:04.325',0.08
'0:04.328',0.077
'0:04.331',0.072
'0:04.333',0.075
'0:04.336',0.077
'0:04.339',0.075
'0:04.342',0.061
'0:04.344',0.055
'0:04.347',0.061
'0:04.350',0.069
'0:04.353',0.075
'0:04.356',0.075
'0:04.358',0.072
'0:04.361',0.072
'0:04.364',0.075
'0:04.367',0.072
'0:04.369',0.069
'0:04.372',0.075
'0:04.375',0.077
'0:04.378',0.083
'0:04.381',0.088
'0:04.383',0.099
'0:04.386',0.105
'0:04.389',0.108
'0:04.392',0.105
'0:04.394',0.105
'0:04.397',0.105
'0:04.400',0.091
'0:04.403',0.088
'0:04.406',0.088
'0:04.408',0.091
'0:04.411',0.091
'0:04.414',0.086
'0:04.417',0.077
'0:04.419',0.069
'0:04.422',0.083
'0:04.425',0.105
'0:04.428',0.108
'0:04.431',0.094
'0:04.433',0.094
'0:04.436',0.08
'0:04.439',0.066
'0:04.442',0.064
'0:04.444',0.066
'0:04.447',0.069
'0:04.450',0.075
'0:04.453',0.077
'0:04.456',0.064
'0:04.458',0.047
'0:04.461',0.041
'0:04.464',0.041
'0:04.467',0.039
'0:04.469',0.039
'0:04.472',0.044
'0:04.475',0.052
'0:04.478',0.055
'0:04.481',0.039
'0:04.483',0.03
'0:04.486',0.033
'0:04.489',0.039
'0:04.492',0.05
'0:04.494',0.058
'0:04.497',0.047
'0:04.500',0.05
'0:04.503',0.05
'0:04.506',0.041
'0:04.508',0.03
'0:04.511',0.036
'0:04.514',0.047
'0:04.517',0.08
'0:04.519',0.141
'0:04.522',0.213
'0:04.525',0.257
'0:04.528',0.276
'0:04.531',0.287
'0:04.533',0.229
'0:04.536',0.135
'0:04.539',0
'0:04.542',-0.188
'0:04.544',-0.376
'0:04.547',-0.525
'0:04.550',-0.663
'0:04.553',-0.776
'0:04.556',-0.787
'0:04.558',-0.702
'0:04.561',-0.594
'0:04.564',-0.472
'0:04.567',-0.326
'0:04.569',-0.199
'0:04.572',-0.099
'0:04.575',-0.028
'0:04.578',-0.003
'0:04.581',0.028
'0:04.583',0.047
'0:04.586',0.061
'0:04.589',0.066
'0:04.592',0.077
'0:04.594',0.077
'0:04.597',0.069
'0:04.600',0.066
'0:04.603',0.077
'0:04.606',0.097
'0:04.608',0.097
'0:04.611',0.099
'0:04.614',0.102
'0:04.617',0.102
'0:04.619',0.099
'0:04.622',0.094
'0:04.625',0.099
'0:04.628',0.105
'0:04.631',0.105
'0:04.633',0.105
'0:04.636',0.113
'0:04.639',0.119
'0:04.642',0.119
'0:04.644',0.113
'0:04.647',0.122
'0:04.650',0.124
'0:04.653',0.116
'0:04.656',0.116
'0:04.658',0.11
'0:04.661',0.119
'0:04.664',0.133
'0:04.667',0.133
'0:04.669',0.127
'0:04.672',0.124
'0:04.675',0.144
'0:04.678',0.157
'0:04.681',0.144
'0:04.683',0.13
'0:04.686',0.135
'0:04.689',0.146
'0:04.692',0.16
'0:04.694',0.163
'0:04.697',0.152
'0:04.700',0.149
'0:04.703',0.163
'0:04.706',0.171
'0:04.708',0.177
'0:04.711',0.174
'0:04.714',0.18
'0:04.717',0.185
'0:04.719',0.191
'0:04.722',0.202
'0:04.725',0.21
'0:04.728',0.207
'0:04.731',0.213
'0:04.733',0.218
'0:04.736',0.227
'0:04.739',0.229
'0:04.742',0.246
'0:04.744',0.249
'0:04.747',0.251
'0:04.750',0.26
'0:04.753',0.265
'0:04.756',0.271
'0:04.758',0.276
'0:04.761',0.285
'0:04.764',0.276
'0:04.767',0.273
'0:04.769',0.273
'0:04.772',0.276
'0:04.775',0.279
'0:04.778',0.287
'0:04.781',0.282
'0:04.783',0.279
'0:04.786',0.276
'0:04.789',0.271
'0:04.792',0.262
'0:04.794',0.26
'0:04.797',0.249
'0:04.800',0.243
'0:04.803',0.238
'0:04.806',0.221
'0:04.808',0.196
'0:04.811',0.185
'0:04.814',0.171
'0:04.817',0.16
'0:04.819',0.155
'0:04.822',0.149
'0:04.825',0.138
'0:04.828',0.13
'0:04.831',0.124
'0:04.833',0.119
'0:04.836',0.113
'0:04.839',0.105
'0:04.842',0.097
'0:04.844',0.091
'0:04.847',0.08
'0:04.850',0.08
'0:04.853',0.086
'0:04.856',0.091
'0:04.858',0.094
'0:04.861',0.086
'0:04.864',0.08
'0:04.867',0.08
'0:04.869',0.077
'0:04.872',0.08
'0:04.875',0.088
'0:04.878',0.094
'0:04.881',0.086
'0:04.883',0.08
'0:04.886',0.077
'0:04.889',0.077
'0:04.892',0.083
'0:04.894',0.086
'0:04.897',0.083
'0:04.900',0.077
'0:04.903',0.075
'0:04.906',0.066
'0:04.908',0.064
'0:04.911',0.069
'0:04.914',0.075
'0:04.917',0.083
'0:04.919',0.083
'0:04.922',0.086
'0:04.925',0.088
'0:04.928',0.083
'0:04.931',0.066
'0:04.933',0.061
'0:04.936',0.058
'0:04.939',0.064
'0:04.942',0.064
'0:04.944',0.069
'0:04.947',0.072
'0:04.950',0.066
'0:04.953',0.055
'0:04.956',0.058
'0:04.958',0.066
'0:04.961',0.058
'0:04.964',0.058
'0:04.967',0.061
'0:04.969',0.061
'0:04.972',0.061
'0:04.975',0.064
'0:04.978',0.064
'0:04.981',0.061
'0:04.983',0.055
'0:04.986',0.055
'0:04.989',0.055
'0:04.992',0.052
'0:04.994',0.05
'0:04.997',0.047
'0:05.000',0.047
'0:05.003',0.052
'0:05.006',0.052
'0:05.008',0.05
'0:05.011',0.052
'0:05.014',0.05
'0:05.017',0.052
'0:05.019',0.05
'0:05.022',0.05
'0:05.025',0.047
'0:05.028',0.05
'0:05.031',0.047
'0:05.033',0.044
'0:05.036',0.041
'0:05.039',0.05
'0:05.042',0.058
'0:05.044',0.064
'0:05.047',0.069
'0:05.050',0.069
'0:05.053',0.072
'0:05.056',0.08
'0:05.058',0.083
'0:05.061',0.08
'0:05.064',0.075
'0:05.067',0.069
'0:05.069',0.072
'0:05.072',0.086
'0:05.075',0.08
'0:05.078',0.072
'0:05.081',0.061
'0:05.083',0.055
'0:05.086',0.055
'0:05.089',0.061
'0:05.092',0.061
'0:05.094',0.064
'0:05.097',0.055
'0:05.100',0.05
'0:05.103',0.047
'0:05.106',0.052
'0:05.108',0.058
'0:05.111',0.05
'0:05.114',0.039
'0:05.117',0.033
'0:05.119',0.039
'0:05.122',0.041
'0:05.125',0.036
'0:05.128',0.033
'0:05.131',0.022
'0:05.133',0.019
'0:05.136',0.022
'0:05.139',0.019
'0:05.142',0.014
'0:05.144',0.017
'0:05.147',0.017
'0:05.150',0.017
'0:05.153',0.019
'0:05.156',0.028
'0:05.158',0.028
'0:05.161',0.028
'0:05.164',0.022
'0:05.167',0.022
'0:05.169',0.03
'0:05.172',0.047
'0:05.175',0.039
'0:05.178',0.03
'0:05.181',0.041
'0:05.183',0.08
'0:05.186',0.133
'0:05.189',0.185
'0:05.192',0.229
'0:05.194',0.26
'0:05.197',0.257
'0:05.200',0.218
'0:05.203',0.127
'0:05.206',-0.028
'0:05.208',-0.207
'0:05.211',-0.373
'0:05.214',-0.514
'0:05.217',-0.646
'0:05.219',-0.762
'0:05.222',-0.768
'0:05.225',-0.682
'0:05.228',-0.564
'0:05.231',-0.425
'0:05.233',-0.29
'0:05.236',-0.174
'0:05.239',-0.083
'0:05.242',-0.025
'0:05.244',0.006
'0:05.247',0.017
'0:05.250',0.033
'0:05.253',0.044
'0:05.256',0.055
'0:05.258',0.058
'0:05.261',0.061
'0:05.264',0.066
'0:05.267',0.066
'0:05.269',0.069
'0:05.272',0.075
'0:05.275',0.077
'0:05.278',0.083
'0:05.281',0.083
'0:05.283',0.088
'0:05.286',0.091
'0:05.289',0.091
'0:05.292',0.091
'0:05.294',0.088
'0:05.297',0.086
'0:05.300',0.086
'0:05.303',0.094
'0:05.306',0.11
'0:05.308',0.11
'0:05.311',0.099
'0:05.314',0.083
'0:05.317',0.088
'0:05.319',0.108
'0:05.322',0.119
'0:05.325',0.108
'0:05.328',0.108
'0:05.331',0.108
'0:05.333',0.116
'0:05.336',0.11
'0:05.339',0.116
'0:05.342',0.122
'0:05.344',0.113
'0:05.347',0.108
'0:05.350',0.124
'0:05.353',0.135
'0:05.356',0.133
'0:05.358',0.124
'0:05.361',0.124
'0:05.364',0.133
'0:05.367',0.141
'0:05.369',0.144
'0:05.372',0.141
'0:05.375',0.144
'0:05.378',0.155
'0:05.381',0.16
'0:05.383',0.157
'0:05.386',0.16
'0:05.389',0.169
'0:05.392',0.182
'0:05.394',0.188
'0:05.397',0.182
'0:05.400',0.182
'0:05.403',0.193
'0:05.406',0.193
'0:05.408',0.204
'0:05.411',0.215
'0:05.414',0.213
'0:05.417',0.21
'0:05.419',0.221
'0:05.422',0.232
'0:05.425',0.235
'0:05.428',0.235
'0:05.431',0.232
'0:05.433',0.229
'0:05.436',0.232
'0:05.439',0.235
'0:05.442',0.232
'0:05.444',0.232
'0:05.447',0.221
'0:05.450',0.218
'0:05.453',0.224
'0:05.456',0.221
'0:05.458',0.21
'0:05.461',0.199
'0:05.464',0.182
'0:05.467',0.18
'0:05.469',0.185
'0:05.472',0.182
'0:05.475',0.171
'0:05.478',0.163
'0:05.481',0.146
'0:05.483',0.124
'0:05.486',0.108
'0:05.489',0.113
'0:05.492',0.119
'0:05.494',0.105
'0:05.497',0.083
'0:05.500',0.08
'0:05.503',0.083
'0:05.506',0.086
'0:05.508',0.086
'0:05.511',0.088
'0:05.514',0.083
'0:05.517',0.083
'0:05.519',0.08
'0:05.522',0.075
'0:05.525',0.075
'0:05.528',0.08
'0:05.531',0.077
'0:05.533',0.077
'0:05.536',0.077
'0:05.539',0.083
'0:05.542',0.083
'0:05.544',0.083
'0:05.547',0.072
'0:05.550',0.064
'0:05.553',0.066
'0:05.556',0.069
'0:05.558',0.075
'0:05.561',0.08
'0:05.564',0.075
'0:05.567',0.069
'0:05.569',0.064
'0:05.572',0.061
'0:05.575',0.055
'0:05.578',0.055
'0:05.581',0.058
'0:05.583',0.069
'0:05.586',0.083
'0:05.589',0.083
'0:05.592',0.069
'0:05.594',0.058
'0:05.597',0.055
'0:05.600',0.058
'0:05.603',0.064
'0:05.606',0.066
'0:05.608',0.058
'0:05.611',0.058
'0:05.614',0.064
'0:05.617',0.069
'0:05.619',0.064
'0:05.622',0.061
'0:05.625',0.055
'0:05.628',0.058
'0:05.631',0.058
'0:05.633',0.047
'0:05.636',0.044
'0:05.639',0.05
'0:05.642',0.047
'0:05.644',0.041
'0:05.647',0.047
'0:05.650',0.055
'0:05.653',0.058
'0:05.656',0.05
'0:05.658',0.044
'0:05.661',0.041
'0:05.664',0.036
'0:05.667',0.036
'0:05.669',0.039
'0:05.672',0.041
'0:05.675',0.044
'0:05.678',0.052
'0:05.681',0.047
'0:05.683',0.041
'0:05.686',0.041
'0:05.689',0.047
'0:05.692',0.047
'0:05.694',0.052
'0:05.697',0.064
'0:05.700',0.075
'0:05.703',0.072
'0:05.706',0.066
'0:05.708',0.064
'0:05.711',0.069
'0:05.714',0.069
'0:05.717',0.069
'0:05.719',0.08
'0:05.722',0.091
'0:05.725',0.091
'0:05.728',0.086
'0:05.731',0.072
'0:05.733',0.055
'0:05.736',0.044
'0:05.739',0.047
'0:05.742',0.052
'0:05.744',0.061
'0:05.747',0.064
'0:05.750',0.061
'0:05.753',0.047
'0:05.756',0.041
'0:05.758',0.041
'0:05.761',0.041
'0:05.764',0.041
'0:05.767',0.039
'0:05.769',0.044
'0:05.772',0.047
'0:05.775',0.039
'0:05.778',0.033
'0:05.781',0.028
'0:05.783',0.019
'0:05.786',0.014
'0:05.789',0.019
'0:05.792',0.017
'0:05.794',0.017
'0:05.797',0.017
'0:05.800',0.025
'0:05.803',0.036
'0:05.806',0.036
'0:05.808',0.03
'0:05.811',0.028
'0:05.814',0.025
'0:05.817',0.028
'0:05.819',0.025
'0:05.822',0.03
'0:05.825',0.028
'0:05.828',0.019
'0:05.831',0.017
'0:05.833',0.03
'0:05.836',0.072
'0:05.839',0.133
'0:05.842',0.185
'0:05.844',0.227
'0:05.847',0.246
'0:05.850',0.243
'0:05.853',0.204
'0:05.856',0.122
'0:05.858',-0.014
'0:05.861',-0.177
'0:05.864',-0.343
'0:05.867',-0.486
'0:05.869',-0.622
'0:05.872',-0.743
'0:05.875',-0.779
'0:05.878',-0.707
'0:05.881',-0.599
'0:05.883',-0.472
'0:05.886',-0.323
'0:05.889',-0.191
'0:05.892',-0.105
'0:05.894',-0.044
'0:05.897',-0.014
'0:05.900',0.006
'0:05.903',0.025
'0:05.906',0.041
'0:05.908',0.052
'0:05.911',0.055
'0:05.914',0.052
'0:05.917',0.058
'0:05.919',0.066
'0:05.922',0.08
'0:05.925',0.083
'0:05.928',0.08
'0:05.931',0.072
'0:05.933',0.064
'0:05.936',0.058
'0:05.939',0.064
'0:05.942',0.08
'0:05.944',0.094
'0:05.947',0.097
'0:05.950',0.094
'0:05.953',0.088
'0:05.956',0.088
'0:05.958',0.088
'0:05.961',0.094
'0:05.964',0.091
'0:05.967',0.091
'0:05.969',0.097
'0:05.972',0.105
'0:05.975',0.099
'0:05.978',0.105
'0:05.981',0.11
'0:05.983',0.122
'0:05.986',0.127
'0:05.989',0.116
'0:05.992',0.113
'0:05.994',0.113
'0:05.997',0.108
'0:06.000',0.105
'0:06.003',0.105
'0:06.006',0.116
'0:06.008',0.122
'0:06.011',0.127
'0:06.014',0.122
'0:06.017',0.122
'0:06.019',0.122
'0:06.022',0.124
'0:06.025',0.133
'0:06.028',0.141
'0:06.031',0.141
'0:06.033',0.138
'0:06.036',0.141
'0:06.039',0.155
'0:06.042',0.16
'0:06.044',0.16
'0:06.047',0.155
'0:06.050',0.163
'0:06.053',0.177
'0:06.056',0.182
'0:06.058',0.182
'0:06.061',0.185
'0:06.064',0.188
'0:06.067',0.191
'0:06.069',0.196
'0:06.072',0.215
'0:06.075',0.218
'0:06.078',0.215
'0:06.081',0.202
'0:06.083',0.193
'0:06.086',0.196
'0:06.089',0.207
'0:06.092',0.213
'0:06.094',0.215
'0:06.097',0.215
'0:06.100',0.207
'0:06.103',0.204
'0:06.106',0.207
'0:06.108',0.196
'0:06.111',0.185
'0:06.114',0.18
'0:06.117',0.182
'0:06.119',0.169
'0:06.122',0.16
'0:06.125',0.16
'0:06.128',0.155
'0:06.131',0.141
'0:06.133',0.13
'0:06.136',0.122
'0:06.139',0.119
'0:06.142',0.113
'0:06.144',0.105
'0:06.147',0.091
'0:06.150',0.083
'0:06.153',0.086
'0:06.156',0.091
'0:06.158',0.094
'0:06.161',0.097
'0:06.164',0.091
'0:06.167',0.08
'0:06.169',0.075
'0:06.172',0.08
'0:06.175',0.08
'0:06.178',0.086
'0:06.181',0.086
'0:06.183',0.083
'0:06.186',0.08
'0:06.189',0.083
'0:06.192',0.086
'0:06.194',0.088
'0:06.197',0.08
'0:06.200',0.072
'0:06.203',0.072
'0:06.206',0.083
'0:06.208',0.086
'0:06.211',0.086
'0:06.214',0.077
'0:06.217',0.072
'0:06.219',0.08
'0:06.222',0.088
'0:06.225',0.086
'0:06.228',0.08
'0:06.231',0.077
'0:06.233',0.08
'0:06.236',0.072
'0:06.239',0.066
'0:06.242',0.066
'0:06.244',0.075
'0:06.247',0.072
'0:06.250',0.061
'0:06.253',0.061
'0:06.256',0.075
'0:06.258',0.08
'0:06.261',0.072
'0:06.264',0.058
'0:06.267',0.058
'0:06.269',0.055
'0:06.272',0.055
'0:06.275',0.058
'0:06.278',0.058
'0:06.281',0.058
'0:06.283',0.064
'0:06.286',0.069
'0:06.289',0.066
'0:06.292',0.061
'0:06.294',0.058
'0:06.297',0.058
'0:06.300',0.055
'0:06.303',0.052
'0:06.306',0.058
'0:06.308',0.055
'0:06.311',0.044
'0:06.314',0.044
'0:06.317',0.052
'0:06.319',0.061
'0:06.322',0.061
'0:06.325',0.064
'0:06.328',0.069
'0:06.331',0.061
'0:06.333',0.058
'0:06.336',0.072
'0:06.339',0.08
'0:06.342',0.083
'0:06.344',0.086
'0:06.347',0.097
'0:06.350',0.097
'0:06.353',0.077
'0:06.356',0.08
'0:06.358',0.099
'0:06.361',0.108
'0:06.364',0.094
'0:06.367',0.08
'0:06.369',0.075
'0:06.372',0.064
'0:06.375',0.044
'0:06.378',0.044
'0:06.381',0.052
'0:06.383',0.052
'0:06.386',0.05
'0:06.389',0.058
'0:06.392',0.064
'0:06.394',0.064
'0:06.397',0.061
'0:06.400',0.047
'0:06.403',0.047
'0:06.406',0.055
'0:06.408',0.047
'0:06.411',0.039
'0:06.414',0.033
'0:06.417',0.036
'0:06.419',0.039
'0:06.422',0.044
'0:06.425',0.041
'0:06.428',0.033
'0:06.431',0.028
'0:06.433',0.03
'0:06.436',0.025
'0:06.439',0.025
'0:06.442',0.028
'0:06.444',0.03
'0:06.447',0.036
'0:06.450',0.039
'0:06.453',0.036
'0:06.456',0.036
'0:06.458',0.033
'0:06.461',0.025
'0:06.464',0.019
'0:06.467',0.017
'0:06.469',0.019
'0:06.472',0.041
'0:06.475',0.077
'0:06.478',0.144
'0:06.481',0.204
'0:06.483',0.238
'0:06.486',0.251
'0:06.489',0.246
'0:06.492',0.202
'0:06.494',0.11
'0:06.497',-0.036
'0:06.500',-0.193
'0:06.503',-0.329
'0:06.506',-0.445
'0:06.508',-0.575
'0:06.511',-0.688
'0:06.514',-0.699
'0:06.517',-0.622
'0:06.519',-0.497
'0:06.522',-0.348
'0:06.525',-0.227
'0:06.528',-0.144
'0:06.531',-0.077
'0:06.533',-0.022
'0:06.536',0.006
'0:06.539',0.028
'0:06.542',0.036
'0:06.544',0.041
'0:06.547',0.047
'0:06.550',0.05
'0:06.553',0.052
'0:06.556',0.061
'0:06.558',0.072
'0:06.561',0.083
'0:06.564',0.08
'0:06.567',0.077
'0:06.569',0.075
'0:06.572',0.088
'0:06.575',0.091
'0:06.578',0.083
'0:06.581',0.069
'0:06.583',0.072
'0:06.586',0.088
'0:06.589',0.102
'0:06.592',0.099
'0:06.594',0.094
'0:06.597',0.088
'0:06.600',0.086
'0:06.603',0.086
'0:06.606',0.097
'0:06.608',0.108
'0:06.611',0.105
'0:06.614',0.102
'0:06.617',0.099
'0:06.619',0.102
'0:06.622',0.11
'0:06.625',0.116
'0:06.628',0.122
'0:06.631',0.119
'0:06.633',0.108
'0:06.636',0.102
'0:06.639',0.11
'0:06.642',0.116
'0:06.644',0.122
'0:06.647',0.11
'0:06.650',0.108
'0:06.653',0.11
'0:06.656',0.122
'0:06.658',0.13
'0:06.661',0.13
'0:06.664',0.13
'0:06.667',0.13
'0:06.669',0.13
'0:06.672',0.138
'0:06.675',0.144
'0:06.678',0.144
'0:06.681',0.138
'0:06.683',0.152
'0:06.686',0.16
'0:06.689',0.169
'0:06.692',0.169
'0:06.694',0.169
'0:06.697',0.171
'0:06.700',0.171
'0:06.703',0.174
'0:06.706',0.182
'0:06.708',0.188
'0:06.711',0.182
'0:06.714',0.18
'0:06.717',0.188
'0:06.719',0.191
'0:06.722',0.196
'0:06.725',0.202
'0:06.728',0.191
'0:06.731',0.177
'0:06.733',0.18
'0:06.736',0.185
'0:06.739',0.188
'0:06.742',0.182
'0:06.744',0.182
'0:06.747',0.18
'0:06.750',0.171
'0:06.753',0.169
'0:06.756',0.163
'0:06.758',0.155
'0:06.761',0.146
'0:06.764',0.138
'0:06.767',0.127
'0:06.769',0.113
'0:06.772',0.116
'0:06.775',0.113
'0:06.778',0.108
'0:06.781',0.094
'0:06.783',0.088
'0:06.786',0.091
'0:06.789',0.094
'0:06.792',0.086
'0:06.794',0.086
'0:06.797',0.08
'0:06.800',0.075
'0:06.803',0.072
'0:06.806',0.075
'0:06.808',0.075
'0:06.811',0.072
'0:06.814',0.072
'0:06.817',0.077
'0:06.819',0.08
'0:06.822',0.075
'0:06.825',0.075
'0:06.828',0.072
'0:06.831',0.064
'0:06.833',0.066
'0:06.836',0.066
'0:06.839',0.075
'0:06.842',0.072
'0:06.844',0.064
'0:06.847',0.058
'0:06.850',0.058
'0:06.853',0.061
'0:06.856',0.066
'0:06.858',0.077
'0:06.861',0.075
'0:06.864',0.061
'0:06.867',0.055
'0:06.869',0.061
'0:06.872',0.061
'0:06.875',0.055
'0:06.878',0.055
'0:06.881',0.044
'0:06.883',0.05
'0:06.886',0.055
'0:06.889',0.052
'0:06.892',0.044
'0:06.894',0.044
'0:06.897',0.05
'0:06.900',0.055
'0:06.903',0.052
'0:06.906',0.058
'0:06.908',0.061
'0:06.911',0.052
'0:06.914',0.041
'0:06.917',0.039
'0:06.919',0.036
'0:06.922',0.036
'0:06.925',0.036
'0:06.928',0.036
'0:06.931',0.028
'0:06.933',0.033
'0:06.936',0.041
'0:06.939',0.047
'0:06.942',0.047
'0:06.944',0.044
'0:06.947',0.041
'0:06.950',0.039
'0:06.953',0.036
'0:06.956',0.041
'0:06.958',0.047
'0:06.961',0.05
'0:06.964',0.047
'0:06.967',0.047
'0:06.969',0.041
'0:06.972',0.05
'0:06.975',0.061
'0:06.978',0.066
'0:06.981',0.061
'0:06.983',0.055
'0:06.986',0.058
'0:06.989',0.066
'0:06.992',0.066
'0:06.994',0.064
'0:06.997',0.055
'0:07.000',0.05
'0:07.003',0.036
'0:07.006',0.03
'0:07.008',0.036
'0:07.011',0.044
'0:07.014',0.039
'0:07.017',0.039
'0:07.019',0.036
'0:07.022',0.039
'0:07.025',0.041
'0:07.028',0.041
'0:07.031',0.036
'0:07.033',0.033
'0:07.036',0.03
'0:07.039',0.03
'0:07.042',0.03
'0:07.044',0.025
'0:07.047',0.017
'0:07.050',0.014
'0:07.053',0.006
'0:07.056',0.003
'0:07.058',0.006
'0:07.061',0.006
'0:07.064',0
'0:07.067',0
'0:07.069',0
'0:07.072',0
'0:07.075',0
'0:07.078',0.008
'0:07.081',0.006
'0:07.083',0.003
'0:07.086',0.006
'0:07.089',0.014
'0:07.092',0.006
'0:07.094',0.006
'0:07.097',0.008
'0:07.100',0.014
'0:07.103',0.033
'0:07.106',0.091
'0:07.108',0.152
'0:07.111',0.196
'0:07.114',0.229
'0:07.117',0.246
'0:07.119',0.235
'0:07.122',0.177
'0:07.125',0.058
'0:07.128',-0.105
'0:07.131',-0.282
'0:07.133',-0.436
'0:07.136',-0.569
'0:07.139',-0.707
'0:07.142',-0.798
'0:07.144',-0.771
'0:07.147',-0.68
'0:07.150',-0.555
'0:07.153',-0.406
'0:07.156',-0.271
'0:07.158',-0.163
'0:07.161',-0.08
'0:07.164',-0.036
'0:07.167',-0.017
'0:07.169',0
'0:07.172',0.025
'0:07.175',0.036
'0:07.178',0.039
'0:07.181',0.041
'0:07.183',0.047
'0:07.186',0.055
'0:07.189',0.072
'0:07.192',0.08
'0:07.194',0.075
'0:07.197',0.066
'0:07.200',0.064
'0:07.203',0.058
'0:07.206',0.066
'0:07.208',0.08
'0:07.211',0.088
'0:07.214',0.086
'0:07.217',0.086
'0:07.219',0.088
'0:07.222',0.088
'0:07.225',0.086
'0:07.228',0.083
'0:07.231',0.086
'0:07.233',0.097
'0:07.236',0.102
'0:07.239',0.108
'0:07.242',0.094
'0:07.244',0.097
'0:07.247',0.102
'0:07.250',0.105
'0:07.253',0.113
'0:07.256',0.119
'0:07.258',0.099
'0:07.261',0.086
'0:07.264',0.086
'0:07.267',0.108
'0:07.269',0.119
'0:07.272',0.119
'0:07.275',0.122
'0:07.278',0.124
'0:07.281',0.122
'0:07.283',0.116
'0:07.286',0.113
'0:07.289',0.133
'0:07.292',0.149
'0:07.294',0.152
'0:07.297',0.149
'0:07.300',0.146
'0:07.303',0.144
'0:07.306',0.152
'0:07.308',0.16
'0:07.311',0.169
'0:07.314',0.18
'0:07.317',0.193
'0:07.319',0.202
'0:07.322',0.224
'0:07.325',0.24
'0:07.328',0.243
'0:07.331',0.232
'0:07.333',0.221
'0:07.336',0.232
'0:07.339',0.238
'0:07.342',0.227
'0:07.344',0.227
'0:07.347',0.238
'0:07.350',0.235
'0:07.353',0.235
'0:07.356',0.249
'0:07.358',0.254
'0:07.361',0.249
'0:07.364',0.227
'0:07.367',0.227
'0:07.369',0.249
'0:07.372',0.251
'0:07.375',0.238
'0:07.378',0.227
'0:07.381',0.224
'0:07.383',0.227
'0:07.386',0.215
'0:07.389',0.202
'0:07.392',0.193
'0:07.394',0.193
'0:07.397',0.171
'0:07.400',0.144
'0:07.403',0.13
'0:07.406',0.127
'0:07.408',0.133
'0:07.411',0.133
'0:07.414',0.119
'0:07.417',0.108
'0:07.419',0.097
'0:07.422',0.08
'0:07.425',0.064
'0:07.428',0.075
'0:07.431',0.091
'0:07.433',0.094
'0:07.436',0.088
'0:07.439',0.097
'0:07.442',0.094
'0:07.444',0.086
'0:07.447',0.069
'0:07.450',0.061
'0:07.453',0.069
'0:07.456',0.083
'0:07.458',0.086
'0:07.461',0.083
'0:07.464',0.077
'0:07.467',0.075
'0:07.469',0.072
'0:07.472',0.08
'0:07.475',0.08
'0:07.478',0.075
'0:07.481',0.075
'0:07.483',0.077
'0:07.486',0.075
'0:07.489',0.077
'0:07.492',0.08
'0:07.494',0.075
'0:07.497',0.066
'0:07.500',0.052
'0:07.503',0.058
'0:07.506',0.075
'0:07.508',0.08
'0:07.511',0.077
'0:07.514',0.066
'0:07.517',0.055
'0:07.519',0.055
'0:07.522',0.066
'0:07.525',0.069
'0:07.528',0.058
'0:07.531',0.05
'0:07.533',0.061
'0:07.536',0.064
'0:07.539',0.061
'0:07.542',0.061
'0:07.544',0.061
'0:07.547',0.052
'0:07.550',0.05
'0:07.553',0.05
'0:07.556',0.052
'0:07.558',0.058
'0:07.561',0.055
'0:07.564',0.044
'0:07.567',0.044
'0:07.569',0.052
'0:07.572',0.061
'0:07.575',0.058
'0:07.578',0.047
'0:07.581',0.047
'0:07.583',0.047
'0:07.586',0.041
'0:07.589',0.047
'0:07.592',0.05
'0:07.594',0.047
'0:07.597',0.05
'0:07.600',0.055
'0:07.603',0.058
'0:07.606',0.064
'0:07.608',0.075
'0:07.611',0.083
'0:07.614',0.088
'0:07.617',0.086
'0:07.619',0.072
'0:07.622',0.069
'0:07.625',0.077
'0:07.628',0.083
'0:07.631',0.069
'0:07.633',0.055
'0:07.636',0.05
'0:07.639',0.05
'0:07.642',0.052
'0:07.644',0.055
'0:07.647',0.047
'0:07.650',0.041
'0:07.653',0.041
'0:07.656',0.041
'0:07.658',0.036
'0:07.661',0.039
'0:07.664',0.036
'0:07.667',0.03
'0:07.669',0.03
'0:07.672',0.039
'0:07.675',0.041
'0:07.678',0.039
'0:07.681',0.03
'0:07.683',0.028
'0:07.686',0.025
'0:07.689',0.022
'0:07.692',0.017
'0:07.694',0.014
'0:07.697',0.014
'0:07.700',0.014
'0:07.703',0.011
'0:07.706',0.019
'0:07.708',0.019
'0:07.711',0.017
'0:07.714',0.014
'0:07.717',0.011
'0:07.719',0.008
'0:07.722',0.014
'0:07.725',0.014
'0:07.728',0.017
'0:07.731',0.019
'0:07.733',0.025
'0:07.736',0.025
'0:07.739',0.058
'0:07.742',0.119
'0:07.744',0.188
'0:07.747',0.227
'0:07.750',0.249
'0:07.753',0.243
'0:07.756',0.196
'0:07.758',0.102
'0:07.761',-0.052
'0:07.764',-0.254
'0:07.767',-0.448
'0:07.769',-0.605
'0:07.772',-0.743
'0:07.775',-0.865
'0:07.778',-0.884
'0:07.781',-0.801
'0:07.783',-0.674
'0:07.786',-0.528
'0:07.789',-0.365
'0:07.792',-0.224
'0:07.794',-0.119
'0:07.797',-0.052
'0:07.800',-0.017
'0:07.803',0
'0:07.806',0.028
'0:07.808',0.047
'0:07.811',0.05
'0:07.814',0.041
'0:07.817',0.047
'0:07.819',0.058
'0:07.822',0.069
'0:07.825',0.075
'0:07.828',0.083
'0:07.831',0.083
'0:07.833',0.08
'0:07.836',0.08
'0:07.839',0.086
'0:07.842',0.086
'0:07.844',0.08
'0:07.847',0.08
'0:07.850',0.088
'0:07.853',0.097
'0:07.856',0.099
'0:07.858',0.102
'0:07.861',0.105
'0:07.864',0.097
'0:07.867',0.094
'0:07.869',0.102
'0:07.872',0.116
'0:07.875',0.119
'0:07.878',0.116
'0:07.881',0.11
'0:07.883',0.108
'0:07.886',0.116
'0:07.889',0.124
'0:07.892',0.122
'0:07.894',0.122
'0:07.897',0.124
'0:07.900',0.13
'0:07.903',0.135
'0:07.906',0.138
'0:07.908',0.138
'0:07.911',0.141
'0:07.914',0.144
'0:07.917',0.141
'0:07.919',0.138
'0:07.922',0.149
'0:07.925',0.157
'0:07.928',0.166
'0:07.931',0.171
'0:07.933',0.169
'0:07.936',0.171
'0:07.939',0.191
'0:07.942',0.199
'0:07.944',0.202
'0:07.947',0.207
'0:07.950',0.213
'0:07.953',0.218
'0:07.956',0.221
'0:07.958',0.227
'0:07.961',0.235
'0:07.964',0.24
'0:07.967',0.246
'0:07.969',0.251
'0:07.972',0.26
'0:07.975',0.26
'0:07.978',0.265
'0:07.981',0.265
'0:07.983',0.268
'0:07.986',0.265
'0:07.989',0.265
'0:07.992',0.273
'0:07.994',0.279
'0:07.997',0.271
'0:08.000',0.265
'0:08.003',0.262
'0:08.006',0.265
'0:08.008',0.262
'0:08.011',0.262
'0:08.014',0.249
'0:08.017',0.229
'0:08.019',0.218
'0:08.022',0.21
'0:08.025',0.193
'0:08.028',0.185
'0:08.031',0.166
'0:08.033',0.144
'0:08.036',0.133
'0:08.039',0.133
'0:08.042',0.127
'0:08.044',0.116
'0:08.047',0.099
'0:08.050',0.086
'0:08.053',0.083
'0:08.056',0.086
'0:08.058',0.086
'0:08.061',0.083
'0:08.064',0.072
'0:08.067',0.069
'0:08.069',0.066
'0:08.072',0.069
'0:08.075',0.075
'0:08.078',0.069
'0:08.081',0.061
'0:08.083',0.064
'0:08.086',0.069
'0:08.089',0.072
'0:08.092',0.064
'0:08.094',0.064
'0:08.097',0.058
'0:08.100',0.055
'0:08.103',0.055
'0:08.106',0.061
'0:08.108',0.066
'0:08.111',0.075
'0:08.114',0.072
'0:08.117',0.069
'0:08.119',0.069
'0:08.122',0.064
'0:08.125',0.061
'0:08.128',0.058
'0:08.131',0.058
'0:08.133',0.055
'0:08.136',0.052
'0:08.139',0.064
'0:08.142',0.072
'0:08.144',0.069
'0:08.147',0.058
'0:08.150',0.058
'0:08.153',0.061
'0:08.156',0.055
'0:08.158',0.05
'0:08.161',0.047
'0:08.164',0.044
'0:08.167',0.047
'0:08.169',0.044
'0:08.172',0.052
'0:08.175',0.055
'0:08.178',0.055
'0:08.181',0.047
'0:08.183',0.047
'0:08.186',0.047
'0:08.189',0.044
'0:08.192',0.041
'0:08.194',0.041
'0:08.197',0.036
'0:08.200',0.039
'0:08.203',0.036
'0:08.206',0.039
'0:08.208',0.036
'0:08.211',0.036
'0:08.214',0.03
'0:08.217',0.036
'0:08.219',0.041
'0:08.222',0.044
'0:08.225',0.033
'0:08.228',0.036
'0:08.231',0.047
'0:08.233',0.058
'0:08.236',0.064
'0:08.239',0.061
'0:08.242',0.058
'0:08.244',0.052
'0:08.247',0.05
'0:08.250',0.058
'0:08.253',0.061
'0:08.256',0.066
'0:08.258',0.069
'0:08.261',0.072
'0:08.264',0.064
'0:08.267',0.058
'0:08.269',0.05
'0:08.272',0.036
'0:08.275',0.028
'0:08.278',0.03
'0:08.281',0.039
'0:08.283',0.039
'0:08.286',0.03
'0:08.289',0.028
'0:08.292',0.03
'0:08.294',0.033
'0:08.297',0.036
'0:08.300',0.036
'0:08.303',0.03
'0:08.306',0.036
'0:08.308',0.039
'0:08.311',0.03
'0:08.314',0.019
'0:08.317',0.017
'0:08.319',0.017
'0:08.322',0.022
'0:08.325',0.017
'0:08.328',0.011
'0:08.331',0.003
'0:08.333',0
'0:08.336',0.003
'0:08.339',0.011
'0:08.342',0.006
'0:08.344',0.003
'0:08.347',0
'0:08.350',0.006
'0:08.353',0.008
'0:08.356',0.014
'0:08.358',0.014
'0:08.361',0.014
'0:08.364',0.014
'0:08.367',0.011
'0:08.369',0.006
'0:08.372',0.025
'0:08.375',0.066
'0:08.378',0.127
'0:08.381',0.177
'0:08.383',0.227
'0:08.386',0.251
'0:08.389',0.249
'0:08.392',0.202
'0:08.394',0.091
'0:08.397',-0.075
'0:08.400',-0.251
'0:08.403',-0.417
'0:08.406',-0.555
'0:08.408',-0.707
'0:08.411',-0.84
'0:08.414',-0.851
'0:08.417',-0.757
'0:08.419',-0.63
'0:08.422',-0.478
'0:08.425',-0.326
'0:08.428',-0.204
'0:08.431',-0.119
'0:08.433',-0.055
'0:08.436',-0.022
'0:08.439',-0.008
'0:08.442',0.008
'0:08.444',0.025
'0:08.447',0.028
'0:08.450',0.03
'0:08.453',0.039
'0:08.456',0.055
'0:08.458',0.061
'0:08.461',0.058
'0:08.464',0.052
'0:08.467',0.069
'0:08.469',0.08
'0:08.472',0.064
'0:08.475',0.055
'0:08.478',0.064
'0:08.481',0.066
'0:08.483',0.066
'0:08.486',0.077
'0:08.489',0.091
'0:08.492',0.088
'0:08.494',0.083
'0:08.497',0.077
'0:08.500',0.077
'0:08.503',0.077
'0:08.506',0.086
'0:08.508',0.099
'0:08.511',0.099
'0:08.514',0.091
'0:08.517',0.094
'0:08.519',0.094
'0:08.522',0.099
'0:08.525',0.097
'0:08.528',0.102
'0:08.531',0.099
'0:08.533',0.099
'0:08.536',0.097
'0:08.539',0.105
'0:08.542',0.116
'0:08.544',0.119
'0:08.547',0.113
'0:08.550',0.108
'0:08.553',0.11
'0:08.556',0.119
'0:08.558',0.124
'0:08.561',0.13
'0:08.564',0.13
'0:08.567',0.133
'0:08.569',0.133
'0:08.572',0.141
'0:08.575',0.155
'0:08.578',0.163
'0:08.581',0.155
'0:08.583',0.152
'0:08.586',0.166
'0:08.589',0.182
'0:08.592',0.185
'0:08.594',0.185
'0:08.597',0.185
'0:08.600',0.188
'0:08.603',0.191
'0:08.606',0.204
'0:08.608',0.21
'0:08.611',0.213
'0:08.614',0.21
'0:08.617',0.215
'0:08.619',0.21
'0:08.622',0.207
'0:08.625',0.213
'0:08.628',0.221
'0:08.631',0.224
'0:08.633',0.221
'0:08.636',0.213
'0:08.639',0.218
'0:08.642',0.224
'0:08.644',0.213
'0:08.647',0.199
'0:08.650',0.193
'0:08.653',0.188
'0:08.656',0.182
'0:08.658',0.174
'0:08.661',0.166
'0:08.664',0.152
'0:08.667',0.133
'0:08.669',0.119
'0:08.672',0.113
'0:08.675',0.11
'0:08.678',0.105
'0:08.681',0.083
'0:08.683',0.066
'0:08.686',0.072
'0:08.689',0.086
'0:08.692',0.086
'0:08.694',0.077
'0:08.697',0.066
'0:08.700',0.066
'0:08.703',0.064
'0:08.706',0.055
'0:08.708',0.044
'0:08.711',0.05
'0:08.714',0.052
'0:08.717',0.055
'0:08.719',0.055
'0:08.722',0.055
'0:08.725',0.058
'0:08.728',0.064
'0:08.731',0.061
'0:08.733',0.055
'0:08.736',0.05
'0:08.739',0.05
'0:08.742',0.055
'0:08.744',0.058
'0:08.747',0.058
'0:08.750',0.055
'0:08.753',0.055
'0:08.756',0.058
'0:08.758',0.064
'0:08.761',0.061
'0:08.764',0.055
'0:08.767',0.055
'0:08.769',0.055
'0:08.772',0.047
'0:08.775',0.052
'0:08.778',0.05
'0:08.781',0.039
'0:08.783',0.041
'0:08.786',0.044
'0:08.789',0.047
'0:08.792',0.047
'0:08.794',0.05
'0:08.797',0.052
'0:08.800',0.047
'0:08.803',0.039
'0:08.806',0.047
'0:08.808',0.047
'0:08.811',0.039
'0:08.814',0.028
'0:08.817',0.025
'0:08.819',0.03
'0:08.822',0.039
'0:08.825',0.033
'0:08.828',0.033
'0:08.831',0.017
'0:08.833',0.036
'0:08.836',0.039
'0:08.839',0.044
'0:08.842',0.047
'0:08.844',0.047
'0:08.847',0.041
'0:08.850',0.044
'0:08.853',0.036
'0:08.856',0.036
'0:08.858',0.039
'0:08.861',0.039
'0:08.864',0.033
'0:08.867',0.025
'0:08.869',0.025
'0:08.872',0.033
'0:08.875',0.039
'0:08.878',0.041
'0:08.881',0.036
'0:08.883',0.041
'0:08.886',0.05
'0:08.889',0.061
'0:08.892',0.069
'0:08.894',0.069
'0:08.897',0.064
'0:08.900',0.061
'0:08.903',0.066
'0:08.906',0.069
'0:08.908',0.064
'0:08.911',0.055
'0:08.914',0.044
'0:08.917',0.03
'0:08.919',0.017
'0:08.922',0.03
'0:08.925',0.05
'0:08.928',0.052
'0:08.931',0.033
'0:08.933',0.028
'0:08.936',0.036
'0:08.939',0.044
'0:08.942',0.044
'0:08.944',0.033
'0:08.947',0.028
'0:08.950',0.039
'0:08.953',0.044
'0:08.956',0.041
'0:08.958',0.03
'0:08.961',0.019
'0:08.964',0.008
'0:08.967',0.008
'0:08.969',0.014
'0:08.972',0.019
'0:08.975',0.011
'0:08.978',0.006
'0:08.981',0.006
'0:08.983',0.006
'0:08.986',0.003
'0:08.989',0.008
'0:08.992',0.011
'0:08.994',0.014
'0:08.997',0.008
'0:09.000',0.003
'0:09.003',0.008
'0:09.006',0.014
'0:09.008',0.019
'0:09.011',0.019
'0:09.014',0.017
'0:09.017',0.033
'0:09.019',0.072
'0:09.022',0.135
'0:09.025',0.188
'0:09.028',0.227
'0:09.031',0.227
'0:09.033',0.227
'0:09.036',0.199
'0:09.039',0.116
'0:09.042',-0.03
'0:09.044',-0.207
'0:09.047',-0.367
'0:09.050',-0.503
'0:09.053',-0.638
'0:09.056',-0.751
'0:09.058',-0.76
'0:09.061',-0.68
'0:09.064',-0.577
'0:09.067',-0.442
'0:09.069',-0.298
'0:09.072',-0.185
'0:09.075',-0.099
'0:09.078',-0.039
'0:09.081',-0.011
'0:09.083',-0.008
'0:09.086',0.022
'0:09.089',0.041
'0:09.092',0.052
'0:09.094',0.058
'0:09.097',0.061
'0:09.100',0.064
'0:09.103',0.069
'0:09.106',0.075
'0:09.108',0.075
'0:09.111',0.066
'0:09.114',0.061
'0:09.117',0.064
'0:09.119',0.077
'0:09.122',0.097
'0:09.125',0.099
'0:09.128',0.091
'0:09.131',0.072
'0:09.133',0.066
'0:09.136',0.077
'0:09.139',0.086
'0:09.142',0.094
'0:09.144',0.102
'0:09.147',0.102
'0:09.150',0.099
'0:09.153',0.094
'0:09.156',0.097
'0:09.158',0.102
'0:09.161',0.105
'0:09.164',0.105
'0:09.167',0.108
'0:09.169',0.102
'0:09.172',0.108
'0:09.175',0.113
'0:09.178',0.116
'0:09.181',0.116
'0:09.183',0.116
'0:09.186',0.113
'0:09.189',0.116
'0:09.192',0.113
'0:09.194',0.122
'0:09.197',0.122
'0:09.200',0.13
'0:09.203',0.138
'0:09.206',0.135
'0:09.208',0.127
'0:09.211',0.144
'0:09.214',0.152
'0:09.217',0.155
'0:09.219',0.155
'0:09.222',0.16
'0:09.225',0.174
'0:09.228',0.182
'0:09.231',0.171
'0:09.233',0.166
'0:09.236',0.185
'0:09.239',0.196
'0:09.242',0.202
'0:09.244',0.21
'0:09.247',0.204
'0:09.250',0.202
'0:09.253',0.207
'0:09.256',0.213
'0:09.258',0.215
'0:09.261',0.221
'0:09.264',0.215
'0:09.267',0.207
'0:09.269',0.207
'0:09.272',0.224
'0:09.275',0.227
'0:09.278',0.227
'0:09.281',0.215
'0:09.283',0.213
'0:09.286',0.21
'0:09.289',0.21
'0:09.292',0.207
'0:09.294',0.196
'0:09.297',0.182
'0:09.300',0.171
'0:09.303',0.16
'0:09.306',0.163
'0:09.308',0.163
'0:09.311',0.155
'0:09.314',0.133
'0:09.317',0.122
'0:09.319',0.122
'0:09.322',0.119
'0:09.325',0.11
'0:09.328',0.099
'0:09.331',0.086
'0:09.333',0.083
'0:09.336',0.083
'0:09.339',0.083
'0:09.342',0.08
'0:09.344',0.08
'0:09.347',0.08
'0:09.350',0.08
'0:09.353',0.069
'0:09.356',0.064
'0:09.358',0.072
'0:09.361',0.072
'0:09.364',0.069
'0:09.367',0.075
'0:09.369',0.083
'0:09.372',0.097
'0:09.375',0.088
'0:09.378',0.072
'0:09.381',0.066
'0:09.383',0.069
'0:09.386',0.069
'0:09.389',0.077
'0:09.392',0.08
'0:09.394',0.08
'0:09.397',0.075
'0:09.400',0.072
'0:09.403',0.072
'0:09.406',0.083
'0:09.408',0.08
'0:09.411',0.072
'0:09.414',0.066
'0:09.417',0.066
'0:09.419',0.069
'0:09.422',0.075
'0:09.425',0.077
'0:09.428',0.077
'0:09.431',0.066
'0:09.433',0.058
'0:09.436',0.055
'0:09.439',0.058
'0:09.442',0.064
'0:09.444',0.061
'0:09.447',0.061
'0:09.450',0.064
'0:09.453',0.058
'0:09.456',0.058
'0:09.458',0.069
'0:09.461',0.075
'0:09.464',0.061
'0:09.467',0.055
'0:09.469',0.052
'0:09.472',0.058
'0:09.475',0.061
'0:09.478',0.058
'0:09.481',0.05
'0:09.483',0.05
'0:09.486',0.052
'0:09.489',0.05
'0:09.492',0.044
'0:09.494',0.047
'0:09.497',0.052
'0:09.500',0.061
'0:09.503',0.061
'0:09.506',0.058
'0:09.508',0.061
'0:09.511',0.072
'0:09.514',0.069
'0:09.517',0.061
'0:09.519',0.064
'0:09.522',0.072
'0:09.525',0.075
'0:09.528',0.086
'0:09.531',0.086
'0:09.533',0.083
'0:09.536',0.08
'0:09.539',0.075
'0:09.542',0.058
'0:09.544',0.047
'0:09.547',0.041
'0:09.550',0.047
'0:09.553',0.061
'0:09.556',0.064
'0:09.558',0.066
'0:09.561',0.069
'0:09.564',0.058
'0:09.567',0.044
'0:09.569',0.044
'0:09.572',0.044
'0:09.575',0.039
'0:09.578',0.039
'0:09.581',0.041
'0:09.583',0.041
'0:09.586',0.044
'0:09.589',0.044
'0:09.592',0.047
'0:09.594',0.044
'0:09.597',0.03
'0:09.600',0.033
'0:09.603',0.036
'0:09.606',0.028
'0:09.608',0.025
'0:09.611',0.019
'0:09.614',0.019
'0:09.617',0.03
'0:09.619',0.025
'0:09.622',0.028
'0:09.625',0.028
'0:09.628',0.025
'0:09.631',0.017
'0:09.633',0.019
'0:09.636',0.022
'0:09.639',0.028
'0:09.642',0.03
'0:09.644',0.03
'0:09.647',0.047
'0:09.650',0.086
'0:09.653',0.141
'0:09.656',0.196
'0:09.658',0.235
'0:09.661',0.265
'0:09.664',0.246
'0:09.667',0.207
'0:09.669',0.105
'0:09.672',-0.028
'0:09.675',-0.177
'0:09.678',-0.32
'0:09.681',-0.445
'0:09.683',-0.569
'0:09.686',-0.649
'0:09.689',-0.633
'0:09.692',-0.55
'0:09.694',-0.456
'0:09.697',-0.348
'0:09.700',-0.232
'0:09.703',-0.149
'0:09.706',-0.072
'0:09.708',-0.03
'0:09.711',-0.003
'0:09.714',0.011
'0:09.717',0.025
'0:09.719',0.033
'0:09.722',0.041
'0:09.725',0.05
'0:09.728',0.058
'0:09.731',0.052
'0:09.733',0.064
'0:09.736',0.086
'0:09.739',0.088
'0:09.742',0.077
'0:09.744',0.075
'0:09.747',0.072
'0:09.750',0.08
'0:09.753',0.086
'0:09.756',0.094
'0:09.758',0.094
'0:09.761',0.094
'0:09.764',0.094
'0:09.767',0.086
'0:09.769',0.083
'0:09.772',0.091
'0:09.775',0.094
'0:09.778',0.094
'0:09.781',0.097
'0:09.783',0.091
'0:09.786',0.094
'0:09.789',0.11
'0:09.792',0.108
'0:09.794',0.105
'0:09.797',0.105
'0:09.800',0.102
'0:09.803',0.105
'0:09.806',0.108
'0:09.808',0.102
'0:09.811',0.102
'0:09.814',0.113
'0:09.817',0.127
'0:09.819',0.13
'0:09.822',0.127
'0:09.825',0.133
'0:09.828',0.144
'0:09.831',0.135
'0:09.833',0.133
'0:09.836',0.133
'0:09.839',0.135
'0:09.842',0.138
'0:09.844',0.149
'0:09.847',0.155
'0:09.850',0.152
'0:09.853',0.16
'0:09.856',0.18
'0:09.858',0.188
'0:09.861',0.185
'0:09.864',0.18
'0:09.867',0.182
'0:09.869',0.188
'0:09.872',0.196
'0:09.875',0.202
'0:09.878',0.202
'0:09.881',0.204
'0:09.883',0.213
'0:09.886',0.218
'0:09.889',0.213
'0:09.892',0.213
'0:09.894',0.218
'0:09.897',0.213
'0:09.900',0.21
'0:09.903',0.213
'0:09.906',0.213
'0:09.908',0.221
'0:09.911',0.213
'0:09.914',0.193
'0:09.917',0.191
'0:09.919',0.199
'0:09.922',0.202
'0:09.925',0.191
'0:09.928',0.182
'0:09.931',0.174
'0:09.933',0.16
'0:09.936',0.146
'0:09.939',0.138
'0:09.942',0.133
'0:09.944',0.133
'0:09.947',0.119
'0:09.950',0.102
'0:09.953',0.097
'0:09.956',0.102
'0:09.958',0.099
'0:09.961',0.094
'0:09.964',0.086
'0:09.967',0.08
'0:09.969',0.066
'0:09.972',0.066
'0:09.975',0.069
'0:09.978',0.069
'0:09.981',0.061
'0:09.983',0.061
'0:09.986',0.069
'0:09.989',0.075
'0:09.992',0.072
'0:09.994',0.069
'0:09.997',0.069
'0:10.000',0.061
'0:10.003',0.058
'0:10.006',0.064
'0:10.008',0.069
'0:10.011',0.075
'0:10.014',0.08
'0:10.017',0.08
'0:10.019',0.072
'0:10.022',0.064
'0:10.025',0.064
'0:10.028',0.066
'0:10.031',0.064
'0:10.033',0.064
'0:10.036',0.061
'0:10.039',0.061
'0:10.042',0.064
'0:10.044',0.072
'0:10.047',0.066
'0:10.050',0.058
'0:10.053',0.061
'0:10.056',0.064
'0:10.058',0.055
'0:10.061',0.05
'0:10.064',0.041
'0:10.067',0.044
'0:10.069',0.061
'0:10.072',0.072
'0:10.075',0.072
'0:10.078',0.066
'0:10.081',0.064
'0:10.083',0.055
'0:10.086',0.05
'0:10.089',0.05
'0:10.092',0.047
'0:10.094',0.044
'0:10.097',0.041
'0:10.100',0.044
'0:10.103',0.047
'0:10.106',0.058
'0:10.108',0.061
'0:10.111',0.066
'0:10.114',0.061
'0:10.117',0.064
'0:10.119',0.069
'0:10.122',0.072
'0:10.125',0.069
'0:10.128',0.072
'0:10.131',0.064
'0:10.133',0.052
'0:10.136',0.064
'0:10.139',0.08
'0:10.142',0.086
'0:10.144',0.083
'0:10.147',0.072
'0:10.150',0.061
'0:10.153',0.047
'0:10.156',0.039
'0:10.158',0.039
'0:10.161',0.041
'0:10.164',0.041
'0:10.167',0.047
'0:10.169',0.05
'0:10.172',0.061
'0:10.175',0.069
'0:10.178',0.064
'0:10.181',0.052
'0:10.183',0.044
'0:10.186',0.039
'0:10.189',0.036
'0:10.192',0.041
'0:10.194',0.044
'0:10.197',0.028
'0:10.200',0.014
'0:10.203',0.017
'0:10.206',0.019
'0:10.208',0.019
'0:10.211',0.011
'0:10.214',0.006
'0:10.217',0.008
'0:10.219',0.003
'0:10.222',0.008
'0:10.225',0.011
'0:10.228',0.003
'0:10.231',-0.003
'0:10.233',0.003
'0:10.236',0.008
'0:10.239',0.014
'0:10.242',0.019
'0:10.244',0.022
'0:10.247',0.014
'0:10.250',0.017
'0:10.253',0.022
'0:10.256',0.039
'0:10.258',0.075
'0:10.261',0.127
'0:10.264',0.174
'0:10.267',0.215
'0:10.269',0.254
'0:10.272',0.268
'0:10.275',0.215
'0:10.278',0.127
'0:10.281',-0.028
'0:10.283',-0.188
'0:10.286',-0.309
'0:10.289',-0.409
'0:10.292',-0.497
'0:10.294',-0.552
'0:10.297',-0.53
'0:10.300',-0.467
'0:10.303',-0.384
'0:10.306',-0.293
'0:10.308',-0.218
'0:10.311',-0.13
'0:10.314',-0.066
'0:10.317',-0.028
'0:10.319',-0.008
'0:10.322',0.008
'0:10.325',0.028
'0:10.328',0.041
'0:10.331',0.041
'0:10.333',0.044
'0:10.336',0.05
'0:10.339',0.058
'0:10.342',0.066
'0:10.344',0.069
'0:10.347',0.058
'0:10.350',0.055
'0:10.353',0.061
'0:10.356',0.069
'0:10.358',0.069
'0:10.361',0.072
'0:10.364',0.072
'0:10.367',0.072
'0:10.369',0.075
'0:10.372',0.08
'0:10.375',0.086
'0:10.378',0.091
'0:10.381',0.08
'0:10.383',0.069
'0:10.386',0.075
'0:10.389',0.086
'0:10.392',0.094
'0:10.394',0.094
'0:10.397',0.083
'0:10.400',0.083
'0:10.403',0.094
'0:10.406',0.105
'0:10.408',0.108
'0:10.411',0.11
'0:10.414',0.108
'0:10.417',0.099
'0:10.419',0.099
'0:10.422',0.108
'0:10.425',0.108
'0:10.428',0.11
'0:10.431',0.116
'0:10.433',0.116
'0:10.436',0.116
'0:10.439',0.124
'0:10.442',0.138
'0:10.444',0.155
'0:10.447',0.152
'0:10.450',0.13
'0:10.453',0.13
'0:10.456',0.149
'0:10.458',0.163
'0:10.461',0.16
'0:10.464',0.163
'0:10.467',0.174
'0:10.469',0.182
'0:10.472',0.185
'0:10.475',0.188
'0:10.478',0.196
'0:10.481',0.193
'0:10.483',0.193
'0:10.486',0.202
'0:10.489',0.21
'0:10.492',0.213
'0:10.494',0.213
'0:10.497',0.21
'0:10.500',0.207
'0:10.503',0.21
'0:10.506',0.215
'0:10.508',0.215
'0:10.511',0.207
'0:10.514',0.202
'0:10.517',0.199
'0:10.519',0.202
'0:10.522',0.207
'0:10.525',0.191
'0:10.528',0.18
'0:10.531',0.174
'0:10.533',0.169
'0:10.536',0.155
'0:10.539',0.149
'0:10.542',0.146
'0:10.544',0.138
'0:10.547',0.13
'0:10.550',0.122
'0:10.553',0.105
'0:10.556',0.091
'0:10.558',0.088
'0:10.561',0.091
'0:10.564',0.086
'0:10.567',0.08
'0:10.569',0.066
'0:10.572',0.058
'0:10.575',0.061
'0:10.578',0.061
'0:10.581',0.064
'0:10.583',0.061
'0:10.586',0.055
'0:10.589',0.052
'0:10.592',0.052
'0:10.594',0.055
'0:10.597',0.052
'0:10.600',0.05
'0:10.603',0.05
'0:10.606',0.055
'0:10.608',0.055
'0:10.611',0.05
'0:10.614',0.05
'0:10.617',0.05
'0:10.619',0.052
'0:10.622',0.064
'0:10.625',0.066
'0:10.628',0.055
'0:10.631',0.05
'0:10.633',0.052
'0:10.636',0.055
'0:10.639',0.052
'0:10.642',0.052
'0:10.644',0.061
'0:10.647',0.061
'0:10.650',0.061
'0:10.653',0.055
'0:10.656',0.058
'0:10.658',0.058
'0:10.661',0.055
'0:10.664',0.052
'0:10.667',0.055
'0:10.669',0.055
'0:10.672',0.052
'0:10.675',0.044
'0:10.678',0.041
'0:10.681',0.044
'0:10.683',0.05
'0:10.686',0.052
'0:10.689',0.055
'0:10.692',0.055
'0:10.694',0.05
'0:10.697',0.041
'0:10.700',0.033
'0:10.703',0.033
'0:10.706',0.036
'0:10.708',0.033
'0:10.711',0.028
'0:10.714',0.036
'0:10.717',0.041
'0:10.719',0.044
'0:10.722',0.052
'0:10.725',0.058
'0:10.728',0.061
'0:10.731',0.061
'0:10.733',0.058
'0:10.736',0.052
'0:10.739',0.055
'0:10.742',0.058
'0:10.744',0.064
'0:10.747',0.064
'0:10.750',0.064
'0:10.753',0.058
'0:10.756',0.052
'0:10.758',0.05
'0:10.761',0.041
'0:10.764',0.03
'0:10.767',0.039
'0:10.769',0.055
'0:10.772',0.058
'0:10.775',0.05
'0:10.778',0.041
'0:10.781',0.036
'0:10.783',0.028
'0:10.786',0.03
'0:10.789',0.036
'0:10.792',0.033
'0:10.794',0.03
'0:10.797',0.03
'0:10.800',0.022
'0:10.803',0.019
'0:10.806',0.022
'0:10.808',0.019
'0:10.811',0.014
'0:10.814',0.006
'0:10.817',0.003
'0:10.819',0.006
'0:10.822',0.006
'0:10.825',0.008
'0:10.828',0.003
'0:10.831',-0.003
'0:10.833',-0.003
'0:10.836',-0.006
'0:10.839',-0.003
'0:10.842',-0.003
'0:10.844',-0.003
'0:10.847',-0.008
'0:10.850',-0.003
'0:10.853',0
'0:10.856',-0.003
'0:10.858',0.006
'0:10.861',0.025
'0:10.864',0.052
'0:10.867',0.099
'0:10.869',0.149
'0:10.872',0.199
'0:10.875',0.235
'0:10.878',0.249
'0:10.881',0.21
'0:10.883',0.108
'0:10.886',-0.033
'0:10.889',-0.191
'0:10.892',-0.326
'0:10.894',-0.425
'0:10.897',-0.53
'0:10.900',-0.61
'0:10.903',-0.597
'0:10.906',-0.517
'0:10.908',-0.428
'0:10.911',-0.343
'0:10.914',-0.24
'0:10.917',-0.166
'0:10.919',-0.102
'0:10.922',-0.05
'0:10.925',-0.011
'0:10.928',0.003
'0:10.931',0.006
'0:10.933',0.011
'0:10.936',0.022
'0:10.939',0.03
'0:10.942',0.039
'0:10.944',0.044
'0:10.947',0.041
'0:10.950',0.044
'0:10.953',0.041
'0:10.956',0.047
'0:10.958',0.047
'0:10.961',0.052
'0:10.964',0.05
'0:10.967',0.044
'0:10.969',0.052
'0:10.972',0.058
'0:10.975',0.058
'0:10.978',0.058
'0:10.981',0.055
'0:10.983',0.061
'0:10.986',0.064
'0:10.989',0.069
'0:10.992',0.064
'0:10.994',0.05
'0:10.997',0.047
'0:11.000',0.058
'0:11.003',0.072
'0:11.006',0.088
'0:11.008',0.083
'0:11.011',0.047
'0:11.014',0.028
'0:11.017',0.055
'0:11.019',0.083
'0:11.022',0.091
'0:11.025',0.086
'0:11.028',0.083
'0:11.031',0.086
'0:11.033',0.088
'0:11.036',0.116
'0:11.039',0.138
'0:11.042',0.141
'0:11.044',0.124
'0:11.047',0.11
'0:11.050',0.116
'0:11.053',0.138
'0:11.056',0.188
'0:11.058',0.185
'0:11.061',0.169
'0:11.064',0.163
'0:11.067',0.157
'0:11.069',0.149
'0:11.072',0.141
'0:11.075',0.133
'0:11.078',0.146
'0:11.081',0.171
'0:11.083',0.193
'0:11.086',0.191
'0:11.089',0.185
'0:11.092',0.207
'0:11.094',0.229
'0:11.097',0.207
'0:11.100',0.191
'0:11.103',0.207
'0:11.106',0.204
'0:11.108',0.193
'0:11.111',0.199
'0:11.114',0.207
'0:11.117',0.21
'0:11.119',0.202
'0:11.122',0.199
'0:11.125',0.204
'0:11.128',0.21
'0:11.131',0.193
'0:11.133',0.185
'0:11.136',0.177
'0:11.139',0.169
'0:11.142',0.155
'0:11.144',0.146
'0:11.147',0.152
'0:11.150',0.149
'0:11.153',0.127
'0:11.156',0.105
'0:11.158',0.091
'0:11.161',0.083
'0:11.164',0.086
'0:11.167',0.088
'0:11.169',0.088
'0:11.172',0.083
'0:11.175',0.066
'0:11.178',0.052
'0:11.181',0.047
'0:11.183',0.047
'0:11.186',0.047
'0:11.189',0.041
'0:11.192',0.036
'0:11.194',0.05
'0:11.197',0.055
'0:11.200',0.047
'0:11.203',0.047
'0:11.206',0.058
'0:11.208',0.052
'0:11.211',0.036
'0:11.214',0.025
'0:11.217',0.022
'0:11.219',0.028
'0:11.222',0.044
'0:11.225',0.055
'0:11.228',0.044
'0:11.231',0.028
'0:11.233',0.036
'0:11.236',0.047
'0:11.239',0.036
'0:11.242',0.036
'0:11.244',0.058
'0:11.247',0.052
'0:11.250',0.025
'0:11.253',0.014
'0:11.256',0.033
'0:11.258',0.044
'0:11.261',0.028
'0:11.264',0.017
'0:11.267',0.022
'0:11.269',0.028
'0:11.272',0.039
'0:11.275',0.039
'0:11.278',0.022
'0:11.281',0.011
'0:11.283',0.025
'0:11.286',0.039
'0:11.289',0.028
'0:11.292',0.014
'0:11.294',0.022
'0:11.297',0.019
'0:11.300',0.025
'0:11.303',0.047
'0:11.306',0.036
'0:11.308',0.008
'0:11.311',-0.003
'0:11.314',-0.014
'0:11.317',-0.022
'0:11.319',-0.03
'0:11.322',-0.03
'0:11.325',-0.019
'0:11.328',-0.011
'0:11.331',-0.014
'0:11.333',-0.006
'0:11.336',-0.006
'0:11.339',-0.011
'0:11.342',-0.014
'0:11.344',-0.008
'0:11.347',-0.011
'0:11.350',-0.017
'0:11.353',-0.008
'0:11.356',-0.014
'0:11.358',-0.036
'0:11.361',-0.044
'0:11.364',-0.039
'0:11.367',-0.039
'0:11.369',-0.044
'0:11.372',-0.044
'0:11.375',-0.036
'0:11.378',-0.03
'0:11.381',-0.03
'0:11.383',-0.03
'0:11.386',-0.03
'0:11.389',-0.033
'0:11.392',-0.03
'0:11.394',-0.028
'0:11.397',-0.033
'0:11.400',-0.039
'0:11.403',-0.036
'0:11.406',-0.03
'0:11.408',-0.033
'0:11.411',-0.036
'0:11.414',-0.036
'0:11.417',-0.033
'0:11.419',-0.03
'0:11.422',-0.033
'0:11.425',-0.033
'0:11.428',-0.03
'0:11.431',-0.03
'0:11.433',-0.028
'0:11.436',-0.028
'0:11.439',-0.028
'0:11.442',-0.028
'0:11.444',-0.022
'0:11.447',-0.019
'0:11.450',-0.025
'0:11.453',-0.033
'0:11.456',-0.036
'0:11.458',-0.03
'0:11.461',-0.03
'0:11.464',-0.036
'0:11.467',-0.039
'0:11.469',-0.036
'0:11.472',-0.033
'0:11.475',-0.03
'0:11.478',-0.03
'0:11.481',-0.028
'0:11.483',-0.022
'0:11.486',-0.022
'0:11.489',-0.025
'0:11.492',-0.025
'0:11.494',-0.025
'0:11.497',-0.03
'0:11.500',-0.041
'0:11.503',-0.044
'0:11.506',-0.041
'0:11.508',-0.041
'0:11.511',-0.041
'0:11.514',-0.036
'0:11.517',-0.036
'0:11.519',-0.033
'0:11.522',-0.033
'0:11.525',-0.028
'0:11.528',-0.028
'0:11.531',-0.03
'0:11.533',-0.03
'0:11.536',-0.033
'0:11.539',-0.033
'0:11.542',-0.036
'0:11.544',-0.033
'0:11.547',-0.033
'0:11.550',-0.039
'0:11.553',-0.041
'0:11.556',-0.039
'0:11.558',-0.033
'0:11.561',-0.03
'0:11.564',-0.033
'0:11.567',-0.033
'0:11.569',-0.036
'0:11.572',-0.036
'0:11.575',-0.03
'0:11.578',-0.028
'0:11.581',-0.028
'0:11.583',-0.033
'0:11.586',-0.033
'0:11.589',-0.028
'0:11.592',-0.028
'0:11.594',-0.03
'0:11.597',-0.03
'0:11.600',-0.03
'0:11.603',-0.033
'0:11.606',-0.036
'0:11.608',-0.033
'0:11.611',-0.03
'0:11.614',-0.028
'0:11.617',-0.03
'0:11.619',-0.033
'0:11.622',-0.028
'0:11.625',-0.022
'0:11.628',-0.019
'0:11.631',-0.022
'0:11.633',-0.028
'0:11.636',-0.025
'0:11.639',-0.03
'0:11.642',-0.036
'0:11.644',-0.036
'0:11.647',-0.036
'0:11.650',-0.033
'0:11.653',-0.039
'0:11.656',-0.039
'0:11.658',-0.033
'0:11.661',-0.025
'0:11.664',-0.025
'0:11.667',-0.028
'0:11.669',-0.033
'0:11.672',-0.03
'0:11.675',-0.025
'0:11.678',-0.028
'0:11.681',-0.039
'0:11.683',-0.041
'0:11.686',-0.039
'0:11.689',-0.039
'0:11.692',-0.041
'0:11.694',-0.041
'0:11.697',-0.036
'0:11.700',-0.033
'0:11.703',-0.036
'0:11.706',-0.033
'0:11.708',-0.03
'0:11.711',-0.028
'0:11.714',-0.028
'0:11.717',-0.03
'0:11.719',-0.033
'0:11.722',-0.039
'0:11.725',-0.033
'0:11.728',-0.028
'0:11.731',-0.03
'0:11.733',-0.036
'0:11.736',-0.039
'0:11.739',-0.033
'0:11.742',-0.03
'0:11.744',-0.033
'0:11.747',-0.036
'0:11.750',-0.033
'0:11.753',-0.03
'0:11.756',-0.028
'0:11.758',-0.025
'0:11.761',-0.022
'0:11.764',-0.028
'0:11.767',-0.028
'0:11.769',-0.025
'0:11.772',-0.022
'0:11.775',-0.028
'0:11.778',-0.033
'0:11.781',-0.03
'0:11.783',-0.028
'0:11.786',-0.033
'0:11.789',-0.039
'0:11.792',-0.039
'0:11.794',-0.033
'0:11.797',-0.03
'0:11.800',-0.03
'0:11.803',-0.03
'0:11.806',-0.025
'0:11.808',-0.025
'0:11.811',-0.025
'0:11.814',-0.022
'0:11.817',-0.022
'0:11.819',-0.028
'0:11.822',-0.036
'0:11.825',-0.039
'0:11.828',-0.036
'0:11.831',-0.036
'0:11.833',-0.041
'0:11.836',-0.047
'0:11.839',-0.044
'0:11.842',-0.033
'0:11.844',-0.028
'0:11.847',-0.028
'0:11.850',-0.03
'0:11.853',-0.033
'0:11.856',-0.033
'0:11.858',-0.03
'0:11.861',-0.028
'0:11.864',-0.033
'0:11.867',-0.041
'0:11.869',-0.044
'0:11.872',-0.039
'0:11.875',-0.033
'0:11.878',-0.036
'0:11.881',-0.039
'0:11.883',-0.036
'0:11.886',-0.033
'0:11.889',-0.033
'0:11.892',-0.03
'0:11.894',-0.03
'0:11.897',-0.033
'0:11.900',-0.033
'0:11.903',-0.033
'0:11.906',-0.028
'0:11.908',-0.028
'0:11.911',-0.03
'0:11.914',-0.028
'0:11.917',-0.025
'0:11.919',-0.028
'0:11.922',-0.036
'0:11.925',-0.036
'0:11.928',-0.03
'0:11.931',-0.028
'0:11.933',-0.036
'0:11.936',-0.036
'0:11.939',-0.033
'0:11.942',-0.028
'0:11.944',-0.025
'0:11.947',-0.022
'0:11.950',-0.022
'0:11.953',-0.028
'0:11.956',-0.028
'0:11.958',-0.025
'0:11.961',-0.022
'0:11.964',-0.028
'0:11.967',-0.039
'0:11.969',-0.039
'0:11.972',-0.036
'0:11.975',-0.036
'0:11.978',-0.036
'0:11.981',-0.036
'0:11.983',-0.033
'0:11.986',-0.03
'0:11.989',-0.028
'0:11.992',-0.025
'0:11.994',-0.025
'0:11.997',-0.03
'0:12.000',-0.03
'0:12.003',-0.03
'0:12.006',-0.036
'0:12.008',-0.041
'0:12.011',-0.044
'0:12.014',-0.039
'0:12.017',-0.036
'0:12.019',-0.041
'0:12.022',-0.044
'0:12.025',-0.036
'0:12.028',-0.03
'0:12.031',-0.03
'0:12.033',-0.03
'0:12.036',-0.03
'0:12.039',-0.03
'0:12.042',-0.033
'0:12.044',-0.033
'0:12.047',-0.03
'0:12.050',-0.028
'0:12.053',-0.036
'0:12.056',-0.041
'0:12.058',-0.039
'0:12.061',-0.03
'0:12.064',-0.028
'0:12.067',-0.03
'0:12.069',-0.036
'0:12.072',-0.036
'0:12.075',-0.033
'0:12.078',-0.028
'0:12.081',-0.03
'0:12.083',-0.028
'0:12.086',-0.028
'0:12.089',-0.028
'0:12.092',-0.028
'0:12.094',-0.022
'0:12.097',-0.019
'0:12.100',-0.025
'0:12.103',-0.033
'0:12.106',-0.033
'0:12.108',-0.028
'0:12.111',-0.028
'0:12.114',-0.03
'0:12.117',-0.039
'0:12.119',-0.039
'0:12.122',-0.033
'0:12.125',-0.03
'0:12.128',-0.025
'0:12.131',-0.025
'0:12.133',-0.028
'0:12.136',-0.025
'0:12.139',-0.022
'0:12.142',-0.022
'0:12.144',-0.03
'0:12.147',-0.033
'0:12.150',-0.033
'0:12.153',-0.041
'0:12.156',-0.047
'0:12.158',-0.041
'0:12.161',-0.036
'0:12.164',-0.036
'0:12.167',-0.036
'0:12.169',-0.036
'0:12.172',-0.03
'0:12.175',-0.028
'0:12.178',-0.028
'0:12.181',-0.028
'0:12.183',-0.03
'0:12.186',-0.036
'0:12.189',-0.033
'0:12.192',-0.03
'0:12.194',-0.03
'0:12.197',-0.033
'0:12.200',-0.036
'0:12.203',-0.039
'0:12.206',-0.041
'0:12.208',-0.039
'0:12.211',-0.033
'0:12.214',-0.028
'0:12.217',-0.028
'0:12.219',-0.033
'0:12.222',-0.033
'0:12.225',-0.033
'0:12.228',-0.03
'0:12.231',-0.028
'0:12.233',-0.025
'0:12.236',-0.03
'0:12.239',-0.033
'0:12.242',-0.028
'0:12.244',-0.022
'0:12.247',-0.028
'0:12.250',-0.033
'0:12.253',-0.036
'0:12.256',-0.03
'0:12.258',-0.03
'0:12.261',-0.033
'0:12.264',-0.033
'0:12.267',-0.03
'0:12.269',-0.03
'0:12.272',-0.028
'0:12.275',-0.022
'0:12.278',-0.019
'0:12.281',-0.025
'0:12.283',-0.025
'0:12.286',-0.025
'0:12.289',-0.03
'0:12.292',-0.036
'0:12.294',-0.039
'0:12.297',-0.036
'0:12.300',-0.036
'0:12.303',-0.039
'0:12.306',-0.039
'0:12.308',-0.033
'0:12.311',-0.028
'0:12.314',-0.025
'0:12.317',-0.025
'0:12.319',-0.028
'0:12.322',-0.03
'0:12.325',-0.03
'0:12.328',-0.028
'0:12.331',-0.028
'0:12.333',-0.039
'0:12.336',-0.047
'0:12.339',-0.044
'0:12.342',-0.036
'0:12.344',-0.033
'0:12.347',-0.039
'0:12.350',-0.039
'0:12.353',-0.036
'0:12.356',-0.03
'0:12.358',-0.03
'0:12.361',-0.028
'0:12.364',-0.028
'0:12.367',-0.03
'0:12.369',-0.033
'0:12.372',-0.033
'0:12.375',-0.028
'0:12.378',-0.028
'0:12.381',-0.03
'0:12.383',-0.033
'0:12.386',-0.033
'0:12.389',-0.033
'0:12.392',-0.033
'0:12.394',-0.033
'0:12.397',-0.033
'0:12.400',-0.033
'0:12.403',-0.03
'0:12.406',-0.033
'0:12.408',-0.028
'0:12.411',-0.025
'0:12.414',-0.022
'0:12.417',-0.022
'0:12.419',-0.019
'0:12.422',-0.022
'0:12.425',-0.022
'0:12.428',-0.022
'0:12.431',-0.025
'0:12.433',-0.03
'0:12.436',-0.036
'0:12.439',-0.036
'0:12.442',-0.036
'0:12.444',-0.033
'0:12.447',-0.03
'0:12.450',-0.03
'0:12.453',-0.03
'0:12.456',-0.028
'0:12.458',-0.019
'0:12.461',-0.017
'0:12.464',-0.017
'0:12.467',-0.019
'0:12.469',-0.025
'0:12.472',-0.028
'0:12.475',-0.028
'0:12.478',-0.03
'0:12.481',-0.03
'0:12.483',-0.03
'0:12.486',-0.033
'0:12.489',-0.039
'0:12.492',-0.036
'0:12.494',-0.03
'0:12.497',-0.03
'0:12.500',-0.028
'0:12.503',-0.028
'0:12.506',-0.028
'0:12.508',-0.025
'0:12.511',-0.022
'0:12.514',-0.022
'0:12.517',-0.022
'0:12.519',-0.025
'0:12.522',-0.025
'0:12.525',-0.025
'0:12.528',-0.022
'0:12.531',-0.022
'0:12.533',-0.022
'0:12.536',-0.028
'0:12.539',-0.025
'0:12.542',-0.022
'0:12.544',-0.019
'0:12.547',-0.025
'0:12.550',-0.028
'0:12.553',-0.03
'0:12.556',-0.028
'0:12.558',-0.022
'0:12.561',-0.019
'0:12.564',-0.017
'0:12.567',-0.017
'0:12.569',-0.017
'0:12.572',-0.017
'0:12.575',-0.017
'0:12.578',-0.019
'0:12.581',-0.022
'0:12.583',-0.028
'0:12.586',-0.033
'0:12.589',-0.033
'0:12.592',-0.033
'0:12.594',-0.033
'0:12.597',-0.03
'0:12.600',-0.028
'0:12.603',-0.028
'0:12.606',-0.022
'0:12.608',-0.022
'0:12.611',-0.019
'0:12.614',-0.019
'0:12.617',-0.019
'0:12.619',-0.022
'0:12.622',-0.022
'0:12.625',-0.019
'0:12.628',-0.019
'0:12.631',-0.022
'0:12.633',-0.025
'0:12.636',-0.025
'0:12.639',-0.022
'0:12.642',-0.022
'0:12.644',-0.019
'0:12.647',-0.022
'0:12.650',-0.025
'0:12.653',-0.028
'0:12.656',-0.028
'0:12.658',-0.028
'0:12.661',-0.022
'0:12.664',-0.022
'0:12.667',-0.022
'0:12.669',-0.022
'0:12.672',-0.019
'0:12.675',-0.014
'0:12.678',-0.008
'0:12.681',-0.011
'0:12.683',-0.014
'0:12.686',-0.019
'0:12.689',-0.022
'0:12.692',-0.022
'0:12.694',-0.025
'0:12.697',-0.028
'0:12.700',-0.03
'0:12.703',-0.033
'0:12.706',-0.036
'0:12.708',-0.03
'0:12.711',-0.028
'0:12.714',-0.025
'0:12.717',-0.025
'0:12.719',-0.025
'0:12.722',-0.025
'0:12.725',-0.022
'0:12.728',-0.019
'0:12.731',-0.022
'0:12.733',-0.022
'0:12.736',-0.022
'0:12.739',-0.022
'0:12.742',-0.019
'0:12.744',-0.017
'0:12.747',-0.017
'0:12.750',-0.019
'0:12.753',-0.022
'0:12.756',-0.022
'0:12.758',-0.022
'0:12.761',-0.022
'0:12.764',-0.022
'0:12.767',-0.028
'0:12.769',-0.03
'0:12.772',-0.028
'0:12.775',-0.022
'0:12.778',-0.019
'0:12.781',-0.017
'0:12.783',-0.017
'0:12.786',-0.017
'0:12.789',-0.014
'0:12.792',-0.014
'0:12.794',-0.014
'0:12.797',-0.019
'0:12.800',-0.025
'0:12.803',-0.03
'0:12.806',-0.03
'0:12.808',-0.028
'0:12.811',-0.028
'0:12.814',-0.028
'0:12.817',-0.033
'0:12.819',-0.033
'0:12.822',-0.03
'0:12.825',-0.025
'0:12.828',-0.022
'0:12.831',-0.022
'0:12.833',-0.025
'0:12.836',-0.028
'0:12.839',-0.025
'0:12.842',-0.022
'0:12.844',-0.014
'0:12.847',-0.017
'0:12.850',-0.017
'0:12.853',-0.019
'0:12.856',-0.019
'0:12.858',-0.025
'0:12.861',-0.025
'0:12.864',-0.028
'0:12.867',-0.033
'0:12.869',-0.039
'0:12.872',-0.039
'0:12.875',-0.036
'0:12.878',-0.03
'0:12.881',-0.028
'0:12.883',-0.028
'0:12.886',-0.025
'0:12.889',-0.022
'0:12.892',-0.017
'0:12.894',-0.017
'0:12.897',-0.017
'0:12.900',-0.022
'0:12.903',-0.028
'0:12.906',-0.028
'0:12.908',-0.036
'0:12.911',-0.039
'0:12.914',-0.039
'0:12.917',-0.041
'0:12.919',-0.041
'0:12.922',-0.039
'0:12.925',-0.033
'0:12.928',-0.028
'0:12.931',-0.025
'0:12.933',-0.028
'0:12.936',-0.028
'0:12.939',-0.03
'0:12.942',-0.03
'0:12.944',-0.03
'0:12.947',-0.033
'0:12.950',-0.039
'0:12.953',-0.041
'0:12.956',-0.041
'0:12.958',-0.039
'0:12.961',-0.033
'0:12.964',-0.033
'0:12.967',-0.033
'0:12.969',-0.033
'0:12.972',-0.03
'0:12.975',-0.028
'0:12.978',-0.025
'0:12.981',-0.028
'0:12.983',-0.028
'0:12.986',-0.028
'0:12.989',-0.028
'0:12.992',-0.025
'0:12.994',-0.022
'0:12.997',-0.022
'0:13.000',-0.028
'0:13.003',-0.03
'0:13.006',-0.036
'0:13.008',-0.036
'0:13.011',-0.036
'0:13.014',-0.039
'0:13.017',-0.039
'0:13.019',-0.039
'0:13.022',-0.033
'0:13.025',-0.028
'0:13.028',-0.025
'0:13.031',-0.025
'0:13.033',-0.025
'0:13.036',-0.028
'0:13.039',-0.028
'0:13.042',-0.03
'0:13.044',-0.028
'0:13.047',-0.036
'0:13.050',-0.039
'0:13.053',-0.044
'0:13.056',-0.044
'0:13.058',-0.041
'0:13.061',-0.039
'0:13.064',-0.036
'0:13.067',-0.03
'0:13.069',-0.028
'0:13.072',-0.028
'0:13.075',-0.025
'0:13.078',-0.022
'0:13.081',-0.025
'0:13.083',-0.028
'0:13.086',-0.033
'0:13.089',-0.036
'0:13.092',-0.036
'0:13.094',-0.036
'0:13.097',-0.036
'0:13.100',-0.039
'0:13.103',-0.039
'0:13.106',-0.036
'0:13.108',-0.033
'0:13.111',-0.03
'0:13.114',-0.03
'0:13.117',-0.03
'0:13.119',-0.028
'0:13.122',-0.025
'0:13.125',-0.03
'0:13.128',-0.03
'0:13.131',-0.025
'0:13.133',-0.028
'0:13.136',-0.03
'0:13.139',-0.03
'0:13.142',-0.028
'0:13.144',-0.025
'0:13.147',-0.025
'0:13.150',-0.03
'0:13.153',-0.036
'0:13.156',-0.036
'0:13.158',-0.033
'0:13.161',-0.03
'0:13.164',-0.033
'0:13.167',-0.033
'0:13.169',-0.033
'0:13.172',-0.028
'0:13.175',-0.025
'0:13.178',-0.019
'0:13.181',-0.022
'0:13.183',-0.025
'0:13.186',-0.03
'0:13.189',-0.03
'0:13.192',-0.03
'0:13.194',-0.033
'0:13.197',-0.039
'0:13.200',-0.044
'0:13.203',-0.041
'0:13.206',-0.044
'0:13.208',-0.039
'0:13.211',-0.036
'0:13.214',-0.033
'0:13.217',-0.033
'0:13.219',-0.033
'0:13.222',-0.03
'0:13.225',-0.028
'0:13.228',-0.025
'0:13.231',-0.028
'0:13.233',-0.036
'0:13.236',-0.039
'0:13.239',-0.039
'0:13.242',-0.036
'0:13.244',-0.033
'0:13.247',-0.036
'0:13.250',-0.039
'0:13.253',-0.039
'0:13.256',-0.036
'0:13.258',-0.03
'0:13.261',-0.028
'0:13.264',-0.028
'0:13.267',-0.028
'0:13.269',-0.03
'0:13.272',-0.028
'0:13.275',-0.025
'0:13.278',-0.019
'0:13.281',-0.025
'0:13.283',-0.028
'0:13.286',-0.028
'0:13.289',-0.028
'0:13.292',-0.025
'0:13.294',-0.028
'0:13.297',-0.03
'0:13.300',-0.036
'0:13.303',-0.039
'0:13.306',-0.039
'0:13.308',-0.033
'0:13.311',-0.03
'0:13.314',-0.033
'0:13.317',-0.033
'0:13.319',-0.033
'0:13.322',-0.028
'0:13.325',-0.022
'0:13.328',-0.022
'0:13.331',-0.025
'0:13.333',-0.03
'0:13.336',-0.033
'0:13.339',-0.036
'0:13.342',-0.036
'0:13.344',-0.036
'0:13.347',-0.039
'0:13.350',-0.041
'0:13.353',-0.044
'0:13.356',-0.041
'0:13.358',-0.033
'0:13.361',-0.028
'0:13.364',-0.03
'0:13.367',-0.033
'0:13.369',-0.033
'0:13.372',-0.03
'0:13.375',-0.028
'0:13.378',-0.028
'0:13.381',-0.033
'0:13.383',-0.036
'0:13.386',-0.036
'0:13.389',-0.036
'0:13.392',-0.03
'0:13.394',-0.025
'0:13.397',-0.022
'0:13.400',-0.025
'0:13.403',-0.028
'0:13.406',-0.033
'0:13.408',-0.033
'0:13.411',-0.033
'0:13.414',-0.033
'0:13.417',-0.033
'0:13.419',-0.033
'0:13.422',-0.028
'0:13.425',-0.03
'0:13.428',-0.028
'0:13.431',-0.025
'0:13.433',-0.022
'0:13.436',-0.022
'0:13.439',-0.022
'0:13.442',-0.025
'0:13.444',-0.025
'0:13.447',-0.033
'0:13.450',-0.041
'0:13.453',-0.041
'0:13.456',-0.039
'0:13.458',-0.033
'0:13.461',-0.033
'0:13.464',-0.03
'0:13.467',-0.03
'0:13.469',-0.028
'0:13.472',-0.025
'0:13.475',-0.025
'0:13.478',-0.025
'0:13.481',-0.028
'0:13.483',-0.033
'0:13.486',-0.039
'0:13.489',-0.041
'0:13.492',-0.036
'0:13.494',-0.036
'0:13.497',-0.039
'0:13.500',-0.041
'0:13.503',-0.041
'0:13.506',-0.036
'0:13.508',-0.033
'0:13.511',-0.028
'0:13.514',-0.028
'0:13.517',-0.03
'0:13.519',-0.036
'0:13.522',-0.039
'0:13.525',-0.036
'0:13.528',-0.03
'0:13.531',-0.028
'0:13.533',-0.03
'0:13.536',-0.033
'0:13.539',-0.036
'0:13.542',-0.036
'0:13.544',-0.036
'0:13.547',-0.036
'0:13.550',-0.036
'0:13.553',-0.033
'0:13.556',-0.033
'0:13.558',-0.03
'0:13.561',-0.03
'0:13.564',-0.028
'0:13.567',-0.025
'0:13.569',-0.025
'0:13.572',-0.022
'0:13.575',-0.019
'0:13.578',-0.022
'0:13.581',-0.028
'0:13.583',-0.036
'0:13.586',-0.039
'0:13.589',-0.036
'0:13.592',-0.033
'0:13.594',-0.033
'0:13.597',-0.033
'0:13.600',-0.033
'0:13.603',-0.033
'0:13.606',-0.03
'0:13.608',-0.025
'0:13.611',-0.019
'0:13.614',-0.019
'0:13.617',-0.022
'0:13.619',-0.028
'0:13.622',-0.033
'0:13.625',-0.033
'0:13.628',-0.036
'0:13.631',-0.039
'0:13.633',-0.039
'0:13.636',-0.039
'0:13.639',-0.039
'0:13.642',-0.036
'0:13.644',-0.036
'0:13.647',-0.033
'0:13.650',-0.033
'0:13.653',-0.03
'0:13.656',-0.028
'0:13.658',-0.028
'0:13.661',-0.028
'0:13.664',-0.033
'0:13.667',-0.039
'0:13.669',-0.041
'0:13.672',-0.041
'0:13.675',-0.036
'0:13.678',-0.033
'0:13.681',-0.033
'0:13.683',-0.033
'0:13.686',-0.033
'0:13.689',-0.036
'0:13.692',-0.036
'0:13.694',-0.03
'0:13.697',-0.03
'0:13.700',-0.03
'0:13.703',-0.033
'0:13.706',-0.033
'0:13.708',-0.033
'0:13.711',-0.03
'0:13.714',-0.033
'0:13.717',-0.036
'0:13.719',-0.036
'0:13.722',-0.033
'0:13.725',-0.028
'0:13.728',-0.028
'0:13.731',-0.028
'0:13.733',-0.025
'0:13.736',-0.033
'0:13.739',-0.036
'0:13.742',-0.033
'0:13.744',-0.028
'0:13.747',-0.025
'0:13.750',-0.022
'0:13.753',-0.022
'0:13.756',-0.022
'0:13.758',-0.019
'0:13.761',-0.025
'0:13.764',-0.03
'0:13.767',-0.033
'0:13.769',-0.036
'0:13.772',-0.036
'0:13.775',-0.036
'0:13.778',-0.033
'0:13.781',-0.033
'0:13.783',-0.036
'0:13.786',-0.036
'0:13.789',-0.033
'0:13.792',-0.028
'0:13.794',-0.022
'0:13.797',-0.022
'0:13.800',-0.028
'0:13.803',-0.03
'0:13.806',-0.036
'0:13.808',-0.039
'0:13.811',-0.041
'0:13.814',-0.041
'0:13.817',-0.041
'0:13.819',-0.044
'0:13.822',-0.039
'0:13.825',-0.036
'0:13.828',-0.033
'0:13.831',-0.033
'0:13.833',-0.033
'0:13.836',-0.033
'0:13.839',-0.028
'0:13.842',-0.028
'0:13.844',-0.028
'0:13.847',-0.033
'0:13.850',-0.039
'0:13.853',-0.041
'0:13.856',-0.041
'0:13.858',-0.036
'0:13.861',-0.03
'0:13.864',-0.03
'0:13.867',-0.03
'0:13.869',-0.036
'0:13.872',-0.033
'0:13.875',-0.036
'0:13.878',-0.033
'0:13.881',-0.03
'0:13.883',-0.03
'0:13.886',-0.033
'0:13.889',-0.033
'0:13.892',-0.03
'0:13.894',-0.028
'0:13.897',-0.025
'0:13.900',-0.022
'0:13.903',-0.022
'0:13.906',-0.022
'0:13.908',-0.025
'0:13.911',-0.028
'0:13.914',-0.033
'0:13.917',-0.039
'0:13.919',-0.041
'0:13.922',-0.039
'0:13.925',-0.033
'0:13.928',-0.03
'0:13.931',-0.028
'0:13.933',-0.028
'0:13.936',-0.025
'0:13.939',-0.022
'0:13.942',-0.019
'0:13.944',-0.017
'0:13.947',-0.022
'0:13.950',-0.03
'0:13.953',-0.039
'0:13.956',-0.044
'0:13.958',-0.044
'0:13.961',-0.041
'0:13.964',-0.041
'0:13.967',-0.039
'0:13.969',-0.039
'0:13.972',-0.036
'0:13.975',-0.03
'0:13.978',-0.028
'0:13.981',-0.022
'0:13.983',-0.025
'0:13.986',-0.028
'0:13.989',-0.025
'0:13.992',-0.03
'0:13.994',-0.033
'0:13.997',-0.039
'0:14.000',-0.041
'0:14.003',-0.047
'0:14.006',-0.047
'0:14.008',-0.039
'0:14.011',-0.033
'0:14.014',-0.028
'0:14.017',-0.033
'0:14.019',-0.036
'0:14.022',-0.033
'0:14.025',-0.033
'0:14.028',-0.025
'0:14.031',-0.028
'0:14.033',-0.028
'0:14.036',-0.028
'0:14.039',-0.025
'0:14.042',-0.025
'0:14.044',-0.025
'0:14.047',-0.03
'0:14.050',-0.036
'0:14.053',-0.039
'0:14.056',-0.036
'0:14.058',-0.03
'0:14.061',-0.03
'0:14.064',-0.033
'0:14.067',-0.033
'0:14.069',-0.03
'0:14.072',-0.03
'0:14.075',-0.025
'0:14.078',-0.019
'0:14.081',-0.017
'0:14.083',-0.022
'0:14.086',-0.028
'0:14.089',-0.033
'0:14.092',-0.033
'0:14.094',-0.03
'0:14.097',-0.03
'0:14.100',-0.033
'0:14.103',-0.033
'0:14.106',-0.033
'0:14.108',-0.033
'0:14.111',-0.033
'0:14.114',-0.03
'0:14.117',-0.028
'0:14.119',-0.028
'0:14.122',-0.028
'0:14.125',-0.028
'0:14.128',-0.028
'0:14.131',-0.028
'0:14.133',-0.061
'0:14.136',-0.155
'0:14.139',-0.188
'0:14.142',-0.13
'0:14.144',-0.066
'0:14.147',-0.041
'0:14.150',-0.041
'0:14.153',-0.047
'0:14.156',-0.039
'0:14.158',-0.03
'0:14.161',-0.028
'0:14.164',-0.03
'0:14.167',-0.03
'0:14.169',-0.028
'0:14.172',-0.022
'0:14.175',-0.019
'0:14.178',-0.019
'0:14.181',-0.019
'0:14.183',-0.019
'0:14.186',-0.019
'0:14.189',-0.017
'0:14.192',-0.017
'0:14.194',-0.017
'0:14.197',-0.019
'0:14.200',-0.017
'0:14.203',-0.011
'0:14.206',-0.008
'0:14.208',-0.011
'0:14.211',-0.014
'0:14.214',-0.019
'0:14.217',-0.019
'0:14.219',-0.011
'0:14.222',-0.003
'0:14.225',-0.003
'0:14.228',-0.008
'0:14.231',-0.017
'0:14.233',-0.019
'0:14.236',-0.017
'0:14.239',-0.006
'0:14.242',-0.003
'0:14.244',-0.003
'0:14.247',-0.008
'0:14.250',-0.014
'0:14.253',-0.014
'0:14.256',-0.008
'0:14.258',0
'0:14.261',0.008
'0:14.264',0.006
'0:14.267',-0.003
'0:14.269',-0.003
'0:14.272',-0.003
'0:14.275',0.006
'0:14.278',0.011
'0:14.281',0.017
'0:14.283',0.017
'0:14.286',0.017
'0:14.289',0.014
'0:14.292',0.019
'0:14.294',0.03
'0:14.297',0.039
'0:14.300',0.039
'0:14.303',0.039
'0:14.306',0.041
'0:14.308',0.041
'0:14.311',0.041
'0:14.314',0.039
'0:14.317',0.039
'0:14.319',0.039
'0:14.322',0.041
'0:14.325',0.052
'0:14.328',0.058
'0:14.331',0.055
'0:14.333',0.05
'0:14.336',0.05
'0:14.339',0.058
'0:14.342',0.066
'0:14.344',0.064
'0:14.347',0.055
'0:14.350',0.05
'0:14.353',0.083
'0:14.356',0.169
'0:14.358',0.204
'0:14.361',0.18
'0:14.364',0.149
'0:14.367',0.138
'0:14.369',0.138
'0:14.372',0.135
'0:14.375',0.122
'0:14.378',0.105
'0:14.381',0.088
'0:14.383',0.072
'0:14.386',0.058
'0:14.389',0.052
'0:14.392',0.05
'0:14.394',0.044
'0:14.397',0.033
'0:14.400',0.017
'0:14.403',0.008
'0:14.406',0.003
'0:14.408',-0.003
'0:14.411',0.003
'0:14.414',-0.003
'0:14.417',-0.008
'0:14.419',-0.011
'0:14.422',-0.011
'0:14.425',-0.008
'0:14.428',-0.008
'0:14.431',-0.011
'0:14.433',-0.014
'0:14.436',-0.019
'0:14.439',-0.014
'0:14.442',-0.008
'0:14.444',-0.008
'0:14.447',-0.011
'0:14.450',-0.014
'0:14.453',-0.017
'0:14.456',-0.014
'0:14.458',-0.011
'0:14.461',-0.008
'0:14.464',-0.011
'0:14.467',-0.011
'0:14.469',-0.011
'0:14.472',-0.011
'0:14.475',-0.019
'0:14.478',-0.022
'0:14.481',-0.019
'0:14.483',-0.014
'0:14.486',-0.011
'0:14.489',-0.008
'0:14.492',-0.014
'0:14.494',-0.017
'0:14.497',-0.025
'0:14.500',-0.03
'0:14.503',-0.028
'0:14.506',-0.022
'0:14.508',-0.019
'0:14.511',-0.025
'0:14.514',-0.036
'0:14.517',-0.041
'0:14.519',-0.039
'0:14.522',-0.028
'0:14.525',-0.022
'0:14.528',-0.025
'0:14.531',-0.036
'0:14.533',-0.044
'0:14.536',-0.041
'0:14.539',-0.041
'0:14.542',-0.044
'0:14.544',-0.047
'0:14.547',-0.044
'0:14.550',-0.044
'0:14.553',-0.041
'0:14.556',-0.025
'0:14.558',-0.017
'0:14.561',-0.014
'0:14.564',-0.014
'0:14.567',-0.014
'0:14.569',-0.008
'0:14.572',-0.003
'0:14.575',-0.011
'0:14.578',-0.022
'0:14.581',-0.03
'0:14.583',-0.022
'0:14.586',-0.008
'0:14.589',0
'0:14.592',0
'0:14.594',-0.003
'0:14.597',-0.025
'0:14.600',-0.047
'0:14.603',-0.055
'0:14.606',-0.047
'0:14.608',-0.03
'0:14.611',-0.025
'0:14.614',-0.033
'0:14.617',-0.036
'0:14.619',-0.039
'0:14.622',-0.041
'0:14.625',-0.036
'0:14.628',-0.033
'0:14.631',-0.047
'0:14.633',-0.055
'0:14.636',-0.05
'0:14.639',-0.047
'0:14.642',-0.047
'0:14.644',-0.047
'0:14.647',-0.058
'0:14.650',-0.066
'0:14.653',-0.069
'0:14.656',-0.066
'0:14.658',-0.069
'0:14.661',-0.075
'0:14.664',-0.075
'0:14.667',-0.072
'0:14.669',-0.072
'0:14.672',-0.072
'0:14.675',-0.066
'0:14.678',-0.064
'0:14.681',-0.064
'0:14.683',-0.066
'0:14.686',-0.075
'0:14.689',-0.077
'0:14.692',-0.069
'0:14.694',-0.058
'0:14.697',-0.055
'0:14.700',-0.05
'0:14.703',-0.019
'0:14.706',0.041
'0:14.708',0.105
'0:14.711',0.155
'0:14.714',0.188
'0:14.717',0.182
'0:14.719',0.135
'0:14.722',0.041
'0:14.725',-0.108
'0:14.728',-0.287
'0:14.731',-0.456
'0:14.733',-0.586
'0:14.736',-0.704
'0:14.739',-0.804
'0:14.742',-0.809
'0:14.744',-0.724
'0:14.747',-0.61
'0:14.750',-0.483
'0:14.753',-0.367
'0:14.756',-0.268
'0:14.758',-0.174
'0:14.761',-0.108
'0:14.764',-0.083
'0:14.767',-0.072
'0:14.769',-0.055
'0:14.772',-0.039
'0:14.775',-0.019
'0:14.778',-0.011
'0:14.781',-0.022
'0:14.783',-0.033
'0:14.786',-0.028
'0:14.789',-0.011
'0:14.792',0
'0:14.794',-0.003
'0:14.797',-0.003
'0:14.800',-0.008
'0:14.803',-0.014
'0:14.806',-0.006
'0:14.808',0.006
'0:14.811',0.014
'0:14.814',0.008
'0:14.817',0
'0:14.819',0
'0:14.822',0.006
'0:14.825',0.011
'0:14.828',0.014
'0:14.831',0.019
'0:14.833',0.017
'0:14.836',0.017
'0:14.839',0.025
'0:14.842',0.025
'0:14.844',0.022
'0:14.847',0.017
'0:14.850',0.014
'0:14.853',0.019
'0:14.856',0.028
'0:14.858',0.028
'0:14.861',0.022
'0:14.864',0.017
'0:14.867',0.019
'0:14.869',0.036
'0:14.872',0.05
'0:14.875',0.058
'0:14.878',0.055
'0:14.881',0.05
'0:14.883',0.055
'0:14.886',0.058
'0:14.889',0.061
'0:14.892',0.066
'0:14.894',0.08
'0:14.897',0.086
'0:14.900',0.077
'0:14.903',0.08
'0:14.906',0.102
'0:14.908',0.113
'0:14.911',0.113
'0:14.914',0.119
'0:14.917',0.124
'0:14.919',0.133
'0:14.922',0.141
'0:14.925',0.149
'0:14.928',0.155
'0:14.931',0.152
'0:14.933',0.149
'0:14.936',0.155
'0:14.939',0.166
'0:14.942',0.174
'0:14.944',0.171
'0:14.947',0.166
'0:14.950',0.166
'0:14.953',0.171
'0:14.956',0.18
'0:14.958',0.185
'0:14.961',0.18
'0:14.964',0.166
'0:14.967',0.16
'0:14.969',0.157
'0:14.972',0.16
'0:14.975',0.152
'0:14.978',0.133
'0:14.981',0.116
'0:14.983',0.108
'0:14.986',0.102
'0:14.989',0.094
'0:14.992',0.08
'0:14.994',0.061
'0:14.997',0.036
'0:15.000',0.025
'0:15.003',0.025
'0:15.006',0.033
'0:15.008',0.033
'0:15.011',0.019
'0:15.014',-0.003
'0:15.017',-0.011
'0:15.019',-0.011
'0:15.022',-0.006
'0:15.025',0
'0:15.028',-0.003
'0:15.031',-0.014
'0:15.033',-0.014
'0:15.036',-0.017
'0:15.039',-0.017
'0:15.042',-0.011
'0:15.044',-0.014
'0:15.047',-0.017
'0:15.050',-0.014
'0:15.053',-0.003
'0:15.056',-0.003
'0:15.058',-0.008
'0:15.061',-0.014
'0:15.064',-0.014
'0:15.067',-0.022
'0:15.069',-0.028
'0:15.072',-0.022
'0:15.075',-0.011
'0:15.078',-0.008
'0:15.081',-0.014
'0:15.083',-0.025
'0:15.086',-0.033
'0:15.089',-0.036
'0:15.092',-0.033
'0:15.094',-0.03
'0:15.097',-0.033
'0:15.100',-0.036
'0:15.103',-0.036
'0:15.106',-0.033
'0:15.108',-0.03
'0:15.111',-0.033
'0:15.114',-0.039
'0:15.117',-0.041
'0:15.119',-0.036
'0:15.122',-0.03
'0:15.125',-0.028
'0:15.128',-0.03
'0:15.131',-0.036
'0:15.133',-0.036
'0:15.136',-0.039
'0:15.139',-0.036
'0:15.142',-0.028
'0:15.144',-0.028
'0:15.147',-0.03
'0:15.150',-0.033
'0:15.153',-0.036
'0:15.156',-0.033
'0:15.158',-0.022
'0:15.161',-0.014
'0:15.164',-0.019
'0:15.167',-0.028
'0:15.169',-0.03
'0:15.172',-0.022
'0:15.175',-0.011
'0:15.178',-0.014
'0:15.181',-0.025
'0:15.183',-0.036
'0:15.186',-0.044
'0:15.189',-0.047
'0:15.192',-0.047
'0:15.194',-0.036
'0:15.197',-0.025
'0:15.200',-0.033
'0:15.203',-0.041
'0:15.206',-0.036
'0:15.208',-0.028
'0:15.211',-0.028
'0:15.214',-0.039
'0:15.217',-0.047
'0:15.219',-0.052
'0:15.222',-0.055
'0:15.225',-0.055
'0:15.228',-0.061
'0:15.231',-0.066
'0:15.233',-0.064
'0:15.236',-0.064
'0:15.239',-0.066
'0:15.242',-0.066
'0:15.244',-0.058
'0:15.247',-0.072
'0:15.250',-0.083
'0:15.253',-0.088
'0:15.256',-0.083
'0:15.258',-0.077
'0:15.261',-0.075
'0:15.264',-0.077
'0:15.267',-0.077
'0:15.269',-0.077
'0:15.272',-0.066
'0:15.275',-0.066
'0:15.278',-0.066
'0:15.281',-0.072
'0:15.283',-0.083
'0:15.286',-0.088
'0:15.289',-0.075
'0:15.292',-0.03
'0:15.294',0.036
'0:15.297',0.105
'0:15.300',0.157
'0:15.303',0.188
'0:15.306',0.188
'0:15.308',0.135
'0:15.311',0.022
'0:15.314',-0.144
'0:15.317',-0.32
'0:15.319',-0.475
'0:15.322',-0.591
'0:15.325',-0.724
'0:15.328',-0.84
'0:15.331',-0.848
'0:15.333',-0.754
'0:15.336',-0.638
'0:15.339',-0.5
'0:15.342',-0.365
'0:15.344',-0.251
'0:15.347',-0.169
'0:15.350',-0.116
'0:15.353',-0.088
'0:15.356',-0.064
'0:15.358',-0.044
'0:15.361',-0.041
'0:15.364',-0.041
'0:15.367',-0.036
'0:15.369',-0.028
'0:15.372',-0.022
'0:15.375',-0.019
'0:15.378',-0.011
'0:15.381',-0.019
'0:15.383',-0.028
'0:15.386',-0.019
'0:15.389',-0.011
'0:15.392',-0.011
'0:15.394',-0.017
'0:15.397',-0.019
'0:15.400',-0.017
'0:15.403',-0.011
'0:15.406',0.006
'0:15.408',0.014
'0:15.411',0.006
'0:15.414',0
'0:15.417',0.003
'0:15.419',0.014
'0:15.422',0.025
'0:15.425',0.025
'0:15.428',0.022
'0:15.431',0.014
'0:15.433',0.008
'0:15.436',0.022
'0:15.439',0.036
'0:15.442',0.044
'0:15.444',0.036
'0:15.447',0.03
'0:15.450',0.028
'0:15.453',0.03
'0:15.456',0.033
'0:15.458',0.036
'0:15.461',0.044
'0:15.464',0.05
'0:15.467',0.05
'0:15.469',0.047
'0:15.472',0.052
'0:15.475',0.061
'0:15.478',0.064
'0:15.481',0.058
'0:15.483',0.052
'0:15.486',0.064
'0:15.489',0.083
'0:15.492',0.094
'0:15.494',0.105
'0:15.497',0.105
'0:15.500',0.108
'0:15.503',0.108
'0:15.506',0.113
'0:15.508',0.13
'0:15.511',0.141
'0:15.514',0.138
'0:15.517',0.135
'0:15.519',0.141
'0:15.522',0.163
'0:15.525',0.171
'0:15.528',0.169
'0:15.531',0.166
'0:15.533',0.16
'0:15.536',0.157
'0:15.539',0.16
'0:15.542',0.169
'0:15.544',0.171
'0:15.547',0.163
'0:15.550',0.157
'0:15.553',0.157
'0:15.556',0.157
'0:15.558',0.155
'0:15.561',0.141
'0:15.564',0.119
'0:15.567',0.108
'0:15.569',0.099
'0:15.572',0.102
'0:15.575',0.094
'0:15.578',0.077
'0:15.581',0.064
'0:15.583',0.055
'0:15.586',0.044
'0:15.589',0.033
'0:15.592',0.022
'0:15.594',0.019
'0:15.597',0.003
'0:15.600',-0.008
'0:15.603',-0.017
'0:15.606',-0.008
'0:15.608',0
'0:15.611',0.008
'0:15.614',-0.003
'0:15.617',-0.008
'0:15.619',-0.019
'0:15.622',-0.019
'0:15.625',-0.019
'0:15.628',-0.017
'0:15.631',-0.017
'0:15.633',-0.014
'0:15.636',-0.008
'0:15.639',-0.006
'0:15.642',-0.006
'0:15.644',-0.006
'0:15.647',-0.011
'0:15.650',-0.017
'0:15.653',-0.022
'0:15.656',-0.017
'0:15.658',-0.006
'0:15.661',-0.006
'0:15.664',-0.011
'0:15.667',-0.017
'0:15.669',-0.022
'0:15.672',-0.025
'0:15.675',-0.028
'0:15.678',-0.022
'0:15.681',-0.022
'0:15.683',-0.019
'0:15.686',-0.019
'0:15.689',-0.033
'0:15.692',-0.047
'0:15.694',-0.052
'0:15.697',-0.047
'0:15.700',-0.044
'0:15.703',-0.047
'0:15.706',-0.044
'0:15.708',-0.041
'0:15.711',-0.044
'0:15.714',-0.05
'0:15.717',-0.044
'0:15.719',-0.039
'0:15.722',-0.03
'0:15.725',-0.025
'0:15.728',-0.033
'0:15.731',-0.044
'0:15.733',-0.058
'0:15.736',-0.066
'0:15.739',-0.055
'0:15.742',-0.039
'0:15.744',-0.025
'0:15.747',-0.028
'0:15.750',-0.033
'0:15.753',-0.028
'0:15.756',-0.011
'0:15.758',-0.011
'0:15.761',-0.025
'0:15.764',-0.03
'0:15.767',-0.033
'0:15.769',-0.033
'0:15.772',-0.019
'0:15.775',-0.008
'0:15.778',-0.011
'0:15.781',-0.028
'0:15.783',-0.033
'0:15.786',-0.044
'0:15.789',-0.058
'0:15.792',-0.044
'0:15.794',-0.033
'0:15.797',-0.036
'0:15.800',-0.047
'0:15.803',-0.061
'0:15.806',-0.058
'0:15.808',-0.055
'0:15.811',-0.052
'0:15.814',-0.061
'0:15.817',-0.069
'0:15.819',-0.069
'0:15.822',-0.055
'0:15.825',-0.047
'0:15.828',-0.052
'0:15.831',-0.058
'0:15.833',-0.066
'0:15.836',-0.08
'0:15.839',-0.086
'0:15.842',-0.077
'0:15.844',-0.066
'0:15.847',-0.077
'0:15.850',-0.094
'0:15.853',-0.094
'0:15.856',-0.083
'0:15.858',-0.075
'0:15.861',-0.066
'0:15.864',-0.08
'0:15.867',-0.088
'0:15.869',-0.086
'0:15.872',-0.08
'0:15.875',-0.077
'0:15.878',-0.066
'0:15.881',-0.066
'0:15.883',-0.072
'0:15.886',-0.075
'0:15.889',-0.052
'0:15.892',-0.003
'0:15.894',0.072
'0:15.897',0.133
'0:15.900',0.16
'0:15.903',0.169
'0:15.906',0.155
'0:15.908',0.091
'0:15.911',-0.033
'0:15.914',-0.202
'0:15.917',-0.37
'0:15.919',-0.517
'0:15.922',-0.652
'0:15.925',-0.793
'0:15.928',-0.87
'0:15.931',-0.837
'0:15.933',-0.735
'0:15.936',-0.613
'0:15.939',-0.481
'0:15.942',-0.356
'0:15.944',-0.246
'0:15.947',-0.16
'0:15.950',-0.105
'0:15.953',-0.086
'0:15.956',-0.069
'0:15.958',-0.044
'0:15.961',-0.033
'0:15.964',-0.039
'0:15.967',-0.044
'0:15.969',-0.047
'0:15.972',-0.044
'0:15.975',-0.036
'0:15.978',-0.028
'0:15.981',-0.022
'0:15.983',-0.028
'0:15.986',-0.019
'0:15.989',-0.011
'0:15.992',-0.011
'0:15.994',-0.019
'0:15.997',-0.022
'0:16.000',-0.022
'0:16.003',-0.017
'0:16.006',-0.008
'0:16.008',-0.006
'0:16.011',-0.003
'0:16.014',-0.003
'0:16.017',-0.006
'0:16.019',-0.008
'0:16.022',-0.003
'0:16.025',0.006
'0:16.028',0.011
'0:16.031',0.008
'0:16.033',-0.003
'0:16.036',-0.006
'0:16.039',0.003
'0:16.042',0.017
'0:16.044',0.028
'0:16.047',0.022
'0:16.050',0.014
'0:16.053',0.008
'0:16.056',0.011
'0:16.058',0.022
'0:16.061',0.039
'0:16.064',0.041
'0:16.067',0.041
'0:16.069',0.041
'0:16.072',0.044
'0:16.075',0.041
'0:16.078',0.041
'0:16.081',0.041
'0:16.083',0.041
'0:16.086',0.055
'0:16.089',0.066
'0:16.092',0.075
'0:16.094',0.08
'0:16.097',0.077
'0:16.100',0.08
'0:16.103',0.088
'0:16.106',0.094
'0:16.108',0.102
'0:16.111',0.122
'0:16.114',0.13
'0:16.117',0.116
'0:16.119',0.11
'0:16.122',0.116
'0:16.125',0.127
'0:16.128',0.133
'0:16.131',0.13
'0:16.133',0.122
'0:16.136',0.127
'0:16.139',0.138
'0:16.142',0.144
'0:16.144',0.138
'0:16.147',0.13
'0:16.150',0.13
'0:16.153',0.133
'0:16.156',0.127
'0:16.158',0.124
'0:16.161',0.124
'0:16.164',0.113
'0:16.167',0.086
'0:16.169',0.075
'0:16.172',0.075
'0:16.175',0.069
'0:16.178',0.055
'0:16.181',0.041
'0:16.183',0.03
'0:16.186',0.028
'0:16.189',0.019
'0:16.192',0.014
'0:16.194',0.011
'0:16.197',0.008
'0:16.200',-0.003
'0:16.203',-0.008
'0:16.206',-0.008
'0:16.208',-0.008
'0:16.211',-0.017
'0:16.214',-0.022
'0:16.217',-0.028
'0:16.219',-0.03
'0:16.222',-0.033
'0:16.225',-0.028
'0:16.228',-0.017
'0:16.231',-0.019
'0:16.233',-0.022
'0:16.236',-0.025
'0:16.239',-0.03
'0:16.242',-0.028
'0:16.244',-0.028
'0:16.247',-0.03
'0:16.250',-0.036
'0:16.253',-0.028
'0:16.256',-0.019
'0:16.258',-0.019
'0:16.261',-0.028
'0:16.264',-0.033
'0:16.267',-0.033
'0:16.269',-0.036
'0:16.272',-0.03
'0:16.275',-0.022
'0:16.278',-0.025
'0:16.281',-0.033
'0:16.283',-0.039
'0:16.286',-0.03
'0:16.289',-0.019
'0:16.292',-0.017
'0:16.294',-0.03
'0:16.297',-0.047
'0:16.300',-0.052
'0:16.303',-0.05
'0:16.306',-0.044
'0:16.308',-0.036
'0:16.311',-0.036
'0:16.314',-0.044
'0:16.317',-0.055
'0:16.319',-0.055
'0:16.322',-0.044
'0:16.325',-0.033
'0:16.328',-0.039
'0:16.331',-0.05
'0:16.333',-0.058
'0:16.336',-0.052
'0:16.339',-0.041
'0:16.342',-0.036
'0:16.344',-0.039
'0:16.347',-0.044
'0:16.350',-0.044
'0:16.353',-0.044
'0:16.356',-0.044
'0:16.358',-0.041
'0:16.361',-0.039
'0:16.364',-0.036
'0:16.367',-0.033
'0:16.369',-0.028
'0:16.372',-0.028
'0:16.375',-0.022
'0:16.378',-0.022
'0:16.381',-0.022
'0:16.383',-0.025
'0:16.386',-0.033
'0:16.389',-0.041
'0:16.392',-0.058
'0:16.394',-0.066
'0:16.397',-0.058
'0:16.400',-0.047
'0:16.403',-0.044
'0:16.406',-0.05
'0:16.408',-0.052
'0:16.411',-0.055
'0:16.414',-0.061
'0:16.417',-0.064
'0:16.419',-0.066
'0:16.422',-0.064
'0:16.425',-0.058
'0:16.428',-0.055
'0:16.431',-0.061
'0:16.433',-0.064
'0:16.436',-0.064
'0:16.439',-0.066
'0:16.442',-0.077
'0:16.444',-0.086
'0:16.447',-0.088
'0:16.450',-0.088
'0:16.453',-0.088
'0:16.456',-0.08
'0:16.458',-0.069
'0:16.461',-0.066
'0:16.464',-0.08
'0:16.467',-0.088
'0:16.469',-0.088
'0:16.472',-0.091
'0:16.475',-0.08
'0:16.478',-0.075
'0:16.481',-0.077
'0:16.483',-0.088
'0:16.486',-0.094
'0:16.489',-0.086
'0:16.492',-0.064
'0:16.494',-0.017
'0:16.497',0.033
'0:16.500',0.08
'0:16.503',0.124
'0:16.506',0.169
'0:16.508',0.174
'0:16.511',0.119
'0:16.514',0
'0:16.517',-0.157
'0:16.519',-0.32
'0:16.522',-0.472
'0:16.525',-0.602
'0:16.528',-0.738
'0:16.531',-0.851
'0:16.533',-0.845
'0:16.536',-0.754
'0:16.539',-0.641
'0:16.542',-0.508
'0:16.544',-0.373
'0:16.547',-0.265
'0:16.550',-0.193
'0:16.553',-0.133
'0:16.556',-0.099
'0:16.558',-0.077
'0:16.561',-0.064
'0:16.564',-0.055
'0:16.567',-0.055
'0:16.569',-0.052
'0:16.572',-0.041
'0:16.575',-0.03
'0:16.578',-0.028
'0:16.581',-0.03
'0:16.583',-0.033
'0:16.586',-0.028
'0:16.589',-0.022
'0:16.592',-0.017
'0:16.594',-0.014
'0:16.597',-0.017
'0:16.600',-0.014
'0:16.603',-0.008
'0:16.606',-0.006
'0:16.608',-0.006
'0:16.611',-0.008
'0:16.614',-0.011
'0:16.617',-0.011
'0:16.619',-0.003
'0:16.622',0.006
'0:16.625',0.011
'0:16.628',0.014
'0:16.631',0.003
'0:16.633',0
'0:16.636',0.003
'0:16.639',0.006
'0:16.642',0.006
'0:16.644',0.014
'0:16.647',0.017
'0:16.650',0.011
'0:16.653',0.008
'0:16.656',0.022
'0:16.658',0.025
'0:16.661',0.017
'0:16.664',0.017
'0:16.667',0.028
'0:16.669',0.033
'0:16.672',0.039
'0:16.675',0.041
'0:16.678',0.052
'0:16.681',0.055
'0:16.683',0.05
'0:16.686',0.05
'0:16.689',0.058
'0:16.692',0.066
'0:16.694',0.066
'0:16.697',0.066
'0:16.700',0.077
'0:16.703',0.091
'0:16.706',0.105
'0:16.708',0.108
'0:16.711',0.102
'0:16.714',0.094
'0:16.717',0.097
'0:16.719',0.11
'0:16.722',0.122
'0:16.725',0.127
'0:16.728',0.13
'0:16.731',0.135
'0:16.733',0.13
'0:16.736',0.127
'0:16.739',0.133
'0:16.742',0.138
'0:16.744',0.144
'0:16.747',0.144
'0:16.750',0.133
'0:16.753',0.127
'0:16.756',0.133
'0:16.758',0.141
'0:16.761',0.135
'0:16.764',0.116
'0:16.767',0.105
'0:16.769',0.102
'0:16.772',0.099
'0:16.775',0.088
'0:16.778',0.072
'0:16.781',0.055
'0:16.783',0.041
'0:16.786',0.03
'0:16.789',0.019
'0:16.792',0.019
'0:16.794',0.022
'0:16.797',0.017
'0:16.800',0.006
'0:16.803',-0.008
'0:16.806',-0.011
'0:16.808',-0.011
'0:16.811',-0.014
'0:16.814',-0.019
'0:16.817',-0.028
'0:16.819',-0.022
'0:16.822',-0.017
'0:16.825',-0.019
'0:16.828',-0.028
'0:16.831',-0.036
'0:16.833',-0.039
'0:16.836',-0.033
'0:16.839',-0.028
'0:16.842',-0.022
'0:16.844',-0.022
'0:16.847',-0.022
'0:16.850',-0.028
'0:16.853',-0.03
'0:16.856',-0.025
'0:16.858',-0.025
'0:16.861',-0.019
'0:16.864',-0.017
'0:16.867',-0.019
'0:16.869',-0.025
'0:16.872',-0.022
'0:16.875',-0.019
'0:16.878',-0.019
'0:16.881',-0.025
'0:16.883',-0.03
'0:16.886',-0.033
'0:16.889',-0.028
'0:16.892',-0.022
'0:16.894',-0.017
'0:16.897',-0.019
'0:16.900',-0.028
'0:16.903',-0.033
'0:16.906',-0.041
'0:16.908',-0.047
'0:16.911',-0.05
'0:16.914',-0.047
'0:16.917',-0.05
'0:16.919',-0.052
'0:16.922',-0.052
'0:16.925',-0.041
'0:16.928',-0.039
'0:16.931',-0.039
'0:16.933',-0.041
'0:16.936',-0.036
'0:16.939',-0.03
'0:16.942',-0.03
'0:16.944',-0.044
'0:16.947',-0.064
'0:16.950',-0.066
'0:16.953',-0.061
'0:16.956',-0.052
'0:16.958',-0.047
'0:16.961',-0.041
'0:16.964',-0.036
'0:16.967',-0.033
'0:16.969',-0.039
'0:16.972',-0.033
'0:16.975',-0.025
'0:16.978',-0.022
'0:16.981',-0.019
'0:16.983',-0.019
'0:16.986',-0.025
'0:16.989',-0.022
'0:16.992',-0.022
'0:16.994',-0.014
'0:16.997',-0.006
'0:17.000',-0.008
'0:17.003',-0.022
'0:17.006',-0.033
'0:17.008',-0.044
'0:17.011',-0.052
'0:17.014',-0.055
'0:17.017',-0.044
'0:17.019',-0.036
'0:17.022',-0.033
'0:17.025',-0.036
'0:17.028',-0.041
'0:17.031',-0.044
'0:17.033',-0.047
'0:17.036',-0.052
'0:17.039',-0.05
'0:17.042',-0.044
'0:17.044',-0.047
'0:17.047',-0.044
'0:17.050',-0.047
'0:17.053',-0.055
'0:17.056',-0.064
'0:17.058',-0.072
'0:17.061',-0.083
'0:17.064',-0.083
'0:17.067',-0.083
'0:17.069',-0.083
'0:17.072',-0.08
'0:17.075',-0.077
'0:17.078',-0.077
'0:17.081',-0.08
'0:17.083',-0.086
'0:17.086',-0.083
'0:17.089',-0.072
'0:17.092',-0.072
'0:17.094',-0.083
'0:17.097',-0.086
'0:17.100',-0.08
'0:17.103',-0.075
'0:17.106',-0.066
'0:17.108',-0.052
'0:17.111',-0.017
'0:17.114',0.039
'0:17.117',0.102
'0:17.119',0.152
'0:17.122',0.191
'0:17.125',0.188
'0:17.128',0.124
'0:17.131',0.006
'0:17.133',-0.155
'0:17.136',-0.343
'0:17.139',-0.503
'0:17.142',-0.622
'0:17.144',-0.746
'0:17.147',-0.848
'0:17.150',-0.837
'0:17.153',-0.749
'0:17.156',-0.633
'0:17.158',-0.497
'0:17.161',-0.378
'0:17.164',-0.273
'0:17.167',-0.185
'0:17.169',-0.127
'0:17.172',-0.099
'0:17.175',-0.075
'0:17.178',-0.055
'0:17.181',-0.041
'0:17.183',-0.036
'0:17.186',-0.039
'0:17.189',-0.039
'0:17.192',-0.044
'0:17.194',-0.044
'0:17.197',-0.036
'0:17.200',-0.03
'0:17.203',-0.022
'0:17.206',-0.019
'0:17.208',-0.022
'0:17.211',-0.025
'0:17.214',-0.028
'0:17.217',-0.028
'0:17.219',-0.014
'0:17.222',-0.011
'0:17.225',-0.011
'0:17.228',-0.008
'0:17.231',-0.006
'0:17.233',-0.006
'0:17.236',-0.003
'0:17.239',0
'0:17.242',0
'0:17.244',-0.003
'0:17.247',-0.003
'0:17.250',-0.008
'0:17.253',-0.006
'0:17.256',0
'0:17.258',0.006
'0:17.261',0.008
'0:17.264',0.006
'0:17.267',0.006
'0:17.269',0.003
'0:17.272',0.008
'0:17.275',0.017
'0:17.278',0.025
'0:17.281',0.028
'0:17.283',0.019
'0:17.286',0.017
'0:17.289',0.028
'0:17.292',0.044
'0:17.294',0.044
'0:17.297',0.041
'0:17.300',0.05
'0:17.303',0.061
'0:17.306',0.064
'0:17.308',0.064
'0:17.311',0.069
'0:17.314',0.08
'0:17.317',0.083
'0:17.319',0.086
'0:17.322',0.102
'0:17.325',0.113
'0:17.328',0.11
'0:17.331',0.116
'0:17.333',0.13
'0:17.336',0.138
'0:17.339',0.144
'0:17.342',0.152
'0:17.344',0.144
'0:17.347',0.144
'0:17.350',0.146
'0:17.353',0.141
'0:17.356',0.141
'0:17.358',0.152
'0:17.361',0.163
'0:17.364',0.163
'0:17.367',0.157
'0:17.369',0.157
'0:17.372',0.155
'0:17.375',0.146
'0:17.378',0.146
'0:17.381',0.144
'0:17.383',0.13
'0:17.386',0.113
'0:17.389',0.105
'0:17.392',0.105
'0:17.394',0.097
'0:17.397',0.08
'0:17.400',0.061
'0:17.403',0.044
'0:17.406',0.039
'0:17.408',0.036
'0:17.411',0.019
'0:17.414',-0.003
'0:17.417',-0.017
'0:17.419',-0.019
'0:17.422',-0.014
'0:17.425',-0.008
'0:17.428',-0.014
'0:17.431',-0.025
'0:17.433',-0.033
'0:17.436',-0.039
'0:17.439',-0.033
'0:17.442',-0.019
'0:17.444',-0.019
'0:17.447',-0.03
'0:17.450',-0.041
'0:17.453',-0.041
'0:17.456',-0.03
'0:17.458',-0.019
'0:17.461',-0.017
'0:17.464',-0.019
'0:17.467',-0.03
'0:17.469',-0.039
'0:17.472',-0.039
'0:17.475',-0.028
'0:17.478',-0.022
'0:17.481',-0.03
'0:17.483',-0.039
'0:17.486',-0.039
'0:17.489',-0.03
'0:17.492',-0.033
'0:17.494',-0.041
'0:17.497',-0.041
'0:17.500',-0.039
'0:17.503',-0.039
'0:17.506',-0.036
'0:17.508',-0.028
'0:17.511',-0.028
'0:17.514',-0.03
'0:17.517',-0.03
'0:17.519',-0.03
'0:17.522',-0.03
'0:17.525',-0.039
'0:17.528',-0.047
'0:17.531',-0.05
'0:17.533',-0.055
'0:17.536',-0.055
'0:17.539',-0.055
'0:17.542',-0.044
'0:17.544',-0.041
'0:17.547',-0.05
'0:17.550',-0.055
'0:17.553',-0.044
'0:17.556',-0.036
'0:17.558',-0.036
'0:17.561',-0.044
'0:17.564',-0.052
'0:17.567',-0.061
'0:17.569',-0.058
'0:17.572',-0.058
'0:17.575',-0.061
'0:17.578',-0.061
'0:17.581',-0.058
'0:17.583',-0.055
'0:17.586',-0.058
'0:17.589',-0.061
'0:17.592',-0.052
'0:17.594',-0.041
'0:17.597',-0.036
'0:17.600',-0.036
'0:17.603',-0.036
'0:17.606',-0.036
'0:17.608',-0.033
'0:17.611',-0.033
'0:17.614',-0.028
'0:17.617',-0.033
'0:17.619',-0.039
'0:17.622',-0.041
'0:17.625',-0.041
'0:17.628',-0.041
'0:17.631',-0.05
'0:17.633',-0.064
'0:17.636',-0.061
'0:17.639',-0.047
'0:17.642',-0.039
'0:17.644',-0.033
'0:17.647',-0.033
'0:17.650',-0.041
'0:17.653',-0.052
'0:17.656',-0.052
'0:17.658',-0.041
'0:17.661',-0.044
'0:17.664',-0.052
'0:17.667',-0.066
'0:17.669',-0.072
'0:17.672',-0.066
'0:17.675',-0.058
'0:17.678',-0.066
'0:17.681',-0.075
'0:17.683',-0.08
'0:17.686',-0.077
'0:17.689',-0.08
'0:17.692',-0.088
'0:17.694',-0.094
'0:17.697',-0.099
'0:17.700',-0.091
'0:17.703',-0.086
'0:17.706',-0.083
'0:17.708',-0.08
'0:17.711',-0.083
'0:17.714',-0.091
'0:17.717',-0.097
'0:17.719',-0.094
'0:17.722',-0.088
'0:17.725',-0.083
'0:17.728',-0.083
'0:17.731',-0.088
'0:17.733',-0.088
'0:17.736',-0.077
'0:17.739',-0.041
'0:17.742',0.011
'0:17.744',0.069
'0:17.747',0.116
'0:17.750',0.155
'0:17.753',0.163
'0:17.756',0.116
'0:17.758',0.017
'0:17.761',-0.127
'0:17.764',-0.315
'0:17.767',-0.492
'0:17.769',-0.622
'0:17.772',-0.743
'0:17.775',-0.837
'0:17.778',-0.837
'0:17.781',-0.765
'0:17.783',-0.671
'0:17.786',-0.547
'0:17.789',-0.409
'0:17.792',-0.29
'0:17.794',-0.193
'0:17.797',-0.133
'0:17.800',-0.11
'0:17.803',-0.099
'0:17.806',-0.083
'0:17.808',-0.064
'0:17.811',-0.05
'0:17.814',-0.044
'0:17.817',-0.044
'0:17.819',-0.039
'0:17.822',-0.033
'0:17.825',-0.028
'0:17.828',-0.028
'0:17.831',-0.028
'0:17.833',-0.03
'0:17.836',-0.033
'0:17.839',-0.025
'0:17.842',-0.019
'0:17.844',-0.019
'0:17.847',-0.019
'0:17.850',-0.022
'0:17.853',-0.025
'0:17.856',-0.019
'0:17.858',-0.011
'0:17.861',-0.011
'0:17.864',-0.022
'0:17.867',-0.017
'0:17.869',-0.003
'0:17.872',0.006
'0:17.875',0.008
'0:17.878',0.008
'0:17.881',0.003
'0:17.883',-0.006
'0:17.886',-0.014
'0:17.889',-0.003
'0:17.892',0.011
'0:17.894',0.014
'0:17.897',0.008
'0:17.900',0.006
'0:17.903',0.008
'0:17.906',0.022
'0:17.908',0.033
'0:17.911',0.033
'0:17.914',0.03
'0:17.917',0.033
'0:17.919',0.044
'0:17.922',0.05
'0:17.925',0.055
'0:17.928',0.055
'0:17.931',0.058
'0:17.933',0.055
'0:17.936',0.055
'0:17.939',0.061
'0:17.942',0.075
'0:17.944',0.091
'0:17.947',0.094
'0:17.950',0.091
'0:17.953',0.099
'0:17.956',0.105
'0:17.958',0.113
'0:17.961',0.127
'0:17.964',0.127
'0:17.967',0.116
'0:17.969',0.116
'0:17.972',0.124
'0:17.975',0.133
'0:17.978',0.141
'0:17.981',0.138
'0:17.983',0.138
'0:17.986',0.141
'0:17.989',0.138
'0:17.992',0.138
'0:17.994',0.13
'0:17.997',0.133
'0:18.000',0.144
'0:18.003',0.146
'0:18.006',0.144
'0:18.008',0.124
'0:18.011',0.11
'0:18.014',0.105
'0:18.017',0.102
'0:18.019',0.094
'0:18.022',0.075
'0:18.025',0.055
'0:18.028',0.052
'0:18.031',0.047
'0:18.033',0.03
'0:18.036',0.014
'0:18.039',0.014
'0:18.042',0.019
'0:18.044',0.011
'0:18.047',-0.003
'0:18.050',-0.017
'0:18.053',-0.025
'0:18.056',-0.028
'0:18.058',-0.019
'0:18.061',-0.019
'0:18.064',-0.025
'0:18.067',-0.033
'0:18.069',-0.036
'0:18.072',-0.033
'0:18.075',-0.036
'0:18.078',-0.036
'0:18.081',-0.025
'0:18.083',-0.025
'0:18.086',-0.03
'0:18.089',-0.039
'0:18.092',-0.036
'0:18.094',-0.025
'0:18.097',-0.014
'0:18.100',-0.017
'0:18.103',-0.025
'0:18.106',-0.019
'0:18.108',-0.017
'0:18.111',-0.028
'0:18.114',-0.03
'0:18.117',-0.028
'0:18.119',-0.022
'0:18.122',-0.014
'0:18.125',-0.019
'0:18.128',-0.03
'0:18.131',-0.039
'0:18.133',-0.033
'0:18.136',-0.025
'0:18.139',-0.022
'0:18.142',-0.025
'0:18.144',-0.033
'0:18.147',-0.033
'0:18.150',-0.039
'0:18.153',-0.039
'0:18.156',-0.041
'0:18.158',-0.036
'0:18.161',-0.036
'0:18.164',-0.039
'0:18.167',-0.041
'0:18.169',-0.044
'0:18.172',-0.036
'0:18.175',-0.025
'0:18.178',-0.025
'0:18.181',-0.039
'0:18.183',-0.044
'0:18.186',-0.05
'0:18.189',-0.047
'0:18.192',-0.041
'0:18.194',-0.047
'0:18.197',-0.05
'0:18.200',-0.055
'0:18.203',-0.058
'0:18.206',-0.044
'0:18.208',-0.036
'0:18.211',-0.039
'0:18.214',-0.044
'0:18.217',-0.058
'0:18.219',-0.064
'0:18.222',-0.052
'0:18.225',-0.05
'0:18.228',-0.055
'0:18.231',-0.061
'0:18.233',-0.058
'0:18.236',-0.058
'0:18.239',-0.061
'0:18.242',-0.061
'0:18.244',-0.058
'0:18.247',-0.052
'0:18.250',-0.041
'0:18.253',-0.028
'0:18.256',-0.025
'0:18.258',-0.03
'0:18.261',-0.036
'0:18.264',-0.033
'0:18.267',-0.028
'0:18.269',-0.025
'0:18.272',-0.022
'0:18.275',-0.022
'0:18.278',-0.022
'0:18.281',-0.022
'0:18.283',-0.036
'0:18.286',-0.041
'0:18.289',-0.036
'0:18.292',-0.036
'0:18.294',-0.05
'0:18.297',-0.052
'0:18.300',-0.044
'0:18.303',-0.033
'0:18.306',-0.03
'0:18.308',-0.03
'0:18.311',-0.028
'0:18.314',-0.025
'0:18.317',-0.033
'0:18.319',-0.044
'0:18.322',-0.055
'0:18.325',-0.064
'0:18.328',-0.069
'0:18.331',-0.061
'0:18.333',-0.055
'0:18.336',-0.064
'0:18.339',-0.069
'0:18.342',-0.061
'0:18.344',-0.061
'0:18.347',-0.064
'0:18.350',-0.072
'0:18.353',-0.083
'0:18.356',-0.088
'0:18.358',-0.086
'0:18.361',-0.08
'0:18.364',-0.077
'0:18.367',-0.077
'0:18.369',-0.08
'0:18.372',-0.08
'0:18.375',-0.075
'0:18.378',-0.077
'0:18.381',-0.083
'0:18.383',-0.088
'0:18.386',-0.086
'0:18.389',-0.072
'0:18.392',-0.055
'0:18.394',-0.022
'0:18.397',0.022
'0:18.400',0.075
'0:18.403',0.116
'0:18.406',0.155
'0:18.408',0.174
'0:18.411',0.149
'0:18.414',0.061
'0:18.417',-0.083
'0:18.419',-0.251
'0:18.422',-0.414
'0:18.425',-0.544
'0:18.428',-0.655
'0:18.431',-0.754
'0:18.433',-0.785
'0:18.436',-0.729
'0:18.439',-0.644
'0:18.442',-0.525
'0:18.444',-0.403
'0:18.447',-0.301
'0:18.450',-0.215
'0:18.453',-0.152
'0:18.456',-0.116
'0:18.458',-0.094
'0:18.461',-0.061
'0:18.464',-0.041
'0:18.467',-0.041
'0:18.469',-0.05
'0:18.472',-0.055
'0:18.475',-0.05
'0:18.478',-0.047
'0:18.481',-0.039
'0:18.483',-0.03
'0:18.486',-0.028
'0:18.489',-0.019
'0:18.492',-0.011
'0:18.494',-0.014
'0:18.497',-0.017
'0:18.500',-0.022
'0:18.503',-0.022
'0:18.506',-0.011
'0:18.508',-0.003
'0:18.511',0
'0:18.514',-0.003
'0:18.517',-0.003
'0:18.519',-0.006
'0:18.522',-0.008
'0:18.525',-0.003
'0:18.528',0.003
'0:18.531',0.008
'0:18.533',0.006
'0:18.536',0.006
'0:18.539',0.014
'0:18.542',0.014
'0:18.544',0.011
'0:18.547',0.011
'0:18.550',0.017
'0:18.553',0.022
'0:18.556',0.017
'0:18.558',0.022
'0:18.561',0.022
'0:18.564',0.022
'0:18.567',0.028
'0:18.569',0.025
'0:18.572',0.025
'0:18.575',0.019
'0:18.578',0.03
'0:18.581',0.047
'0:18.583',0.052
'0:18.586',0.055
'0:18.589',0.058
'0:18.592',0.064
'0:18.594',0.066
'0:18.597',0.077
'0:18.600',0.08
'0:18.603',0.077
'0:18.606',0.08
'0:18.608',0.105
'0:18.611',0.11
'0:18.614',0.11
'0:18.617',0.116
'0:18.619',0.116
'0:18.622',0.119
'0:18.625',0.13
'0:18.628',0.133
'0:18.631',0.127
'0:18.633',0.116
'0:18.636',0.119
'0:18.639',0.138
'0:18.642',0.16
'0:18.644',0.157
'0:18.647',0.152
'0:18.650',0.149
'0:18.653',0.141
'0:18.656',0.138
'0:18.658',0.138
'0:18.661',0.144
'0:18.664',0.144
'0:18.667',0.13
'0:18.669',0.119
'0:18.672',0.105
'0:18.675',0.099
'0:18.678',0.097
'0:18.681',0.091
'0:18.683',0.077
'0:18.686',0.058
'0:18.689',0.036
'0:18.692',0.025
'0:18.694',0.028
'0:18.697',0.025
'0:18.700',0.011
'0:18.703',-0.003
'0:18.706',-0.017
'0:18.708',-0.014
'0:18.711',-0.019
'0:18.714',-0.025
'0:18.717',-0.033
'0:18.719',-0.033
'0:18.722',-0.022
'0:18.725',-0.014
'0:18.728',-0.017
'0:18.731',-0.03
'0:18.733',-0.044
'0:18.736',-0.041
'0:18.739',-0.036
'0:18.742',-0.028
'0:18.744',-0.022
'0:18.747',-0.033
'0:18.750',-0.039
'0:18.753',-0.028
'0:18.756',-0.022
'0:18.758',-0.014
'0:18.761',-0.014
'0:18.764',-0.03
'0:18.767',-0.044
'0:18.769',-0.047
'0:18.772',-0.039
'0:18.775',-0.03
'0:18.778',-0.025
'0:18.781',-0.017
'0:18.783',-0.028
'0:18.786',-0.039
'0:18.789',-0.041
'0:18.792',-0.036
'0:18.794',-0.033
'0:18.797',-0.033
'0:18.800',-0.03
'0:18.803',-0.036
'0:18.806',-0.028
'0:18.808',-0.014
'0:18.811',-0.011
'0:18.814',-0.019
'0:18.817',-0.041
'0:18.819',-0.05
'0:18.822',-0.044
'0:18.825',-0.036
'0:18.828',-0.033
'0:18.831',-0.028
'0:18.833',-0.03
'0:18.836',-0.036
'0:18.839',-0.036
'0:18.842',-0.044
'0:18.844',-0.05
'0:18.847',-0.047
'0:18.850',-0.052
'0:18.853',-0.052
'0:18.856',-0.047
'0:18.858',-0.044
'0:18.861',-0.05
'0:18.864',-0.052
'0:18.867',-0.052
'0:18.869',-0.052
'0:18.872',-0.052
'0:18.875',-0.047
'0:18.878',-0.047
'0:18.881',-0.047
'0:18.883',-0.05
'0:18.886',-0.055
'0:18.889',-0.061
'0:18.892',-0.061
'0:18.894',-0.055
'0:18.897',-0.058
'0:18.900',-0.058
'0:18.903',-0.064
'0:18.906',-0.072
'0:18.908',-0.064
'0:18.911',-0.041
'0:18.914',-0.039
'0:18.917',-0.058
'0:18.919',-0.066
'0:18.922',-0.052
'0:18.925',-0.039
'0:18.928',-0.036
'0:18.931',-0.03
'0:18.933',-0.028
'0:18.936',-0.022
'0:18.939',-0.017
'0:18.942',-0.003
'0:18.944',-0.008
'0:18.947',-0.036
'0:18.950',-0.044
'0:18.953',-0.036
'0:18.956',-0.03
'0:18.958',-0.039
'0:18.961',-0.058
'0:18.964',-0.061
'0:18.967',-0.055
'0:18.969',-0.041
'0:18.972',-0.03
'0:18.975',-0.022
'0:18.978',-0.017
'0:18.981',-0.019
'0:18.983',-0.041
'0:18.986',-0.061
'0:18.989',-0.052
'0:18.992',-0.041
'0:18.994',-0.044
'0:18.997',-0.055
'0:19.000',-0.069
'0:19.003',-0.072
'0:19.006',-0.069
'0:19.008',-0.072
'0:19.011',-0.072
'0:19.014',-0.066
'0:19.017',-0.072
'0:19.019',-0.083
'0:19.022',-0.086
'0:19.025',-0.097
'0:19.028',-0.102
'0:19.031',-0.088
'0:19.033',-0.088
'0:19.036',-0.091
'0:19.039',-0.088
'0:19.042',-0.086
'0:19.044',-0.088
'0:19.047',-0.094
'0:19.050',-0.088
'0:19.053',-0.08
'0:19.056',-0.069
'0:19.058',-0.069
'0:19.061',-0.069
'0:19.064',-0.036
'0:19.067',0.028
'0:19.069',0.088
'0:19.072',0.124
'0:19.075',0.157
'0:19.078',0.169
'0:19.081',0.122
'0:19.083',0.019
'0:19.086',-0.138
'0:19.089',-0.329
'0:19.092',-0.497
'0:19.094',-0.622
'0:19.097',-0.738
'0:19.100',-0.843
'0:19.103',-0.851
'0:19.106',-0.76
'0:19.108',-0.652
'0:19.111',-0.541
'0:19.114',-0.414
'0:19.117',-0.304
'0:19.119',-0.213
'0:19.122',-0.141
'0:19.125',-0.094
'0:19.128',-0.069
'0:19.131',-0.064
'0:19.133',-0.064
'0:19.136',-0.061
'0:19.139',-0.058
'0:19.142',-0.041
'0:19.144',-0.033
'0:19.147',-0.041
'0:19.150',-0.044
'0:19.153',-0.036
'0:19.156',-0.025
'0:19.158',-0.022
'0:19.161',-0.019
'0:19.164',-0.014
'0:19.167',-0.011
'0:19.169',-0.011
'0:19.172',-0.011
'0:19.175',-0.011
'0:19.178',-0.011
'0:19.181',-0.014
'0:19.183',-0.011
'0:19.186',-0.008
'0:19.189',-0.003
'0:19.192',-0.003
'0:19.194',-0.003
'0:19.197',0
'0:19.200',0
'0:19.203',0.003
'0:19.206',0.014
'0:19.208',0.011
'0:19.211',0.003
'0:19.214',0.003
'0:19.217',0.014
'0:19.219',0.022
'0:19.222',0.019
'0:19.225',0.014
'0:19.228',0.019
'0:19.231',0.028
'0:19.233',0.025
'0:19.236',0.022
'0:19.239',0.03
'0:19.242',0.039
'0:19.244',0.041
'0:19.247',0.041
'0:19.250',0.041
'0:19.253',0.047
'0:19.256',0.064
'0:19.258',0.077
'0:19.261',0.083
'0:19.264',0.086
'0:19.267',0.086
'0:19.269',0.086
'0:19.272',0.094
'0:19.275',0.102
'0:19.278',0.119
'0:19.281',0.133
'0:19.283',0.133
'0:19.286',0.13
'0:19.289',0.133
'0:19.292',0.144
'0:19.294',0.16
'0:19.297',0.163
'0:19.300',0.163
'0:19.303',0.163
'0:19.306',0.169
'0:19.308',0.174
'0:19.311',0.177
'0:19.314',0.171
'0:19.317',0.169
'0:19.319',0.166
'0:19.322',0.169
'0:19.325',0.18
'0:19.328',0.185
'0:19.331',0.18
'0:19.333',0.16
'0:19.336',0.144
'0:19.339',0.135
