'0:00.000',3.12
'0:00.004',3.26
'0:00.008',3.68
'0:00.012',4.04
'0:00.016',3.84
'0:00.020',2.85
'0:00.023',1.62
'0:00.027',1.01
'0:00.031',0.42
'0:00.035',-0.17
'0:00.039',-0.4
'0:00.043',-0.49
'0:00.047',-0.81
'0:00.051',-1.01
'0:00.055',-0.88
'0:00.059',-0.55
'0:00.063',-0.27
'0:00.066',-0.12
'0:00.070',0.21
'0:00.074',0.57
'0:00.078',0.85
'0:00.082',0.83
'0:00.086',0.51
'0:00.090',0.25
'0:00.094',0.38
'0:00.098',0.83
'0:00.102',1.22
'0:00.105',0.7
'0:00.109',-0.25
'0:00.113',-1
'0:00.117',-0.73
'0:00.121',0.19
'0:00.125',0.18
'0:00.129',-1.29
'0:00.133',-2.62
'0:00.137',-3.09
'0:00.141',-2.9
'0:00.145',-2.76
'0:00.148',-3.03
'0:00.152',-3.05
'0:00.156',-2.35
'0:00.160',-1.12
'0:00.164',1.06
'0:00.168',4.26
'0:00.172',6.89
'0:00.176',7.77
'0:00.180',6.87
'0:00.184',5.1
'0:00.188',2.23
'0:00.191',-1.36
'0:00.195',-4.25
'0:00.199',-5.42
'0:00.203',-5.39
'0:00.207',-5.2
'0:00.211',-4.99
'0:00.215',-4.4
'0:00.219',-3.49
'0:00.223',-3.35
'0:00.227',-3.61
'0:00.230',-3.59
'0:00.234',-2.84
'0:00.238',-2.36
'0:00.242',-2.59
'0:00.246',-2.73
'0:00.250',-2.49
'0:00.254',-1.98
'0:00.258',-1.45
'0:00.262',-0.8
'0:00.266',-0.51
'0:00.270',-0.6
'0:00.273',-0.49
'0:00.277',-0.22
'0:00.281',0
'0:00.285',0.24
'0:00.289',0.69
'0:00.293',1.2
'0:00.297',1.58
'0:00.301',1.83
'0:00.305',1.97
'0:00.309',2.11
'0:00.313',2.36
'0:00.316',2.53
'0:00.320',2.61
'0:00.324',2.56
'0:00.328',2.4
'0:00.332',2.2
'0:00.336',1.98
'0:00.340',1.81
'0:00.344',1.76
'0:00.348',1.8
'0:00.352',2.45
'0:00.355',2.98
'0:00.359',1.84
'0:00.363',-0.04
'0:00.367',-1.82
'0:00.371',-2.62
'0:00.375',-2.4
'0:00.379',-1.57
'0:00.383',-0.87
'0:00.387',-0.47
'0:00.391',0.03
'0:00.395',0.59
'0:00.398',0.94
'0:00.402',0.92
'0:00.406',0.81
'0:00.410',0.75
'0:00.414',0.71
'0:00.418',0.52
'0:00.422',0.31
'0:00.426',0.13
'0:00.430',-0.11
'0:00.434',-0.45
'0:00.438',-0.82
'0:00.441',-1.04
'0:00.445',-1.3
'0:00.449',-1.64
'0:00.453',-1.76
'0:00.457',-1.66
'0:00.461',-1.66
'0:00.465',-1.7
'0:00.469',-1.5
'0:00.473',-0.99
'0:00.477',-0.11
'0:00.480',1.47
'0:00.484',3.62
'0:00.488',6.17
'0:00.492',8.09
'0:00.496',7.62
'0:00.500',4.85
'0:00.504',1.27
'0:00.508',-1.4
'0:00.512',-2.94
'0:00.516',-3.59
'0:00.520',-3.68
'0:00.523',-3.56
'0:00.527',-3.39
'0:00.531',-3.17
'0:00.535',-2.95
'0:00.539',-2.78
'0:00.543',-2.59
'0:00.547',-2.37
'0:00.551',-2.12
'0:00.555',-1.88
'0:00.559',-1.68
'0:00.563',-1.5
'0:00.566',-1.29
'0:00.570',-1.12
'0:00.574',-0.91
'0:00.578',-0.63
'0:00.582',-0.35
'0:00.586',-0.08
'0:00.590',0.16
'0:00.594',0.39
'0:00.598',0.59
'0:00.602',0.77
'0:00.605',1.11
'0:00.609',1.48
'0:00.613',1.89
'0:00.617',2.19
'0:00.621',2.47
'0:00.625',2.81
'0:00.629',3.06
'0:00.633',3.16
'0:00.637',3.11
'0:00.641',3
'0:00.645',2.86
'0:00.648',2.57
'0:00.652',2.26
'0:00.656',1.89
'0:00.660',1.48
'0:00.664',1.09
'0:00.668',0.68
'0:00.672',0.26
'0:00.676',-0.04
'0:00.680',-0.13
'0:00.684',-0.26
'0:00.688',-0.41
'0:00.691',-0.42
'0:00.695',-0.34
'0:00.699',-0.15
'0:00.703',0.09
'0:00.707',0.24
'0:00.711',0.4
'0:00.715',0.46
'0:00.719',0.44
'0:00.723',0.48
'0:00.727',0.51
'0:00.730',0.45
'0:00.734',0.25
'0:00.738',-0.04
'0:00.742',-0.38
'0:00.746',-0.72
'0:00.750',-0.9
'0:00.754',-1.06
'0:00.758',-1.26
'0:00.762',-1.43
'0:00.766',-1.67
'0:00.770',-1.78
'0:00.773',-1.94
'0:00.777',-2.12
'0:00.781',-1.91
'0:00.785',-1.45
'0:00.789',-0.78
'0:00.793',0.52
'0:00.797',2.55
'0:00.801',4.95
'0:00.805',6.97
'0:00.809',6.91
'0:00.813',4.48
'0:00.816',1
'0:00.820',-1.7
'0:00.824',-3.18
'0:00.828',-3.79
'0:00.832',-3.78
'0:00.836',-3.28
'0:00.840',-2.97
'0:00.844',-3.04
'0:00.848',-2.88
'0:00.852',-2.22
'0:00.855',-1.75
'0:00.859',-1.75
'0:00.863',-1.56
'0:00.867',-1.17
'0:00.871',-1.05
'0:00.875',-1.64
'0:00.879',-2.34
'0:00.883',-2.26
'0:00.887',-1.77
'0:00.891',-1.33
'0:00.895',-1.13
'0:00.898',-0.88
'0:00.902',-0.47
'0:00.906',0.13
'0:00.910',0.72
'0:00.914',1.06
'0:00.918',1.07
'0:00.922',1.28
'0:00.926',1.78
'0:00.930',2.37
'0:00.934',3.22
'0:00.938',3.77
'0:00.941',3.81
'0:00.945',3.98
'0:00.949',3.92
'0:00.953',2.85
'0:00.957',1.92
'0:00.961',1.57
'0:00.965',1.18
'0:00.969',0.88
'0:00.973',0.76
'0:00.977',0.43
'0:00.980',-0.05
'0:00.984',-0.29
'0:00.988',-0.04
'0:00.992',0.78
'0:00.996',1.1
'0:01.000',0.71
'0:01.004',1.47
'0:01.008',1.9
'0:01.012',0.8
'0:01.016',-0.35
'0:01.020',-1.2
'0:01.023',-2.18
'0:01.027',-2.77
'0:01.031',-2.58
'0:01.035',-1.95
'0:01.039',-1.21
'0:01.043',-0.83
'0:01.047',-0.73
'0:01.051',-0.72
'0:01.055',-0.85
'0:01.059',-0.78
'0:01.063',-0.68
'0:01.066',-0.63
'0:01.070',-0.26
'0:01.074',-0.36
'0:01.078',-1.4
'0:01.082',-2.11
'0:01.086',-2.52
'0:01.090',-2.75
'0:01.094',-2.63
'0:01.098',-2.24
'0:01.102',-1.81
'0:01.105',-1.1
'0:01.109',0.43
'0:01.113',2.66
'0:01.117',5.38
'0:01.121',7.18
'0:01.125',6.62
'0:01.129',3.74
'0:01.133',0.28
'0:01.137',-2.11
'0:01.141',-3.33
'0:01.145',-3.77
'0:01.148',-3.9
'0:01.152',-3.72
'0:01.156',-3.1
'0:01.160',-2.47
'0:01.164',-2.64
'0:01.168',-3.01
'0:01.172',-3.09
'0:01.176',-2.82
'0:01.180',-2.29
'0:01.184',-1.76
'0:01.188',-1.6
'0:01.191',-1.91
'0:01.195',-1.85
'0:01.199',-1.36
'0:01.203',-0.85
'0:01.207',-0.48
'0:01.211',-0.25
'0:01.215',0.02
'0:01.219',-0.02
'0:01.223',0.04
'0:01.227',0.44
'0:01.230',0.93
'0:01.234',1.33
'0:01.238',1.6
'0:01.242',1.83
'0:01.246',1.83
'0:01.250',1.83
'0:01.254',1.83
'0:01.258',3.51
'0:01.262',3.58
'0:01.266',3.56
'0:01.270',3.53
'0:01.273',3.33
'0:01.277',2.99
'0:01.281',2.65
'0:01.285',2.19
'0:01.289',1.77
'0:01.293',1.73
'0:01.297',1.73
'0:01.301',1.73
'0:01.305',1.73
'0:01.309',1.73
'0:01.313',1.64
'0:01.316',0.69
'0:01.320',0.76
'0:01.324',0.81
'0:01.328',0.88
'0:01.332',0.92
'0:01.336',0.99
'0:01.340',1.05
'0:01.344',0.93
'0:01.348',0.81
'0:01.352',0.72
'0:01.355',0.57
'0:01.359',0.31
'0:01.363',-0.04
'0:01.367',-0.42
'0:01.371',-0.79
'0:01.375',-1.13
'0:01.379',-1.57
'0:01.383',-1.9
'0:01.387',-2.14
'0:01.391',-2.27
'0:01.395',-2.19
'0:01.398',-2.04
'0:01.402',-1.92
'0:01.406',-1.88
'0:01.410',-1.68
'0:01.414',-1.24
'0:01.418',-0.45
'0:01.422',0.92
'0:01.426',2.85
'0:01.430',4.95
'0:01.434',6.26
'0:01.438',5.5
'0:01.441',3.1
'0:01.445',0.27
'0:01.449',-1.79
'0:01.453',-2.87
'0:01.457',-3.28
'0:01.461',-3.29
'0:01.465',-3.17
'0:01.469',-2.98
'0:01.473',-2.76
'0:01.477',-2.55
'0:01.480',-2.41
'0:01.484',-2.32
'0:01.488',-2.29
'0:01.492',-2.29
'0:01.496',-2.11
'0:01.500',-1.78
'0:01.504',-1.49
'0:01.508',-1.23
'0:01.512',-0.95
'0:01.516',-0.75
'0:01.520',-0.64
'0:01.523',-0.44
'0:01.527',-0.2
'0:01.531',-0.04
'0:01.535',0.11
'0:01.539',0.36
'0:01.543',0.68
'0:01.547',0.97
'0:01.551',1.24
'0:01.555',1.59
'0:01.559',2.03
'0:01.563',2.33
'0:01.566',2.47
'0:01.570',2.6
'0:01.574',2.61
'0:01.578',2.51
'0:01.582',2.37
'0:01.586',2.29
'0:01.590',2.18
'0:01.594',1.93
'0:01.598',1.64
'0:01.602',1.31
'0:01.605',0.92
'0:01.609',0.5
'0:01.613',0.14
'0:01.617',0.11
'0:01.621',0.36
'0:01.625',0.88
'0:01.629',1.24
'0:01.633',0.9
'0:01.637',0.16
'0:01.641',-0.5
'0:01.645',-0.16
'0:01.648',0.47
'0:01.652',0.43
'0:01.656',0.13
'0:01.660',0.49
'0:01.664',0.99
'0:01.668',1.14
'0:01.672',0.66
'0:01.676',-0.17
'0:01.680',-0.62
'0:01.684',-0.79
'0:01.688',-1.31
'0:01.691',-1.93
'0:01.695',-1.86
'0:01.699',-1.34
'0:01.703',-0.9
'0:01.707',-1.01
'0:01.711',-1.33
'0:01.715',-1.41
'0:01.719',-1.96
'0:01.723',-2.81
'0:01.727',-2.78
'0:01.730',-2.42
'0:01.734',-1.58
'0:01.738',0.25
'0:01.742',2.58
'0:01.746',5.07
'0:01.750',6.51
'0:01.754',5.36
'0:01.758',2.41
'0:01.762',-0.81
'0:01.766',-3.08
'0:01.770',-3.91
'0:01.773',-3.83
'0:01.777',-3.87
'0:01.781',-3.67
'0:01.785',-2.95
'0:01.789',-2.8
'0:01.793',-3.43
'0:01.797',-3.19
'0:01.801',-0.89
'0:01.805',0.58
'0:01.809',-0.99
'0:01.813',-2.43
'0:01.816',-3.03
'0:01.820',-3.75
'0:01.824',-4.06
'0:01.828',-3.59
'0:01.832',-2.67
'0:01.836',-2
'0:01.840',-1.6
'0:01.844',-1.19
'0:01.848',-0.73
'0:01.852',-0.33
'0:01.855',-0.15
'0:01.859',0.2
'0:01.863',1.03
'0:01.867',2.76
'0:01.871',4.17
'0:01.875',3.61
'0:01.879',2.11
'0:01.883',1.36
'0:01.887',1.03
'0:01.891',1.25
'0:01.895',1.81
'0:01.898',2.2
'0:01.902',2.49
'0:01.906',2.45
'0:01.910',1.92
'0:01.914',1.54
'0:01.918',1.14
'0:01.922',0.24
'0:01.926',-0.6
'0:01.930',-1.06
'0:01.934',-1.38
'0:01.938',-0.99
'0:01.941',-0.25
'0:01.945',-0.18
'0:01.949',-0.74
'0:01.953',-1.08
'0:01.957',-0.89
'0:01.961',-0.43
'0:01.965',-0.04
'0:01.969',0.2
'0:01.973',0.47
'0:01.977',0.76
'0:01.980',0.78
'0:01.984',0.94
'0:01.988',1.17
'0:01.992',0.64
'0:01.996',-0.3
'0:02.000',-0.95
'0:02.004',-1.26
'0:02.008',-1.48
'0:02.012',-1.79
'0:02.016',-2.06
'0:02.020',-2.14
'0:02.023',-2.01
'0:02.027',-1.84
'0:02.031',-1.87
'0:02.035',-1.9
'0:02.039',-1.9
'0:02.043',-1.28
'0:02.047',-0.58
'0:02.051',0.72
'0:02.055',2.83
'0:02.059',5.32
'0:02.063',7.56
'0:02.066',8.02
'0:02.070',5.83
'0:02.074',1.99
'0:02.078',-1.42
'0:02.082',-3.58
'0:02.086',-4.42
'0:02.090',-4.45
'0:02.094',-4.27
'0:02.098',-4.05
'0:02.102',-3.91
'0:02.105',-3.76
'0:02.109',-3.5
'0:02.113',-3.13
'0:02.117',-2.77
'0:02.121',-2.38
'0:02.125',-2.05
'0:02.129',-1.76
'0:02.133',-1.48
'0:02.137',-1.2
'0:02.141',-0.91
'0:02.145',-0.52
'0:02.148',-0.27
'0:02.152',-0.14
'0:02.156',-0.14
'0:02.160',-0.19
'0:02.164',-0.05
'0:02.168',0.18
'0:02.172',0.52
'0:02.176',0.92
'0:02.180',1.38
'0:02.184',1.9
'0:02.188',2.38
'0:02.191',2.76
'0:02.195',2.99
'0:02.199',3.23
'0:02.203',3.56
'0:02.207',3.92
'0:02.211',3.84
'0:02.215',3.3
'0:02.219',2.58
'0:02.223',2.03
'0:02.227',1.63
'0:02.230',1.16
'0:02.234',0.7
'0:02.238',0.28
'0:02.242',-0.18
'0:02.246',-0.45
'0:02.250',-0.53
'0:02.254',-0.51
'0:02.258',-0.48
'0:02.262',-0.42
'0:02.266',-0.15
'0:02.270',0.13
'0:02.273',0.36
'0:02.277',0.67
'0:02.281',1.03
'0:02.285',1.4
'0:02.289',1.49
'0:02.293',1.38
'0:02.297',1.34
'0:02.301',1.3
'0:02.305',1.13
'0:02.309',0.89
'0:02.313',0.68
'0:02.316',0.4
'0:02.320',0.04
'0:02.324',-0.35
'0:02.328',-0.67
'0:02.332',-0.84
'0:02.336',-1.09
'0:02.340',-1.14
'0:02.344',-1.02
'0:02.348',-0.88
'0:02.352',-0.78
'0:02.355',-0.75
'0:02.359',-0.7
'0:02.363',-0.37
'0:02.367',0.87
'0:02.371',3.08
'0:02.375',5.73
'0:02.379',8.2
'0:02.383',8.85
'0:02.387',6.77
'0:02.391',4.02
'0:02.395',0.36
'0:02.398',-1.95
'0:02.402',-3.32
'0:02.406',-4.18
'0:02.410',-4.57
'0:02.414',-4.52
'0:02.418',-3.83
'0:02.422',-2.88
'0:02.426',-2.26
'0:02.430',-2.07
'0:02.434',-2.23
'0:02.438',-2.36
'0:02.441',-2.19
'0:02.445',-1.96
'0:02.449',-1.44
'0:02.453',-0.54
'0:02.457',-0.21
'0:02.461',-0.53
'0:02.465',-0.43
'0:02.469',0.11
'0:02.473',-0.03
'0:02.477',-0.34
'0:02.480',0.2
'0:02.484',0.71
'0:02.488',0.27
'0:02.492',-0.21
'0:02.496',-0.15
'0:02.500',0
'0:02.504',0.14
'0:02.508',0.72
'0:02.512',1.39
'0:02.516',2.14
'0:02.520',3.46
'0:02.523',4.76
'0:02.527',4.71
'0:02.531',3.41
'0:02.535',2.5
'0:02.539',2.41
'0:02.543',2.02
'0:02.547',1.99
'0:02.551',2.16
'0:02.555',1.59
'0:02.559',0.67
'0:02.563',-0.12
'0:02.566',-0.7
'0:02.570',-1.43
'0:02.574',-1.76
'0:02.578',-1.68
'0:02.582',-1.39
'0:02.586',-1.3
'0:02.590',-0.98
'0:02.594',-0.5
'0:02.598',-0.2
'0:02.602',0.08
'0:02.605',0.18
'0:02.609',0.25
'0:02.613',0.5
'0:02.617',1.17
'0:02.621',1.68
'0:02.625',1.17
'0:02.629',0.23
'0:02.633',-0.19
'0:02.637',0.09
'0:02.641',-0.09
'0:02.645',-1.19
'0:02.648',-2.26
'0:02.652',-2.74
'0:02.656',-2.76
'0:02.660',-2.52
'0:02.664',-2.46
'0:02.668',-2.32
'0:02.672',-0.97
'0:02.676',1.37
'0:02.680',1.45
'0:02.684',0.21
'0:02.688',0.17
'0:02.691',2.13
'0:02.695',4.67
'0:02.699',5.96
'0:02.703',4.85
'0:02.707',2.11
'0:02.711',-0.74
'0:02.715',-2.82
'0:02.719',-4.02
'0:02.723',-4.47
'0:02.727',-4.53
'0:02.730',-4.49
'0:02.734',-4.06
'0:02.738',-3.5
'0:02.742',-3.17
'0:02.746',-3.05
'0:02.750',-2.93
'0:02.754',-2.81
'0:02.758',-2.61
'0:02.762',-2.28
'0:02.766',-1.89
'0:02.770',-1.55
'0:02.773',-1.23
'0:02.777',-0.92
'0:02.781',-0.71
'0:02.785',-0.66
'0:02.789',-0.64
'0:02.793',-0.45
'0:02.797',-0.19
'0:02.801',0.09
'0:02.805',0.29
'0:02.809',0.48
'0:02.813',0.74
'0:02.816',1.11
'0:02.820',1.56
'0:02.824',1.95
'0:02.828',2.33
'0:02.832',2.6
'0:02.836',2.87
'0:02.840',3.07
'0:02.844',3.12
'0:02.848',2.96
'0:02.852',2.65
'0:02.855',2.31
'0:02.859',1.96
'0:02.863',1.6
'0:02.867',1.19
'0:02.871',0.79
'0:02.875',0.4
'0:02.879',0.11
'0:02.883',0.02
'0:02.887',-0.11
'0:02.891',-0.17
'0:02.895',-0.17
'0:02.898',-0.08
'0:02.902',0.09
'0:02.906',0.27
'0:02.910',0.32
'0:02.914',0.24
'0:02.918',0.2
'0:02.922',0.11
'0:02.926',-0.07
'0:02.930',-0.07
'0:02.934',-0.08
'0:02.938',0
'0:02.941',0
'0:02.945',-0.04
'0:02.949',-0.09
'0:02.953',-0.23
'0:02.957',-0.54
'0:02.961',-1
'0:02.965',-1.49
'0:02.969',-1.75
'0:02.973',-1.78
'0:02.977',-1.78
'0:02.980',-1.71
'0:02.984',-1.68
'0:02.988',-1.66
'0:02.992',-1.4
'0:02.996',-0.83
'0:03.000',0.06
'0:03.004',1.64
'0:03.008',3.96
'0:03.012',6.22
'0:03.016',6.76
'0:03.020',4.97
'0:03.023',1.73
'0:03.027',-1.06
'0:03.031',-2.69
'0:03.035',-3.6
'0:03.039',-4.25
'0:03.043',-4.34
'0:03.047',-4.07
'0:03.051',-3.76
'0:03.055',-3.59
'0:03.059',-3.2
'0:03.063',-2.84
'0:03.066',-2.36
'0:03.070',-1.82
'0:03.074',-1.26
'0:03.078',-1.12
'0:03.082',-0.96
'0:03.086',-0.81
'0:03.090',-0.59
'0:03.094',-0.44
'0:03.098',-0.54
'0:03.102',-0.51
'0:03.105',-0.36
'0:03.109',-0.08
'0:03.113',0.21
'0:03.117',0.64
'0:03.121',1.48
'0:03.125',2.33
'0:03.129',1.99
'0:03.133',1.19
'0:03.137',1.55
'0:03.141',2.5
'0:03.145',2.65
'0:03.148',2.26
'0:03.152',2.54
'0:03.156',3.24
'0:03.160',3.4
'0:03.164',2.9
'0:03.168',2.57
'0:03.172',2.14
'0:03.176',1.39
'0:03.180',0.77
'0:03.184',0.51
'0:03.188',0.58
'0:03.191',0.5
'0:03.195',-0.05
'0:03.199',-0.36
'0:03.203',-0.06
'0:03.207',0.22
'0:03.211',-0.01
'0:03.215',-0.26
'0:03.219',-0.18
'0:03.223',0.45
'0:03.227',1.58
'0:03.230',2.07
'0:03.234',1.98
'0:03.238',1.48
'0:03.242',0.78
'0:03.246',0.42
'0:03.250',0.57
'0:03.254',1.25
'0:03.258',1.03
'0:03.262',0.45
'0:03.266',0.23
'0:03.270',-0.94
'0:03.273',-2.68
'0:03.277',-3.38
'0:03.281',-3.35
'0:03.285',-3.29
'0:03.289',-2.92
'0:03.293',-2.24
'0:03.297',-2.15
'0:03.301',-2.76
'0:03.305',-2.85
'0:03.309',-2.57
'0:03.313',-1.37
'0:03.316',0.93
'0:03.320',3.26
'0:03.324',4.43
'0:03.328',5.39
'0:03.332',4.9
'0:03.336',2.16
'0:03.340',-1.07
'0:03.344',-3.1
'0:03.348',-3.88
'0:03.352',-4.02
'0:03.355',-4.11
'0:03.359',-4.28
'0:03.363',-4.13
'0:03.367',-3.9
'0:03.371',-3.73
'0:03.375',-3.49
'0:03.379',-3.24
'0:03.383',-3.07
'0:03.387',-2.96
'0:03.391',-2.83
'0:03.395',-2.52
'0:03.398',-2.13
'0:03.402',-1.76
'0:03.406',-1.47
'0:03.410',-1.34
'0:03.414',-1.32
'0:03.418',-1.26
'0:03.422',-1.1
'0:03.426',-0.81
'0:03.430',-0.54
'0:03.434',-0.36
'0:03.438',0.08
'0:03.441',0.69
'0:03.445',1.07
'0:03.449',1.38
'0:03.453',1.72
'0:03.457',1.85
'0:03.461',1.92
'0:03.465',2.28
'0:03.469',2.65
'0:03.473',2.71
'0:03.477',2.29
'0:03.480',1.82
'0:03.484',1.75
'0:03.488',1.69
'0:03.492',1.52
'0:03.496',1.16
'0:03.500',0.72
'0:03.504',0.4
'0:03.508',0.02
'0:03.512',-0.3
'0:03.516',-0.31
'0:03.520',-0.12
'0:03.523',-0.04
'0:03.527',0.03
'0:03.531',0.12
'0:03.535',0.13
'0:03.539',0.24
'0:03.543',0.5
'0:03.547',0.7
'0:03.551',0.73
'0:03.555',0.6
'0:03.559',0.63
'0:03.563',0.65
'0:03.566',0.52
'0:03.570',0.26
'0:03.574',-0.08
'0:03.578',-0.49
'0:03.582',-0.88
'0:03.586',-1.2
'0:03.590',-1.47
'0:03.594',-1.65
'0:03.598',-1.78
'0:03.602',-1.85
'0:03.605',-1.88
'0:03.609',-2
'0:03.613',-2.02
'0:03.617',-1.88
'0:03.621',-1.38
'0:03.625',-0.68
'0:03.629',0.42
'0:03.633',2.06
'0:03.637',4.23
'0:03.641',6.39
'0:03.645',7.12
'0:03.648',5.54
'0:03.652',2.34
'0:03.656',-0.71
'0:03.660',-2.6
'0:03.664',-3.44
'0:03.668',-3.7
'0:03.672',-3.82
'0:03.676',-3.87
'0:03.680',-3.76
'0:03.684',-3.51
'0:03.688',-3.18
'0:03.691',-2.84
'0:03.695',-2.56
'0:03.699',-2.42
'0:03.703',-2.19
'0:03.707',-2
'0:03.711',-1.86
'0:03.715',-1.71
'0:03.719',-1.54
'0:03.723',-1.43
'0:03.727',-1.36
'0:03.730',-1.16
'0:03.734',-0.89
'0:03.738',-0.61
'0:03.742',-0.42
'0:03.746',-0.2
'0:03.750',-0.02
'0:03.754',0.22
'0:03.758',0.58
'0:03.762',1.01
'0:03.766',1.48
'0:03.770',1.91
'0:03.773',2.17
'0:03.777',2.38
'0:03.781',2.6
'0:03.785',2.8
'0:03.789',2.88
'0:03.793',2.86
'0:03.797',2.62
'0:03.801',2.35
'0:03.805',2.07
'0:03.809',1.58
'0:03.813',1.02
'0:03.816',0.48
'0:03.820',0.09
'0:03.824',-0.16
'0:03.828',-0.29
'0:03.832',-0.41
'0:03.836',-0.46
'0:03.840',-0.5
'0:03.844',-0.53
'0:03.848',-0.42
'0:03.852',-0.06
'0:03.855',0.36
'0:03.859',0.89
'0:03.863',1.19
'0:03.867',1.2
'0:03.871',1.1
'0:03.875',0.92
'0:03.879',0.37
'0:03.883',0.27
'0:03.887',0.36
'0:03.891',0.53
'0:03.895',0.51
'0:03.898',0.05
'0:03.902',-1.01
'0:03.906',-1.94
'0:03.910',-2.68
'0:03.914',-2.97
'0:03.918',-2.77
'0:03.922',-2.3
'0:03.926',-2.12
'0:03.930',-2.31
'0:03.934',-2.23
'0:03.938',-1.7
'0:03.941',-0.75
'0:03.945',0.95
'0:03.949',3.39
'0:03.953',6.11
'0:03.957',7.85
'0:03.961',7.51
'0:03.965',5.48
'0:03.969',2.68
'0:03.973',0.04
'0:03.977',-2.82
'0:03.980',-5.43
'0:03.984',-6.62
'0:03.988',-6.64
'0:03.992',-6.03
'0:03.996',-5.35
'0:04.000',-4.72
'0:04.004',-4.05
'0:04.008',-2.96
'0:04.012',-1.94
'0:04.016',-1.87
'0:04.020',-1.48
'0:04.023',-0.6
'0:04.027',-0.76
'0:04.031',-0.76
'0:04.035',-0.32
'0:04.039',-0.52
'0:04.043',-1.84
'0:04.047',-3.42
'0:04.051',-3.6
'0:04.055',-2.72
'0:04.059',-1.74
'0:04.063',-0.93
'0:04.066',-0.1
'0:04.070',0.87
'0:04.074',1.52
'0:04.078',1.61
'0:04.082',1.96
'0:04.086',2.49
'0:04.090',2.51
'0:04.094',3.6
'0:04.098',4.35
'0:04.102',3.02
'0:04.105',1.48
'0:04.109',0.67
'0:04.113',0.82
'0:04.117',0.8
'0:04.121',0.14
'0:04.125',-0.28
'0:04.129',-0.53
'0:04.133',-0.65
'0:04.137',-0.68
'0:04.141',-0.63
'0:04.145',-0.42
'0:04.148',-0.08
'0:04.152',-0.18
'0:04.156',-0.27
'0:04.160',-0.1
'0:04.164',-0.34
'0:04.168',-0.01
'0:04.172',2.08
'0:04.176',3.74
'0:04.180',2.74
'0:04.184',0.31
'0:04.188',-1.32
'0:04.191',-1.9
'0:04.195',-1.56
'0:04.199',-0.71
'0:04.203',-0.11
'0:04.207',-0.11
'0:04.211',-0.37
'0:04.215',-0.69
'0:04.219',-1.01
'0:04.223',-1.22
'0:04.227',-1.26
'0:04.230',-1.36
'0:04.234',-1.69
'0:04.238',-1.97
'0:04.242',-2.12
'0:04.246',-2.33
'0:04.250',-2.25
'0:04.254',-1.54
'0:04.258',-0.63
'0:04.262',0.75
'0:04.266',2.8
'0:04.270',5.23
'0:04.273',7.37
'0:04.277',7.83
'0:04.281',5.93
'0:04.285',2.49
'0:04.289',-0.59
'0:04.293',-2.38
'0:04.297',-3.2
'0:04.301',-3.57
'0:04.305',-3.64
'0:04.309',-3.56
'0:04.313',-3.35
'0:04.316',-3.03
'0:04.320',-2.66
'0:04.324',-2.35
'0:04.328',-2.09
'0:04.332',-1.88
'0:04.336',-1.66
'0:04.340',-1.39
'0:04.344',-1.2
'0:04.348',-1.03
'0:04.352',-0.88
'0:04.355',-0.64
'0:04.359',-0.4
'0:04.363',-0.24
'0:04.367',-0.13
'0:04.371',0.12
'0:04.375',0.39
'0:04.379',0.67
'0:04.383',0.95
'0:04.387',1.3
'0:04.391',1.63
'0:04.395',1.9
'0:04.398',2.2
'0:04.402',2.46
'0:04.406',2.77
'0:04.410',3.08
'0:04.414',3.31
'0:04.418',3.5
'0:04.422',3.67
'0:04.426',3.7
'0:04.430',3.52
'0:04.434',3.18
'0:04.438',2.77
'0:04.441',2.29
'0:04.445',1.84
'0:04.449',1.33
'0:04.453',0.8
'0:04.457',0.31
'0:04.461',-0.01
'0:04.465',-0.07
'0:04.469',0.02
'0:04.473',0.1
'0:04.477',0.05
'0:04.480',0.08
'0:04.484',0.21
'0:04.488',0.45
'0:04.492',0.78
'0:04.496',1.04
'0:04.500',1.24
'0:04.504',1.24
'0:04.508',1.16
'0:04.512',1.01
'0:04.516',0.93
'0:04.520',1.04
'0:04.523',1.1
'0:04.527',0.82
'0:04.531',0.11
'0:04.535',-0.7
'0:04.539',-1.28
'0:04.543',-1.6
'0:04.547',-1.84
'0:04.551',-1.97
'0:04.555',-1.9
'0:04.559',-1.82
'0:04.563',-1.73
'0:04.566',-1.55
'0:04.570',-1.09
'0:04.574',-0.39
'0:04.578',1.01
'0:04.582',3.14
'0:04.586',5.71
'0:04.590',7.72
'0:04.594',7.51
'0:04.598',4.86
'0:04.602',1.36
'0:04.605',-1.3
'0:04.609',-2.86
'0:04.613',-3.54
'0:04.617',-3.72
'0:04.621',-3.66
'0:04.625',-3.51
'0:04.629',-3.36
'0:04.633',-3.18
'0:04.637',-2.92
'0:04.641',-2.67
'0:04.645',-2.47
'0:04.648',-2.3
'0:04.652',-2.11
'0:04.656',-1.84
'0:04.660',-1.47
'0:04.664',-0.76
'0:04.668',0.28
'0:04.672',1.03
'0:04.676',0.7
'0:04.680',-0.12
'0:04.684',-0.28
'0:04.688',0.11
'0:04.691',0.22
'0:04.695',0.18
'0:04.699',0.06
'0:04.703',-0.26
'0:04.707',-0.34
'0:04.711',0.12
'0:04.715',0.88
'0:04.719',1.77
'0:04.723',3
'0:04.727',4
'0:04.730',4.22
'0:04.734',3.77
'0:04.738',3.35
'0:04.742',2.86
'0:04.746',2.19
'0:04.750',1.74
'0:04.754',1.82
'0:04.758',1.83
'0:04.762',1.32
'0:04.766',0.56
'0:04.770',0.4
'0:04.773',1.26
'0:04.777',2.13
'0:04.781',1.69
'0:04.785',0.66
'0:04.789',0.41
'0:04.793',0.75
'0:04.797',0.63
'0:04.801',-0.58
'0:04.805',-1.92
'0:04.809',-2.05
'0:04.813',-1.7
'0:04.816',-1.16
'0:04.820',-0.04
'0:04.824',1.02
'0:04.828',1.25
'0:04.832',1.37
'0:04.836',2.12
'0:04.840',2.19
'0:04.844',0.57
'0:04.848',-1.7
'0:04.852',-2.11
'0:04.855',-1.99
'0:04.859',-2.88
'0:04.863',-4.31
'0:04.867',-4.94
'0:04.871',-4.19
'0:04.875',-3.42
'0:04.879',-3.15
'0:04.883',-3.13
'0:04.887',-2.85
'0:04.891',-1.73
'0:04.895',-0.04
'0:04.898',2.16
'0:04.902',4.69
'0:04.906',6.42
'0:04.910',5.87
'0:04.914',2.92
'0:04.918',-0.3
'0:04.922',-2.2
'0:04.926',-2.27
'0:04.930',-3.73
'0:04.934',-4.77
'0:04.938',-4.97
'0:04.941',-4.9
'0:04.945',-4.54
'0:04.949',-4.04
'0:04.953',-3.66
'0:04.957',-3.49
'0:04.961',-3.09
'0:04.965',-1.89
'0:04.969',1.32
'0:04.973',2.89
'0:04.977',0.6
'0:04.980',-1.98
'0:04.984',-3.45
'0:04.988',-3.8
'0:04.992',-3.03
'0:04.996',-1.84
'0:05.000',-1.13
'0:05.004',-1.03
'0:05.008',-0.59
'0:05.012',0.21
'0:05.016',0.94
'0:05.020',1.14
'0:05.023',1.28
'0:05.027',1.71
'0:05.031',2.11
'0:05.035',2.27
'0:05.039',2.38
'0:05.043',2.71
'0:05.047',3.04
'0:05.051',3.12
'0:05.055',2.93
'0:05.059',2.74
'0:05.063',2.53
'0:05.066',2.14
'0:05.070',1.66
'0:05.074',1.54
'0:05.078',1.4
'0:05.082',1.15
'0:05.086',0.87
'0:05.090',0.58
'0:05.094',0.38
'0:05.098',0.23
'0:05.102',0.1
'0:05.105',0.1
'0:05.109',0.14
'0:05.113',0.32
'0:05.117',0.54
'0:05.121',0.65
'0:05.125',0.59
'0:05.129',0.29
'0:05.133',-0.04
'0:05.137',-0.28
'0:05.141',-0.44
'0:05.145',-0.53
'0:05.148',-0.56
'0:05.152',-0.6
'0:05.156',-0.82
'0:05.160',-1.09
'0:05.164',-1.26
'0:05.168',-1.41
'0:05.172',-1.55
'0:05.176',-1.7
'0:05.180',-1.89
'0:05.184',-2.09
'0:05.188',-2.17
'0:05.191',-2.18
'0:05.195',-1.89
'0:05.199',-1.2
'0:05.203',-0.23
'0:05.207',1.21
'0:05.211',2.91
'0:05.215',4.98
'0:05.219',6.16
'0:05.223',5.13
'0:05.227',2.56
'0:05.230',-0.16
'0:05.234',-2.06
'0:05.238',-3.09
'0:05.242',-3.55
'0:05.246',-3.47
'0:05.250',-3.24
'0:05.254',-3.14
'0:05.258',-3
'0:05.262',-2.69
'0:05.266',-2.26
'0:05.270',-1.8
'0:05.273',-1.43
'0:05.277',-1.13
'0:05.281',-0.98
'0:05.285',-0.83
'0:05.289',-0.83
'0:05.293',-0.87
'0:05.297',-0.85
'0:05.301',-0.67
'0:05.305',-0.35
'0:05.309',-0.1
'0:05.313',0.07
'0:05.316',0.19
'0:05.320',0.34
'0:05.324',0.57
'0:05.328',0.87
'0:05.332',1.18
'0:05.336',1.45
'0:05.340',1.74
'0:05.344',2.09
'0:05.348',2.29
'0:05.352',2.43
'0:05.355',2.58
'0:05.359',2.73
'0:05.363',2.76
'0:05.367',2.64
'0:05.371',2.48
'0:05.375',2.37
'0:05.379',2.15
'0:05.383',1.95
'0:05.387',1.69
'0:05.391',1.19
'0:05.395',0.4
'0:05.398',-0.13
'0:05.402',-0.32
'0:05.406',-0.13
'0:05.410',0.51
'0:05.414',0.74
'0:05.418',-0.15
'0:05.422',-1.03
'0:05.426',-1.01
'0:05.430',-0.4
'0:05.434',0
'0:05.438',0.22
'0:05.441',0.23
'0:05.445',0.2
'0:05.449',0.43
'0:05.453',0.56
'0:05.457',0.47
'0:05.461',-0.07
'0:05.465',-1.01
'0:05.469',-1.6
'0:05.473',-1.59
'0:05.477',-1.58
'0:05.480',-1.7
'0:05.484',-1.36
'0:05.488',-0.52
'0:05.492',0.07
'0:05.496',-0.17
'0:05.500',-0.93
'0:05.504',-1.37
'0:05.508',-2.07
'0:05.512',-2.58
'0:05.516',-1.96
'0:05.520',-1.9
'0:05.523',-1.9
'0:05.527',5.45
'0:05.531',7.08
'0:05.535',7.16
'0:05.539',5.49
'0:05.543',2.42
'0:05.547',-0.75
'0:05.551',-3.46
'0:05.555',-5.17
'0:05.559',-5.96
'0:05.563',-5.82
'0:05.566',-5.07
'0:05.570',-4.22
'0:05.574',-3.56
'0:05.578',-2.82
'0:05.582',-2.6
'0:05.586',-2.71
'0:05.590',-2.4
'0:05.594',-2.11
'0:05.598',-1.21
'0:05.602',-0.07
'0:05.605',-0.07
'0:05.609',-0.96
'0:05.613',-2.01
'0:05.617',-2.5
'0:05.621',-2.28
'0:05.625',-2.15
'0:05.629',-1.81
'0:05.633',-1.14
'0:05.637',-0.19
'0:05.641',0.13
'0:05.645',0.12
'0:05.648',0.5
'0:05.652',1.15
'0:05.656',1.73
'0:05.660',2.16
'0:05.664',2.5
'0:05.668',2.77
'0:05.672',3.09
'0:05.676',3.2
'0:05.680',2.82
'0:05.684',2.35
'0:05.688',2.15
'0:05.691',2.42
'0:05.695',3.2
'0:05.699',3.05
'0:05.703',1.94
'0:05.707',1.12
'0:05.711',0.45
'0:05.715',-0.8
'0:05.719',-1.75
'0:05.723',-2.07
'0:05.727',-1.94
'0:05.730',-1.58
'0:05.734',-1.13
'0:05.738',-0.67
'0:05.742',-0.42
'0:05.746',-0.11
'0:05.750',0.22
'0:05.754',0.3
'0:05.758',0.38
'0:05.762',0.48
'0:05.766',0.49
'0:05.770',0.55
'0:05.773',0.59
'0:05.777',0.33
'0:05.781',-0.01
'0:05.785',-0.51
'0:05.789',-1.03
'0:05.793',-1.47
'0:05.797',-1.74
'0:05.801',-1.83
'0:05.805',-1.91
'0:05.809',-2.02
'0:05.813',-2.13
'0:05.816',-2.22
'0:05.820',-2.24
'0:05.824',-2.07
'0:05.828',-1.55
'0:05.832',-0.53
'0:05.836',1.06
'0:05.840',3.13
'0:05.844',5.72
'0:05.848',7.91
'0:05.852',7.89
'0:05.855',5.17
'0:05.859',1.38
'0:05.863',-1.66
'0:05.867',-3.6
'0:05.871',-4.5
'0:05.875',-4.61
'0:05.879',-4.37
'0:05.883',-4.03
'0:05.887',-3.69
'0:05.891',-3.36
'0:05.895',-3.14
'0:05.898',-2.9
'0:05.902',-2.65
'0:05.906',-2.37
'0:05.910',-2.17
'0:05.914',-1.91
'0:05.918',-1.46
'0:05.922',-1.1
'0:05.926',-1.05
'0:05.930',-1
'0:05.934',-0.86
'0:05.938',-0.63
'0:05.941',-0.3
'0:05.945',0.14
'0:05.949',0.59
'0:05.953',0.88
'0:05.957',0.9
'0:05.961',0.92
'0:05.965',1.3
'0:05.969',1.88
'0:05.973',2.14
'0:05.977',2.27
'0:05.980',2.37
'0:05.984',2.47
'0:05.988',2.58
'0:05.992',2.63
'0:05.996',2.63
'0:06.000',2.45
'0:06.004',2.14
'0:06.008',1.84
'0:06.012',1.48
'0:06.016',1.13
'0:06.020',0.84
'0:06.023',0.64
'0:06.027',0.39
'0:06.031',0.18
'0:06.035',0.1
'0:06.039',0.05
'0:06.043',-0.09
'0:06.047',-0.28
'0:06.051',-0.31
'0:06.055',-0.11
'0:06.059',0.19
'0:06.063',0.48
'0:06.066',0.79
'0:06.070',1.09
'0:06.074',1.27
'0:06.078',1.29
'0:06.082',1.25
'0:06.086',1.13
'0:06.090',0.98
'0:06.094',0.71
'0:06.098',0.47
'0:06.102',0.23
'0:06.105',0.04
'0:06.109',-0.27
'0:06.113',-0.69
'0:06.117',-0.97
'0:06.121',-1.17
'0:06.125',-1.32
'0:06.129',-1.33
'0:06.133',-1.25
'0:06.137',-1.06
'0:06.141',-0.54
'0:06.145',0.33
'0:06.148',1.66
'0:06.152',3.11
'0:06.156',4.14
'0:06.160',5.2
'0:06.164',6.33
'0:06.168',5.98
'0:06.172',3.77
'0:06.176',0.71
'0:06.180',-1.54
'0:06.184',-1.92
'0:06.188',-1.92
'0:06.191',-3.28
'0:06.195',-2.26
'0:06.199',-1.22
'0:06.203',-1.37
'0:06.207',-2.56
'0:06.211',-3.56
'0:06.215',-4.11
'0:06.219',-4.01
'0:06.223',-3.34
'0:06.227',-2.32
'0:06.230',-1.56
'0:06.234',-1.34
'0:06.238',-1.39
'0:06.242',-1.29
'0:06.246',-1.01
'0:06.250',-0.64
'0:06.254',-0.14
'0:06.258',0.56
'0:06.262',1.18
'0:06.266',1.36
'0:06.270',2.43
'0:06.273',4.62
'0:06.277',4.41
'0:06.281',2.37
'0:06.285',1.59
'0:06.289',1.43
'0:06.293',1.01
'0:06.297',0.9
'0:06.301',1.16
'0:06.305',1.5
'0:06.309',2.01
'0:06.313',2.67
'0:06.316',2.71
'0:06.320',2.07
'0:06.324',1.83
'0:06.328',2.25
'0:06.332',2.44
'0:06.336',2.51
'0:06.340',1.92
'0:06.344',0.14
'0:06.348',-1.2
'0:06.352',-1.36
'0:06.355',-1.4
'0:06.359',-1.25
'0:06.363',-0.91
'0:06.367',-0.34
'0:06.371',0.72
'0:06.375',0.7
'0:06.379',-0.1
'0:06.383',-0.16
'0:06.387',0.67
'0:06.391',1.01
'0:06.395',0.46
'0:06.398',-0.12
'0:06.402',-0.51
'0:06.406',-0.56
'0:06.410',-0.41
'0:06.414',-0.33
'0:06.418',-0.11
'0:06.422',0.2
'0:06.426',-0.33
'0:06.430',-1.38
'0:06.434',-1.98
'0:06.438',-2.28
'0:06.441',-2.6
'0:06.445',-2.78
'0:06.449',-2.77
'0:06.453',-2.61
'0:06.457',-2.28
'0:06.461',-1.51
'0:06.465',-0.19
'0:06.469',1.72
'0:06.473',3.88
'0:06.477',6.19
'0:06.480',7.75
'0:06.484',6.84
'0:06.488',3.63
'0:06.492',0.2
'0:06.496',-2.01
'0:06.500',-3.14
'0:06.504',-3.71
'0:06.508',-3.96
'0:06.512',-4.04
'0:06.516',-3.99
'0:06.520',-3.75
'0:06.523',-3.53
'0:06.527',-3.53
'0:06.531',-3.03
'0:06.535',-2.45
'0:06.539',-2.01
'0:06.543',-1.64
'0:06.547',-1.49
'0:06.551',-1.32
'0:06.555',-0.98
'0:06.559',-0.6
'0:06.563',-0.23
'0:06.566',-0.04
'0:06.570',-0.06
'0:06.574',-0.14
'0:06.578',-0.19
'0:06.582',-0.17
'0:06.586',0.04
'0:06.590',0.48
'0:06.594',0.96
'0:06.598',1.28
'0:06.602',1.47
'0:06.605',1.64
'0:06.609',1.94
'0:06.613',2.24
'0:06.617',2.41
'0:06.621',2.5
'0:06.625',2.56
'0:06.629',2.6
'0:06.633',2.47
'0:06.637',2.26
'0:06.641',1.96
'0:06.645',1.62
'0:06.648',1.3
'0:06.652',0.98
'0:06.656',0.62
'0:06.660',0.31
'0:06.664',0.04
'0:06.668',-0.11
'0:06.672',-0.21
'0:06.676',-0.19
'0:06.680',-0.17
'0:06.684',-0.17
'0:06.688',-0.12
'0:06.691',-0.05
'0:06.695',0.17
'0:06.699',0.37
'0:06.703',0.4
'0:06.707',0.35
'0:06.711',0.37
'0:06.715',0.25
'0:06.719',0.22
'0:06.723',0.3
'0:06.727',0.18
'0:06.730',-0.08
'0:06.734',-0.45
'0:06.738',-0.89
'0:06.742',-1.28
'0:06.746',-1.36
'0:06.750',-1.34
'0:06.754',-1.5
'0:06.758',-1.93
'0:06.762',-2.18
'0:06.766',-2.29
'0:06.770',-2.18
'0:06.773',-1.81
'0:06.777',-1.14
'0:06.781',0.12
'0:06.785',2.17
'0:06.789',4.62
'0:06.793',6.47
'0:06.797',6.37
'0:06.801',4.16
'0:06.805',1.05
'0:06.809',-1.45
'0:06.813',-2.94
'0:06.816',-3.67
'0:06.820',-3.96
'0:06.824',-3.86
'0:06.828',-3.68
'0:06.832',-3.48
'0:06.836',-3.04
'0:06.840',-2.41
'0:06.844',-2.01
'0:06.848',-1.86
'0:06.852',-1.69
'0:06.855',-1.58
'0:06.859',-1.5
'0:06.863',-1.31
'0:06.867',-1.22
'0:06.871',-1.07
'0:06.875',-1
'0:06.879',-0.88
'0:06.883',-0.47
'0:06.887',-0.21
'0:06.891',-0.31
'0:06.895',-0.37
'0:06.898',0.03
'0:06.902',0.89
'0:06.906',1.78
'0:06.910',2.26
'0:06.914',2.46
'0:06.918',2.6
'0:06.922',2.77
'0:06.926',2.76
'0:06.930',2.19
'0:06.934',1.67
'0:06.938',1.6
'0:06.941',2.27
'0:06.945',3.13
'0:06.949',3.32
'0:06.953',2.59
'0:06.957',1.75
'0:06.961',1.19
'0:06.965',0.71
'0:06.969',0.59
'0:06.973',0.81
'0:06.977',0.53
'0:06.980',0.19
'0:06.984',0.26
'0:06.988',0.9
'0:06.992',1.43
'0:06.996',1.03
'0:07.000',-0.04
'0:07.004',-0.62
'0:07.008',-0.52
'0:07.012',-0.26
'0:07.016',0.11
'0:07.020',0.58
'0:07.023',0.96
'0:07.027',1.61
'0:07.031',1.87
'0:07.035',1.27
'0:07.039',0.81
'0:07.043',1.6
'0:07.047',2.6
'0:07.051',1.21
'0:07.055',-0.92
'0:07.059',-2.07
'0:07.063',-3.37
'0:07.066',-4.16
'0:07.070',-3.91
'0:07.074',-3.87
'0:07.078',-4.02
'0:07.082',-4.04
'0:07.086',-3.79
'0:07.090',-3
'0:07.094',-1.74
'0:07.098',0.19
'0:07.102',2.51
'0:07.105',5.07
'0:07.109',7.03
'0:07.113',6.39
'0:07.117',3.62
'0:07.121',0.5
'0:07.125',-1.59
'0:07.129',-2.71
'0:07.133',-4.85
'0:07.137',-6.49
'0:07.141',-6.68
'0:07.145',-6.13
'0:07.148',-5.33
'0:07.152',-4.49
'0:07.156',-3.87
'0:07.160',-3.42
'0:07.164',-2.98
'0:07.168',-2.59
'0:07.172',-2.29
'0:07.176',-2.1
'0:07.180',-1.75
'0:07.184',-1.25
'0:07.188',-1
'0:07.191',-0.92
'0:07.195',-0.95
'0:07.199',-0.99
'0:07.203',-0.93
'0:07.207',-0.81
'0:07.211',-0.66
'0:07.215',-0.4
'0:07.219',0.18
'0:07.223',1.04
'0:07.227',1.81
'0:07.230',1.86
'0:07.234',1.42
'0:07.238',1.34
'0:07.242',1.58
'0:07.246',2.14
'0:07.250',2.49
'0:07.254',2.44
'0:07.258',2.39
'0:07.262',2.27
'0:07.266',2.06
'0:07.270',1.82
'0:07.273',1.31
'0:07.277',0.87
'0:07.281',0.72
'0:07.285',0.8
'0:07.289',0.74
'0:07.293',0.36
'0:07.297',0.06
'0:07.301',-0.04
'0:07.305',-0.29
'0:07.309',-0.55
'0:07.313',-0.44
'0:07.316',-0.24
'0:07.320',0.16
'0:07.324',0.56
'0:07.328',0.8
'0:07.332',0.81
'0:07.336',0.69
'0:07.340',0.59
'0:07.344',0.35
'0:07.348',0.15
'0:07.352',0.1
'0:07.355',0.03
'0:07.359',-0.37
'0:07.363',-0.91
'0:07.367',-0.92
'0:07.371',-0.92
'0:07.375',-0.92
'0:07.379',-0.92
'0:07.383',-0.92
'0:07.387',-1.73
'0:07.391',-2.05
'0:07.395',-1.98
'0:07.398',-1.71
'0:07.402',-1.11
'0:07.406',-0.15
'0:07.410',1.32
'0:07.414',3.29
'0:07.418',5.5
'0:07.422',6.67
'0:07.426',5.65
'0:07.430',3
'0:07.434',0
'0:07.438',-2.1
'0:07.441',-3.14
'0:07.445',-3.36
'0:07.449',-3.12
'0:07.453',-2.95
'0:07.457',-2.93
'0:07.461',-3.02
'0:07.465',-2.97
'0:07.469',-2.8
'0:07.473',-2.53
'0:07.477',-2.37
'0:07.480',-2.29
'0:07.484',-2.07
'0:07.488',-1.72
'0:07.492',-1.29
'0:07.496',-1.03
'0:07.500',-0.88
'0:07.504',-0.71
'0:07.508',-0.46
'0:07.512',-0.34
'0:07.516',-0.31
'0:07.520',-0.24
'0:07.523',-0.08
'0:07.527',0.12
'0:07.531',0.41
'0:07.535',0.74
'0:07.539',1.11
'0:07.543',1.44
'0:07.547',1.77
'0:07.551',2.13
'0:07.555',2.44
'0:07.559',2.77
'0:07.563',3.09
'0:07.566',3.19
'0:07.570',3.12
'0:07.574',3.02
'0:07.578',2.82
'0:07.582',2.47
'0:07.586',2.46
'0:07.590',2.46
'0:07.594',0.84
'0:07.598',0.24
'0:07.602',-0.19
'0:07.605',-0.2
'0:07.609',0.05
'0:07.613',0.38
'0:07.617',0.94
'0:07.621',0.99
'0:07.625',0.2
'0:07.629',-0.37
'0:07.633',-0.32
'0:07.637',0.11
'0:07.641',0.37
'0:07.645',0.33
'0:07.648',0.79
'0:07.652',1.29
'0:07.656',0.65
'0:07.660',-0.34
'0:07.664',-0.78
'0:07.668',-0.77
'0:07.672',-0.57
'0:07.676',0.15
'0:07.680',0.67
'0:07.684',0.1
'0:07.688',-0.7
'0:07.691',-0.96
'0:07.695',-1.42
'0:07.699',-2.67
'0:07.703',-3.55
'0:07.707',-3.82
'0:07.711',-3.59
'0:07.715',-2.97
'0:07.719',-1.96
'0:07.723',-0.15
'0:07.727',2.44
'0:07.730',5.29
'0:07.734',7.39
'0:07.738',7.92
'0:07.742',6.08
'0:07.746',2.43
'0:07.750',-1.16
'0:07.754',-3.77
'0:07.758',-4.88
'0:07.762',-4.48
'0:07.766',-3.81
'0:07.770',-3.85
'0:07.773',-4.12
'0:07.777',-3.51
'0:07.781',-2.45
'0:07.785',-2.68
'0:07.789',-3.82
'0:07.793',-4.21
'0:07.797',-3.96
'0:07.801',-3.64
'0:07.805',-3.25
'0:07.809',-2.04
'0:07.813',-0.3
'0:07.816',-0.04
'0:07.820',-1.23
'0:07.824',-2.23
'0:07.828',-2.06
'0:07.832',-1.09
'0:07.836',-0.26
'0:07.840',0.38
'0:07.844',0.52
'0:07.848',0.33
'0:07.852',0.64
'0:07.855',1.37
'0:07.859',1.82
'0:07.863',2.09
'0:07.867',2.1
'0:07.871',1.46
'0:07.875',0.89
'0:07.879',0.81
'0:07.883',1.04
'0:07.887',1.31
'0:07.891',1.39
'0:07.895',1.54
'0:07.898',1.89
'0:07.902',2.24
'0:07.906',1.7
'0:07.910',0.52
'0:07.914',-0.37
'0:07.918',-0.73
'0:07.922',-0.71
'0:07.926',-0.4
'0:07.930',0.11
'0:07.934',0.39
'0:07.938',0.09
'0:07.941',-0.21
'0:07.945',-0.12
'0:07.949',0.25
'0:07.953',0.67
'0:07.957',1.2
'0:07.961',2.38
'0:07.965',3.44
'0:07.969',2.85
'0:07.973',1.43
'0:07.977',0.18
'0:07.980',-0.69
'0:07.984',-1.16
'0:07.988',-1.29
'0:07.992',-1.15
'0:07.996',-1.12
'0:08.000',-1.26
'0:08.004',-1.54
'0:08.008',-1.79
'0:08.012',-1.68
'0:08.016',-1.41
'0:08.020',-1.26
'0:08.023',-1.27
'0:08.027',-1.27
'0:08.031',-1.01
'0:08.035',0.12
'0:08.039',2.08
'0:08.043',4.54
'0:08.047',7.05
'0:08.051',8.42
'0:08.055',7.48
'0:08.059',4.52
'0:08.063',0.96
'0:08.066',-1.72
'0:08.070',-3.16
'0:08.074',-3.76
'0:08.078',-3.96
'0:08.082',-3.9
'0:08.086',-3.61
'0:08.090',-3.2
'0:08.094',-3
'0:08.098',-2.87
'0:08.102',-2.73
'0:08.105',-2.56
'0:08.109',-2.29
'0:08.113',-2.03
'0:08.117',-1.78
'0:08.121',-1.52
'0:08.125',-1.34
'0:08.129',-1.34
'0:08.133',-1.34
'0:08.137',-1.34
'0:08.141',-1.34
'0:08.145',-1.34
'0:08.148',-1.34
'0:08.152',-1.34
'0:08.156',-1.34
'0:08.160',-1.34
'0:08.164',1.12
'0:08.168',1.39
'0:08.172',1.82
'0:08.176',2.23
'0:08.180',2.62
'0:08.184',3.04
'0:08.188',3.37
'0:08.191',3.58
'0:08.195',3.67
'0:08.199',3.68
'0:08.203',3.63
'0:08.207',3.52
'0:08.211',3.27
'0:08.215',2.88
'0:08.219',2.4
'0:08.223',1.84
'0:08.227',1.4
'0:08.230',1.04
'0:08.234',0.64
'0:08.238',0.14
'0:08.242',-0.16
'0:08.246',-0.29
'0:08.250',-0.25
'0:08.254',-0.1
'0:08.258',0.09
'0:08.262',0.29
'0:08.266',0.48
'0:08.270',0.64
'0:08.273',0.75
'0:08.277',0.82
'0:08.281',0.88
'0:08.285',0.83
'0:08.289',0.6
'0:08.293',0.26
'0:08.297',0.22
'0:08.301',-0.48
'0:08.305',-0.84
'0:08.309',-1.16
'0:08.313',-1.36
'0:08.316',-1.5
'0:08.320',-1.58
'0:08.324',-1.65
'0:08.328',-1.82
'0:08.332',-1.99
'0:08.336',-2.12
'0:08.340',-1.89
'0:08.344',-1.26
'0:08.348',-0.34
'0:08.352',1.18
'0:08.355',3.43
'0:08.359',6.06
'0:08.363',8
'0:08.367',7.51
'0:08.371',4.68
'0:08.375',0.99
'0:08.379',-1.89
'0:08.383',-3.52
'0:08.387',-4.13
'0:08.391',-4.17
'0:08.395',-3.86
'0:08.398',-3.4
'0:08.402',-2.89
'0:08.406',-2.28
'0:08.410',-1.34
'0:08.414',-0.74
'0:08.418',-1.07
'0:08.422',-2.02
'0:08.426',-2.69
'0:08.430',-2.73
'0:08.434',-2.47
'0:08.438',-2.2
'0:08.441',-2.05
'0:08.445',-1.84
'0:08.449',-1.19
'0:08.453',-0.31
'0:08.457',0.56
'0:08.461',0.5
'0:08.465',-0.11
'0:08.469',-0.04
'0:08.473',0.52
'0:08.477',0.82
'0:08.480',1.21
'0:08.484',1.81
'0:08.488',2.21
'0:08.492',2.29
'0:08.496',2.93
'0:08.500',3.9
'0:08.504',3.84
'0:08.508',3.74
'0:08.512',4.68
'0:08.516',4.84
'0:08.520',3.29
'0:08.523',2.07
'0:08.527',1.56
'0:08.531',0.33
'0:08.535',-0.73
'0:08.539',-1.16
'0:08.543',-1.11
'0:08.547',-0.79
'0:08.551',-0.61
'0:08.555',-0.6
'0:08.559',-0.65
'0:08.563',-0.58
'0:08.566',-0.12
'0:08.570',0.76
'0:08.574',0.9
'0:08.578',0.48
'0:08.582',0.48
'0:08.586',0.96
'0:08.590',0.96
'0:08.594',0.54
'0:08.598',0.58
'0:08.602',0.58
'0:08.605',0.59
'0:08.609',0.59
'0:08.613',0.58
'0:08.617',-0.34
'0:08.621',-1.07
'0:08.625',-2.14
'0:08.629',-2.74
'0:08.633',-2.99
'0:08.637',-3.16
'0:08.641',-3.14
'0:08.645',-2.9
'0:08.648',-2.61
'0:08.652',-2.16
'0:08.656',-1.44
'0:08.660',-0.75
'0:08.664',0.24
'0:08.668',2.21
'0:08.672',4.98
'0:08.676',7.24
'0:08.680',7.09
'0:08.684',4.37
'0:08.688',0.58
'0:08.691',-2.25
'0:08.695',-3.99
'0:08.699',-4.88
'0:08.703',-4.98
'0:08.707',-4.55
'0:08.711',-4.26
'0:08.715',-4.03
'0:08.719',-3.66
'0:08.723',-3.49
'0:08.727',-3.43
'0:08.730',-3.2
'0:08.734',-2.83
'0:08.738',-2.5
'0:08.742',-2.29
'0:08.746',-2.02
'0:08.750',-1.48
'0:08.754',-1.1
'0:08.758',-0.81
'0:08.762',-0.73
'0:08.766',-0.78
'0:08.770',-0.7
'0:08.773',-0.54
'0:08.777',-0.54
'0:08.781',-0.42
'0:08.785',0.28
'0:08.789',0.92
'0:08.793',1.24
'0:08.797',1.41
'0:08.801',1.75
'0:08.805',2.11
'0:08.809',2.41
'0:08.813',2.66
'0:08.816',2.63
'0:08.820',2.77
'0:08.824',2.99
'0:08.828',3.03
'0:08.832',2.93
'0:08.836',2.82
'0:08.840',2.59
'0:08.844',2.06
'0:08.848',1.48
'0:08.852',0.98
'0:08.855',0.6
'0:08.859',0.27
'0:08.863',-0.06
'0:08.867',-0.24
'0:08.871',-0.23
'0:08.875',-0.02
'0:08.879',0
'0:08.883',0.05
'0:08.887',0.26
'0:08.891',0.43
'0:08.895',0.56
'0:08.898',0.52
'0:08.902',0.51
'0:08.906',0.58
'0:08.910',0.88
'0:08.914',1.05
'0:08.918',1.03
'0:08.922',0.98
'0:08.926',0.38
'0:08.930',-0.2
'0:08.934',-0.64
'0:08.938',-0.82
'0:08.941',-1.15
'0:08.945',-1.62
'0:08.949',-1.84
'0:08.953',-1.9
'0:08.957',-1.93
'0:08.961',-1.95
'0:08.965',-1.95
'0:08.969',-1.94
'0:08.973',-1.95
'0:08.977',-1.95
'0:08.980',0.48
'0:08.984',2.48
'0:08.988',4.67
'0:08.992',6.15
'0:08.996',5.59
'0:09.000',3.12
'0:09.004',0.1
'0:09.008',-2.03
'0:09.012',-3.22
'0:09.016',-3.63
'0:09.020',-3.56
'0:09.023',-3.41
'0:09.027',-3.27
'0:09.031',-3.1
'0:09.035',-2.88
'0:09.039',-2.66
'0:09.043',-2.42
'0:09.047',-2.08
'0:09.051',-1.73
'0:09.055',-1.37
'0:09.059',-1.04
'0:09.063',-0.73
'0:09.066',-0.51
'0:09.070',-0.44
'0:09.074',-0.42
'0:09.078',-0.36
'0:09.082',-0.27
'0:09.086',-0.1
'0:09.090',0.17
'0:09.094',0.54
'0:09.098',0.99
'0:09.102',1.31
'0:09.105',1.58
'0:09.109',1.88
'0:09.113',2.12
'0:09.117',2.42
'0:09.121',2.8
'0:09.125',3.09
'0:09.129',3.37
'0:09.133',3.5
'0:09.137',3.47
'0:09.141',3.3
'0:09.145',3.26
'0:09.148',3.52
'0:09.152',3.16
'0:09.156',1.79
'0:09.160',0.35
'0:09.164',-0.47
'0:09.168',-0.63
'0:09.172',-0.24
'0:09.176',-0.11
'0:09.180',-0.4
'0:09.184',-0.76
'0:09.188',-0.95
'0:09.191',-0.88
'0:09.195',-0.76
'0:09.199',-0.51
'0:09.203',-0.13
'0:09.207',0.33
'0:09.211',0.62
'0:09.215',0.57
'0:09.219',0.11
'0:09.223',-0.24
'0:09.227',0.02
'0:09.230',0.17
'0:09.234',-0.46
'0:09.238',-1.32
'0:09.242',-1.89
'0:09.246',-2.16
'0:09.250',-2.12
'0:09.254',-2.02
'0:09.258',-1.97
'0:09.262',-1.92
'0:09.266',-1.97
'0:09.270',-2.11
'0:09.273',-2.19
'0:09.277',-1.81
'0:09.281',-1.14
'0:09.285',-0.87
'0:09.289',-0.71
'0:09.293',0.92
'0:09.297',3.01
'0:09.301',3.99
'0:09.305',4.76
'0:09.309',4.96
'0:09.313',2.82
'0:09.316',-0.55
'0:09.320',-3.16
'0:09.324',-4.46
'0:09.328',-5.13
'0:09.332',-5.2
'0:09.336',-4.88
'0:09.340',-4.31
'0:09.344',-3.33
'0:09.348',-2.49
'0:09.352',-2.55
'0:09.355',-3.13
'0:09.359',-3.22
'0:09.363',-3.09
'0:09.367',-3.16
'0:09.371',-2.84
'0:09.375',-1.76
'0:09.379',-0.6
'0:09.383',-0.57
'0:09.387',-1.37
'0:09.391',-1.74
'0:09.395',-1.73
'0:09.398',-1.35
'0:09.402',-0.81
'0:09.406',-0.2
'0:09.410',0.45
'0:09.414',0.87
'0:09.418',1.03
'0:09.422',1.23
'0:09.426',1.53
'0:09.430',1.7
'0:09.434',1.85
'0:09.438',2.09
'0:09.441',2.36
'0:09.445',2.46
'0:09.449',2.46
'0:09.453',2.55
'0:09.457',2.58
'0:09.461',2.51
'0:09.465',2.33
'0:09.469',2.17
'0:09.473',1.84
'0:09.477',1.42
'0:09.480',0.89
'0:09.484',0.28
'0:09.488',-0.14
'0:09.492',-0.4
'0:09.496',-0.7
'0:09.500',-0.92
'0:09.504',-0.71
'0:09.508',-0.3
'0:09.512',0.04
'0:09.516',0.18
'0:09.520',0.34
'0:09.523',0.61
'0:09.527',0.66
'0:09.531',0.47
'0:09.535',0.28
'0:09.539',0.25
'0:09.543',0.25
'0:09.547',0.15
'0:09.551',-0.11
'0:09.555',-0.33
'0:09.559',-0.45
'0:09.563',-0.58
'0:09.566',-1
'0:09.570',-1.71
'0:09.574',-2.14
'0:09.578',-2.07
'0:09.582',-1.71
'0:09.586',-1.48
'0:09.590',-1.79
'0:09.594',-2.11
'0:09.598',-1.95
'0:09.602',-1.29
'0:09.605',-0.17
'0:09.609',1.51
'0:09.613',3.77
'0:09.617',6.16
'0:09.621',7.12
'0:09.625',5.75
'0:09.629',2.43
'0:09.633',-1
'0:09.637',-3.2
'0:09.641',-4.27
'0:09.645',-4.53
'0:09.648',-4.43
'0:09.652',-4.24
'0:09.656',-3.95
'0:09.660',-3.47
'0:09.664',-3.08
'0:09.668',-2.8
'0:09.672',-2.44
'0:09.676',-2.1
'0:09.680',-1.73
'0:09.684',-1.56
'0:09.688',-1.51
'0:09.691',-1.53
'0:09.695',-1.51
'0:09.699',-1.29
'0:09.703',-0.98
'0:09.707',-0.78
'0:09.711',-0.63
'0:09.715',-0.35
'0:09.719',0.02
'0:09.723',0.34
'0:09.727',0.46
'0:09.730',0.75
'0:09.734',0.99
'0:09.738',1.12
'0:09.742',1.5
'0:09.746',2.07
'0:09.750',2.36
'0:09.754',2.56
'0:09.758',2.7
'0:09.762',2.78
'0:09.766',2.67
'0:09.770',2.4
'0:09.773',2.02
'0:09.777',1.87
'0:09.781',1.69
'0:09.785',1.23
'0:09.789',0.63
'0:09.793',0.4
'0:09.797',0.26
'0:09.801',0.03
'0:09.805',-0.26
'0:09.809',-0.56
'0:09.813',-0.68
'0:09.816',-0.56
'0:09.820',-0.39
'0:09.824',-0.32
'0:09.828',-0.01
'0:09.832',0.22
'0:09.836',0.2
'0:09.840',0.29
'0:09.844',0.65
'0:09.848',0.83
'0:09.852',0.83
'0:09.855',0.64
'0:09.859',0.14
'0:09.863',-0.02
'0:09.867',-0.11
'0:09.871',-0.57
'0:09.875',-0.87
'0:09.879',-1.02
'0:09.883',-1.34
'0:09.887',-1.58
'0:09.891',-2.08
'0:09.895',-2.34
'0:09.898',-2.27
'0:09.902',-2.09
'0:09.906',-1.76
'0:09.910',-1.25
'0:09.914',-1.32
'0:09.918',-0.63
'0:09.922',1.52
'0:09.926',4.42
'0:09.930',7.37
'0:09.934',9.23
'0:09.938',9.54
'0:09.941',7.24
'0:09.945',3.02
'0:09.949',-0.77
'0:09.953',-3.64
'0:09.957',-5.26
'0:09.961',-5.84
'0:09.965',-5.59
'0:09.969',-4.7
'0:09.973',-4.14
'0:09.977',-4.12
'0:09.980',-3.93
'0:09.984',-3.47
'0:09.988',-3.1
'0:09.992',-2.29
'0:09.996',-1.14
'0:10.000',-0.58
'0:10.004',-0.44
'0:10.008',0.13
'0:10.012',0.12
'0:10.016',-1.33
'0:10.020',-2.63
'0:10.023',-2.81
'0:10.027',-2.28
'0:10.031',-1.7
'0:10.035',-1.44
'0:10.039',-1.14
'0:10.043',-0.57
'0:10.047',0.11
'0:10.051',0.74
'0:10.055',1.24
'0:10.059',1.62
'0:10.063',2.04
'0:10.066',3.21
'0:10.070',5.5
'0:10.074',7.12
'0:10.078',6.15
'0:10.082',4.1
'0:10.086',2.21
'0:10.090',0.55
'0:10.094',-0.42
'0:10.098',-0.58
'0:10.102',-0.77
'0:10.105',-0.86
'0:10.109',-0.56
'0:10.113',-0.31
'0:10.117',-0.33
'0:10.121',-0.58
'0:10.125',-0.75
'0:10.129',-0.59
'0:10.133',-0.27
'0:10.137',-0.03
'0:10.141',0.19
'0:10.145',0.26
'0:10.148',0.55
'0:10.152',1.01
'0:10.156',1.29
'0:10.160',1.34
'0:10.164',1.39
'0:10.168',1.67
'0:10.172',2
'0:10.176',2.05
'0:10.180',1.74
'0:10.184',1.45
'0:10.188',0.91
'0:10.191',0.24
'0:10.195',-0.68
'0:10.199',-1.49
'0:10.203',-2.01
'0:10.207',-2.08
'0:10.211',-1.52
'0:10.215',-0.79
'0:10.219',-0.58
'0:10.223',-1.11
'0:10.227',-1.6
'0:10.230',-1.44
'0:10.234',-0.63
'0:10.238',0.96
'0:10.242',3.03
'0:10.246',5.29
'0:10.250',6.97
'0:10.254',6.76
'0:10.258',4.34
'0:10.262',1.21
'0:10.266',-1.26
'0:10.270',-2.94
'0:10.273',-3.81
'0:10.277',-3.88
'0:10.281',-3.66
'0:10.285',-3.53
'0:10.289',-3.56
'0:10.293',-3.65
'0:10.297',-3.52
'0:10.301',-3.11
'0:10.305',-2.66
'0:10.309',-2.31
'0:10.313',-2.01
'0:10.316',-1.69
'0:10.320',-1.53
'0:10.324',-1.53
'0:10.328',-1.49
'0:10.332',-1.22
'0:10.336',-0.91
'0:10.340',-0.59
'0:10.344',-0.41
'0:10.348',-0.36
'0:10.352',-0.22
'0:10.355',0.04
'0:10.359',0.43
'0:10.363',0.89
'0:10.367',1.34
'0:10.371',1.79
'0:10.375',2.14
'0:10.379',2.41
'0:10.383',2.63
'0:10.387',2.75
'0:10.391',2.75
'0:10.395',2.73
'0:10.398',2.71
'0:10.402',2.57
'0:10.406',2.32
'0:10.410',2.03
'0:10.414',1.77
'0:10.418',1.54
'0:10.422',1.21
'0:10.426',0.74
'0:10.430',0.31
'0:10.434',0.08
'0:10.438',-0.04
'0:10.441',-0.03
'0:10.445',0.19
'0:10.449',0.46
'0:10.453',0.58
'0:10.457',0.59
'0:10.461',0.87
'0:10.465',1.03
'0:10.469',1.16
'0:10.473',1.24
'0:10.477',1.24
'0:10.480',1.17
'0:10.484',1.01
'0:10.488',0.78
'0:10.492',0.59
'0:10.496',0.4
'0:10.500',0.14
'0:10.504',-0.13
'0:10.508',-0.42
'0:10.512',-0.79
'0:10.516',-1.09
'0:10.520',-1.38
'0:10.523',-1.53
'0:10.527',-1.58
'0:10.531',-1.63
'0:10.535',-1.72
'0:10.539',-1.7
'0:10.543',-1.2
'0:10.547',-0.36
'0:10.551',0.99
'0:10.555',2.94
'0:10.559',5.4
'0:10.563',7.51
'0:10.566',7.6
'0:10.570',5.24
'0:10.574',1.55
'0:10.578',-1.35
'0:10.582',-3.08
'0:10.586',-3.91
'0:10.590',-4.23
'0:10.594',-4.4
'0:10.598',-4.44
'0:10.602',-4.24
'0:10.605',-3.83
'0:10.609',-3.37
'0:10.613',-3.08
'0:10.617',-2.73
'0:10.621',-2.68
'0:10.625',-2.68
'0:10.629',-2.68
'0:10.633',-2.68
'0:10.637',-2.68
'0:10.641',-2.68
'0:10.645',-2.68
'0:10.648',-0.97
'0:10.652',-0.78
'0:10.656',-0.73
'0:10.660',-0.75
'0:10.664',-0.73
'0:10.668',-0.57
'0:10.672',-0.27
'0:10.676',0.09
'0:10.680',0.48
'0:10.684',0.87
'0:10.688',1.3
'0:10.691',2.02
'0:10.695',3.21
'0:10.699',4.3
'0:10.703',4.43
'0:10.707',3.72
'0:10.711',3.77
'0:10.715',3.93
'0:10.719',3
'0:10.723',1.75
'0:10.727',0.59
'0:10.730',-0.29
'0:10.734',-0.37
'0:10.738',0.09
'0:10.742',0.37
'0:10.746',0.37
'0:10.750',0.2
'0:10.754',-0.02
'0:10.758',0.01
'0:10.762',0.05
'0:10.766',0.04
'0:10.770',-0.02
'0:10.773',0.15
'0:10.777',0.7
'0:10.781',1.99
'0:10.785',2.84
'0:10.789',2.13
'0:10.793',0.78
'0:10.797',0.23
'0:10.801',0.31
'0:10.805',0.81
'0:10.809',1.43
'0:10.813',1.47
'0:10.816',1.06
'0:10.820',0.57
'0:10.824',0.56
'0:10.828',-0.45
'0:10.832',-2.1
'0:10.836',-3.43
'0:10.840',-4
'0:10.844',-3.93
'0:10.848',-3.51
'0:10.852',-2.84
'0:10.855',-2.04
'0:10.859',-1.4
'0:10.863',-0.93
'0:10.867',0.61
'0:10.871',3.45
'0:10.875',5.79
'0:10.879',7.28
'0:10.883',7.05
'0:10.887',4.61
'0:10.891',1.15
'0:10.895',-1.67
'0:10.898',-2.95
'0:10.902',-3.71
'0:10.906',-4.14
'0:10.910',-3.66
'0:10.914',-3.93
'0:10.918',-5.04
'0:10.922',-5.5
'0:10.926',-4.92
'0:10.930',-3.96
'0:10.934',-3.41
'0:10.938',-3.17
'0:10.941',-2.98
'0:10.945',-2.85
'0:10.949',-2.72
'0:10.953',-2.44
'0:10.957',-2.08
'0:10.961',-1.78
'0:10.965',-1.63
'0:10.969',-1.56
'0:10.973',-1.46
'0:10.977',-1.46
'0:10.980',-0.72
'0:10.984',-0.2
'0:10.988',0
'0:10.992',0.29
'0:10.996',0.63
'0:11.000',1.06
'0:11.004',1.48
'0:11.008',1.74
'0:11.012',2.09
'0:11.016',2.34
'0:11.020',2.48
'0:11.023',2.63
'0:11.027',2.77
'0:11.031',2.75
'0:11.035',2.62
'0:11.039',2.5
'0:11.043',2.03
'0:11.047',1.3
'0:11.051',0.86
'0:11.055',0.52
'0:11.059',0.06
'0:11.063',-0.4
'0:11.066',-0.65
'0:11.070',-0.84
'0:11.074',-0.99
'0:11.078',-0.88
'0:11.082',-0.47
'0:11.086',-0.1
'0:11.090',0.25
'0:11.094',0.48
'0:11.098',0.78
'0:11.102',0.88
'0:11.105',0.79
'0:11.109',0.59
'0:11.113',0.35
'0:11.117',0.2
'0:11.121',0.07
'0:11.125',-0.02
'0:11.129',-0.31
'0:11.133',-0.67
'0:11.137',-1.07
'0:11.141',-1.52
'0:11.145',-1.75
'0:11.148',-1.85
'0:11.152',-1.99
'0:11.156',-2.24
'0:11.160',-2.43
'0:11.164',-2.44
'0:11.168',-2.32
'0:11.172',-1.98
'0:11.176',-1.43
'0:11.180',-0.56
'0:11.184',0.85
'0:11.188',2.93
'0:11.191',5.38
'0:11.195',6.93
'0:11.199',6.18
'0:11.203',3.22
'0:11.207',-0.17
'0:11.211',-2.67
'0:11.215',-3.99
'0:11.219',-4.46
'0:11.223',-4.46
'0:11.227',-4.39
'0:11.230',-4.31
'0:11.234',-4.01
'0:11.238',-3.76
'0:11.242',-3.49
'0:11.246',-3.29
'0:11.250',-3.26
'0:11.254',-2.91
'0:11.258',-2.38
'0:11.262',-1.91
'0:11.266',-1.47
'0:11.270',-1.2
'0:11.273',-1
'0:11.277',-0.66
'0:11.281',-0.18
'0:11.285',0.36
'0:11.289',0.5
'0:11.293',0.56
'0:11.297',1.11
'0:11.301',1.46
'0:11.305',1.63
'0:11.309',1.9
'0:11.313',2.1
'0:11.316',2.31
'0:11.320',2.63
'0:11.324',2.9
'0:11.328',3.23
'0:11.332',3.55
'0:11.336',3.76
'0:11.340',3.74
'0:11.344',3.56
'0:11.348',3.28
'0:11.352',2.92
'0:11.355',2.57
'0:11.359',2.25
'0:11.363',2.01
'0:11.367',1.73
'0:11.371',1.47
'0:11.375',1.17
'0:11.379',0.88
'0:11.383',0.75
'0:11.387',0.78
'0:11.391',0.95
'0:11.395',1.07
'0:11.398',1.07
'0:11.402',1.13
'0:11.406',1.19
'0:11.410',1.21
'0:11.414',1.21
'0:11.418',1.13
'0:11.422',0.86
'0:11.426',0.64
'0:11.430',0.52
'0:11.434',0.23
'0:11.438',-0.13
'0:11.441',-0.43
'0:11.445',-0.65
'0:11.449',-0.74
'0:11.453',-0.96
'0:11.457',-1.1
'0:11.461',-0.68
'0:11.465',-1.06
'0:11.469',-2.21
'0:11.473',-2.73
'0:11.477',-2.56
'0:11.480',-2.53
'0:11.484',-2.98
'0:11.488',-3.16
'0:11.492',-2.73
'0:11.496',-1.78
'0:11.500',0
'0:11.504',2.48
'0:11.508',4.62
'0:11.512',5.07
'0:11.516',3.33
'0:11.520',0.53
'0:11.523',-1.74
'0:11.527',-2.57
'0:11.531',-2.71
'0:11.535',-3.17
'0:11.539',-3.95
'0:11.543',-4.38
'0:11.547',-4.34
'0:11.551',-3.69
'0:11.555',-2.29
'0:11.559',-1.21
'0:11.563',-0.74
'0:11.566',-0.32
'0:11.570',-1
'0:11.574',-2.31
'0:11.578',-3.2
'0:11.582',-3.34
'0:11.586',-3.08
'0:11.590',-2.66
'0:11.594',-2.13
'0:11.598',-1.53
'0:11.602',-0.82
'0:11.605',-0.33
'0:11.609',-0.12
'0:11.613',0.26
'0:11.617',0.51
'0:11.621',0.54
'0:11.625',0.75
'0:11.629',1.5
'0:11.633',2.56
'0:11.637',2.74
'0:11.641',1.97
'0:11.645',1.54
'0:11.648',1.92
'0:11.652',2.27
'0:11.656',2.25
'0:11.660',2.01
'0:11.664',1.62
'0:11.668',1.27
'0:11.672',0.89
'0:11.676',0.52
'0:11.680',0.23
'0:11.684',0.16
'0:11.688',0.22
'0:11.691',0.81
'0:11.695',1.79
'0:11.699',1.33
'0:11.703',-0.11
'0:11.707',-1.01
'0:11.711',-1.2
'0:11.715',-1.02
'0:11.719',-0.92
'0:11.723',-0.71
'0:11.727',-0.36
'0:11.730',-0.26
'0:11.734',-0.22
'0:11.738',0
'0:11.742',0.2
'0:11.746',0.13
'0:11.750',-0.07
'0:11.754',-0.02
'0:11.758',0.12
'0:11.762',0.43
'0:11.766',0.28
'0:11.770',-1.07
'0:11.773',-2.25
'0:11.777',-2.91
'0:11.781',-3.04
'0:11.785',-2.95
'0:11.789',-2.76
'0:11.793',-2.8
'0:11.797',-2.88
'0:11.801',-2.42
'0:11.805',-1.71
'0:11.809',-0.9
'0:11.813',0.46
'0:11.816',2.28
'0:11.820',4.3
'0:11.824',5.88
'0:11.828',5.56
'0:11.832',3.44
'0:11.836',0.66
'0:11.840',-1.47
'0:11.844',-2.75
'0:11.848',-3.47
'0:11.852',-3.85
'0:11.855',-3.81
'0:11.859',-3.45
'0:11.863',-3.05
'0:11.867',-2.71
'0:11.871',-2.65
'0:11.875',-2.68
'0:11.879',-2.61
'0:11.883',-2.61
'0:11.887',-1.93
'0:11.891',-1.35
'0:11.895',-1.15
'0:11.898',-1.17
'0:11.902',-1.14
'0:11.906',-1.05
'0:11.910',-0.9
'0:11.914',-0.75
'0:11.918',-0.63
'0:11.922',-0.41
'0:11.926',-0.08
'0:11.930',0.29
'0:11.934',0.63
'0:11.938',0.92
'0:11.941',1.32
'0:11.945',1.77
'0:11.949',2.27
'0:11.953',2.77
'0:11.957',3.04
'0:11.961',3.17
'0:11.965',3.14
'0:11.969',3.22
'0:11.973',3.2
'0:11.977',2.9
'0:11.980',2.47
'0:11.984',2.06
'0:11.988',1.6
'0:11.992',1.02
'0:11.996',0.45
'0:12.000',0.06
'0:12.004',-0.18
'0:12.008',-0.22
'0:12.012',-0.24
'0:12.016',-0.24
'0:12.020',-0.21
'0:12.023',0.05
'0:12.027',0.6
'0:12.031',0.87
'0:12.035',0.85
'0:12.039',0.69
'0:12.043',0.57
'0:12.047',0.7
'0:12.051',0.83
'0:12.055',0.76
'0:12.059',0.38
'0:12.063',-0.11
'0:12.066',-0.45
'0:12.070',-0.72
'0:12.074',-1.06
'0:12.078',-1.36
'0:12.082',-1.62
'0:12.086',-1.9
'0:12.090',-2.1
'0:12.094',-2.07
'0:12.098',-1.95
'0:12.102',-2.02
'0:12.105',-2.23
'0:12.109',-2.36
'0:12.113',-2.34
'0:12.117',-1.89
'0:12.121',-1.11
'0:12.125',0.29
'0:12.129',2.35
'0:12.133',4.85
'0:12.137',6.93
'0:12.141',7.22
'0:12.145',5.2
'0:12.148',1.59
'0:12.152',-1.36
'0:12.156',-2.95
'0:12.160',-3.64
'0:12.164',-4.04
'0:12.168',-4.31
'0:12.172',-4.39
'0:12.176',-4.22
'0:12.180',-3.86
'0:12.184',-3.5
'0:12.188',-3.17
'0:12.191',-2.84
'0:12.195',-2.52
'0:12.199',-2.22
'0:12.203',-1.84
'0:12.207',-1.4
'0:12.211',-1.04
'0:12.215',-0.83
'0:12.219',-0.63
'0:12.223',-0.33
'0:12.227',-0.05
'0:12.230',0
'0:12.234',0.06
'0:12.238',0.33
'0:12.242',1.33
'0:12.246',2.59
'0:12.250',2.57
'0:12.254',1.48
'0:12.258',0.94
'0:12.262',1.42
'0:12.266',2.16
'0:12.270',2.34
'0:12.273',2.27
'0:12.277',2.07
'0:12.281',2.14
'0:12.285',2.63
'0:12.289',3.02
'0:12.293',2.98
'0:12.297',2.96
'0:12.301',2.74
'0:12.305',1.8
'0:12.309',0.55
'0:12.313',-0.49
'0:12.316',-1.06
'0:12.320',-1.22
'0:12.324',-1.63
'0:12.328',-1.99
'0:12.332',-1.64
'0:12.336',-0.96
'0:12.340',-0.21
'0:12.344',0.34
'0:12.348',0.65
'0:12.352',1.78
'0:12.355',2.58
'0:12.359',1.83
'0:12.363',1.6
'0:12.367',2.85
'0:12.371',2.98
'0:12.375',2.16
'0:12.379',1.48
'0:12.383',0.22
'0:12.387',-1.07
'0:12.391',-2.17
'0:12.395',-2.98
'0:12.398',-3.21
'0:12.402',-3.03
'0:12.406',-2.69
'0:12.410',-2.23
'0:12.414',-1.5
'0:12.418',-0.1
'0:12.422',0.68
'0:12.426',-0.35
'0:12.430',-1.64
'0:12.434',-1.16
'0:12.438',-0.54
'0:12.441',-0.12
'0:12.445',1.05
'0:12.449',3.41
'0:12.453',6.47
'0:12.457',7.16
'0:12.461',4.74
'0:12.465',1.26
'0:12.469',-1.24
'0:12.473',-1.76
'0:12.477',-1.81
'0:12.480',-3.26
'0:12.484',-4.37
'0:12.488',-4.58
'0:12.492',-3.83
'0:12.496',-3.01
'0:12.500',-3.26
'0:12.504',-3.65
'0:12.508',-3.56
'0:12.512',-3.15
'0:12.516',-2.64
'0:12.520',-2.31
'0:12.523',-2.05
'0:12.527',-1.64
'0:12.531',-1.18
'0:12.535',-0.81
'0:12.539',-0.61
'0:12.543',-0.56
'0:12.547',-0.47
'0:12.551',-0.36
'0:12.555',-0.12
'0:12.559',0.36
'0:12.563',0.75
'0:12.566',1.15
'0:12.570',1.65
'0:12.574',2.14
'0:12.578',2.36
'0:12.582',2.47
'0:12.586',2.68
'0:12.590',2.85
'0:12.594',3.05
'0:12.598',3.25
'0:12.602',3.22
'0:12.605',2.93
'0:12.609',2.58
'0:12.613',2.25
'0:12.617',1.91
'0:12.621',1.57
'0:12.625',1.23
'0:12.629',0.94
'0:12.633',0.76
'0:12.637',0.56
'0:12.641',0.37
'0:12.645',0.18
'0:12.648',0.15
'0:12.652',0.32
'0:12.656',0.5
'0:12.660',0.46
'0:12.664',0.49
'0:12.668',0.75
'0:12.672',1.09
'0:12.676',1.32
'0:12.680',1.36
'0:12.684',1.32
'0:12.688',1.2
'0:12.691',1.08
'0:12.695',0.86
'0:12.699',0.59
'0:12.703',0.39
'0:12.707',0.06
'0:12.711',-0.4
'0:12.715',-0.82
'0:12.719',-1
'0:12.723',-1.05
'0:12.727',-1.3
'0:12.730',-1.58
'0:12.734',-1.95
'0:12.738',-2.14
'0:12.742',-2.03
'0:12.746',-1.68
'0:12.750',-1.03
'0:12.754',0
'0:12.758',1.64
'0:12.762',3.9
'0:12.766',6.34
'0:12.770',7.76
'0:12.773',6.67
'0:12.777',3.65
'0:12.781',0.33
'0:12.785',-2.16
'0:12.789',-3.7
'0:12.793',-4.3
'0:12.797',-4.43
'0:12.801',-4.36
'0:12.805',-4.17
'0:12.809',-3.82
'0:12.813',-3.4
'0:12.816',-3.03
'0:12.820',-2.66
'0:12.824',-2.36
'0:12.828',-2.06
'0:12.832',-1.66
'0:12.836',-1.32
'0:12.840',-1.17
'0:12.844',-1.07
'0:12.848',-0.86
'0:12.852',-0.61
'0:12.855',-0.34
'0:12.859',-0.05
'0:12.863',0.05
'0:12.867',0.15
'0:12.871',0.32
'0:12.875',0.51
'0:12.879',0.78
'0:12.883',1.09
'0:12.887',1.45
'0:12.891',1.85
'0:12.895',2.22
'0:12.898',2.53
'0:12.902',2.83
'0:12.906',3.13
'0:12.910',3.25
'0:12.914',3.31
'0:12.918',3.22
'0:12.922',2.96
'0:12.926',2.57
'0:12.930',2.09
'0:12.934',1.67
'0:12.938',1.25
'0:12.941',0.86
'0:12.945',0.55
'0:12.949',0.44
'0:12.953',-0.16
'0:12.957',-0.23
'0:12.961',-0.12
'0:12.965',0.17
'0:12.969',0.34
'0:12.973',0.42
'0:12.977',0.66
'0:12.980',0.78
'0:12.984',1.04
'0:12.988',1.43
'0:12.992',1.56
'0:12.996',1.4
'0:13.000',1.22
'0:13.004',1.08
'0:13.008',1.19
'0:13.012',1.01
'0:13.016',0.42
'0:13.020',-0.25
'0:13.023',-1.14
'0:13.027',-2.05
'0:13.031',-2.79
'0:13.035',-3.07
'0:13.039',-2.81
'0:13.043',-2.56
'0:13.047',-2.31
'0:13.051',-2.03
'0:13.055',-2.02
'0:13.059',-1.9
'0:13.063',-1.09
'0:13.066',-0.26
'0:13.070',0.36
'0:13.074',1.67
'0:13.078',3.48
'0:13.082',5.02
'0:13.086',5.32
'0:13.090',3.43
'0:13.094',0.69
'0:13.098',-0.66
'0:13.102',-1.54
'0:13.105',-2.89
'0:13.109',-3.63
'0:13.113',-3.04
'0:13.117',-2.77
'0:13.121',-3.11
'0:13.125',-2.5
'0:13.129',-2.45
'0:13.133',-3.17
'0:13.137',-3.22
'0:13.141',-2.01
'0:13.145',-0.84
'0:13.148',-1.49
'0:13.152',-2.8
'0:13.156',-3.35
'0:13.160',-3.06
'0:13.164',-2.02
'0:13.168',-1.25
'0:13.172',-0.9
'0:13.176',-0.37
'0:13.180',-0.6
'0:13.184',-1.23
'0:13.188',-1.22
'0:13.191',-0.04
'0:13.195',1.51
'0:13.199',1.9
'0:13.203',1.9
'0:13.207',1.93
'0:13.211',1.43
'0:13.215',1.34
'0:13.219',2.29
'0:13.223',2.96
'0:13.227',2.9
'0:13.230',2.16
'0:13.234',1.64
'0:13.238',1.61
'0:13.242',1.71
'0:13.246',1.8
'0:13.250',1.57
'0:13.254',1.33
'0:13.258',1.01
'0:13.262',0.92
'0:13.266',1.45
'0:13.270',1.15
'0:13.273',-0.17
'0:13.277',-1.01
'0:13.281',-1.38
'0:13.285',-0.94
'0:13.289',-0.17
'0:13.293',0.11
'0:13.297',0.26
'0:13.301',0.63
'0:13.305',1
'0:13.309',0.95
'0:13.313',0.55
'0:13.316',0.37
'0:13.320',0.34
'0:13.324',0.11
'0:13.328',-0.35
'0:13.332',-0.7
'0:13.336',-1.01
'0:13.340',-1.45
'0:13.344',-1.7
'0:13.348',-1.75
'0:13.352',-1.61
'0:13.355',-1.55
'0:13.359',-1.85
'0:13.363',-1.9
'0:13.367',-1.9
'0:13.371',-1.77
'0:13.375',-1.67
'0:13.379',-1.5
'0:13.383',-0.88
'0:13.387',0.42
'0:13.391',2.31
'0:13.395',4.58
'0:13.398',6.1
'0:13.402',5.24
'0:13.406',2.45
'0:13.410',-0.58
'0:13.414',-2.58
'0:13.418',-3.54
'0:13.422',-3.91
'0:13.426',-4.04
'0:13.430',-3.95
'0:13.434',-3.73
'0:13.438',-3.56
'0:13.441',-3.41
'0:13.445',-3.21
'0:13.449',-2.91
'0:13.453',-2.5
'0:13.457',-2.06
'0:13.461',-1.76
'0:13.465',-1.56
'0:13.469',-1.45
'0:13.473',-1.33
'0:13.477',-1.17
'0:13.480',-0.93
'0:13.484',-0.66
'0:13.488',-0.29
'0:13.492',0
'0:13.496',0.15
'0:13.500',0.17
'0:13.504',0.37
'0:13.508',0.77
'0:13.512',1.38
'0:13.516',1.86
'0:13.520',2.12
'0:13.523',2.26
'0:13.527',2.33
'0:13.531',2.41
'0:13.535',2.46
'0:13.539',2.46
'0:13.543',2.47
'0:13.547',2.44
'0:13.551',2.43
'0:13.555',2.35
'0:13.559',2.26
'0:13.563',1.95
'0:13.566',1.52
'0:13.570',1.18
'0:13.574',0.72
'0:13.578',0.36
'0:13.582',0.15
'0:13.586',-0.02
'0:13.590',-0.07
'0:13.594',-0.03
'0:13.598',0.06
'0:13.602',0.16
'0:13.605',0.17
'0:13.609',0.14
'0:13.613',0.3
'0:13.617',0.43
'0:13.621',0.4
'0:13.625',0.4
'0:13.629',0.37
'0:13.633',0.39
'0:13.637',0.35
'0:13.641',0.01
'0:13.645',-0.31
'0:13.648',-0.62
'0:13.652',-1.01
'0:13.656',-1.4
'0:13.660',-1.77
'0:13.664',-2
'0:13.668',-2
'0:13.672',-1.93
'0:13.676',-1.85
'0:13.680',-1.92
'0:13.684',-2.09
'0:13.688',-2.03
'0:13.691',-1.76
'0:13.695',-1.15
'0:13.699',0
'0:13.703',1.81
'0:13.707',4.29
'0:13.711',6.52
'0:13.715',6.76
'0:13.719',4.73
'0:13.723',1.33
'0:13.727',-1.44
'0:13.730',-3.14
'0:13.734',-4.18
'0:13.738',-4.27
'0:13.742',-3.03
'0:13.746',-1.47
'0:13.750',-1.76
'0:13.754',-2.93
'0:13.758',-3.13
'0:13.762',-3.02
'0:13.766',-2.98
'0:13.770',-2.45
'0:13.773',-1.67
'0:13.777',-1.89
'0:13.781',-2.32
'0:13.785',-2.27
'0:13.789',-2.1
'0:13.793',-1.67
'0:13.797',-1.22
'0:13.801',-1.12
'0:13.805',-1.12
'0:13.809',-0.36
'0:13.813',0.24
'0:13.816',0.58
'0:13.820',1.16
'0:13.824',1.32
'0:13.828',1.15
'0:13.832',1.31
'0:13.836',1.84
'0:13.840',2.17
'0:13.844',2.47
'0:13.848',2.9
'0:13.852',3.23
'0:13.855',3.13
'0:13.859',2.43
'0:13.863',1.6
'0:13.867',1.27
'0:13.871',1.42
'0:13.875',1.7
'0:13.879',1.41
'0:13.883',0.58
'0:13.887',-0.44
'0:13.891',-0.84
'0:13.895',-0.3
'0:13.898',0.26
'0:13.902',-0.13
'0:13.906',-0.62
'0:13.910',-0.27
'0:13.914',0.05
'0:13.918',-0.61
'0:13.922',-1.28
'0:13.926',-1.13
'0:13.930',-0.48
'0:13.934',0.14
'0:13.938',1.23
'0:13.941',1.43
'0:13.945',0.08
'0:13.949',-0.96
'0:13.953',-0.84
'0:13.957',-0.18
'0:13.961',0.27
'0:13.965',0.07
'0:13.969',-0.98
'0:13.973',-2.1
'0:13.977',-2.57
'0:13.980',-2.61
'0:13.984',-2.6
'0:13.988',-2.28
'0:13.992',-0.44
'0:13.996',1.23
'0:14.000',0.14
'0:14.004',-1.46
'0:14.008',-1.97
'0:14.012',-1.83
'0:14.016',-0.18
'0:14.020',3.08
'0:14.023',6.54
'0:14.027',8.13
'0:14.031',6.6
'0:14.035',3.07
'0:14.039',-0.4
'0:14.043',-2.62
'0:14.047',-3.76
'0:14.051',-3.99
'0:14.055',-4.04
'0:14.059',-4.08
'0:14.063',-3.78
'0:14.066',-2.3
'0:14.070',-0.76
'0:14.074',-1.41
'0:14.078',-3.09
'0:14.082',-3.79
'0:14.086',-3.63
'0:14.090',-3.08
'0:14.094',-2.56
'0:14.098',-2.24
'0:14.102',-1.93
'0:14.105',-1.39
'0:14.109',-0.81
'0:14.113',-0.61
'0:14.117',-0.27
'0:14.121',0.28
'0:14.125',0.51
'0:14.129',0.63
'0:14.133',0.89
'0:14.137',1.1
'0:14.141',1.36
'0:14.145',1.65
'0:14.148',1.97
'0:14.152',2.24
'0:14.156',2.49
'0:14.160',2.73
'0:14.164',3.06
'0:14.168',3.38
'0:14.172',3.34
'0:14.176',3.06
'0:14.180',2.67
'0:14.184',2.18
'0:14.188',1.72
'0:14.191',1.33
'0:14.195',0.98
'0:14.199',0.67
'0:14.203',0.36
'0:14.207',0.22
'0:14.211',0.18
'0:14.215',0.24
'0:14.219',0.12
'0:14.223',-0.22
'0:14.227',-0.41
'0:14.230',-0.6
'0:14.234',-0.61
'0:14.238',-0.28
'0:14.242',0.31
'0:14.246',0.85
'0:14.250',1.17
'0:14.254',1.43
'0:14.258',1.7
'0:14.262',1.83
'0:14.266',1.73
'0:14.270',1.26
'0:14.273',0.43
'0:14.277',-0.27
'0:14.281',-0.65
'0:14.285',-0.73
'0:14.289',-0.65
'0:14.293',-0.52
'0:14.297',-0.61
'0:14.301',-1.08
'0:14.305',-1.46
'0:14.309',-1.48
'0:14.313',-1.41
'0:14.316',-1.39
'0:14.320',-1.22
'0:14.324',-0.78
'0:14.328',0.4
'0:14.332',2.2
'0:14.336',4.37
'0:14.340',6.49
'0:14.344',7.19
'0:14.348',5.57
'0:14.352',2.52
'0:14.355',-0.22
'0:14.359',-1.89
'0:14.363',-2.69
'0:14.367',-3.06
'0:14.371',-3.38
'0:14.375',-3.67
'0:14.379',-3.68
'0:14.383',-3.49
'0:14.387',-3.15
'0:14.391',-2.86
'0:14.395',-2.58
'0:14.398',-2.3
'0:14.402',-1.98
'0:14.406',-1.68
'0:14.410',-1.39
'0:14.414',-1.21
'0:14.418',-1.07
'0:14.422',-0.85
'0:14.426',-0.35
'0:14.430',0.26
'0:14.434',0.73
'0:14.438',0.71
'0:14.441',0.38
'0:14.445',0.16
'0:14.449',0.22
'0:14.453',0.55
'0:14.457',0.99
'0:14.461',1.5
'0:14.465',1.9
'0:14.469',2.26
'0:14.473',2.67
'0:14.477',3.04
'0:14.480',3.14
'0:14.484',3.07
'0:14.488',3.02
'0:14.492',3.02
'0:14.496',2.96
'0:14.500',2.25
'0:14.504',1.75
'0:14.508',1.34
'0:14.512',1.08
'0:14.516',0.79
'0:14.520',0.4
'0:14.523',0.1
'0:14.527',-0.01
'0:14.531',0.09
'0:14.535',0.91
'0:14.539',1.47
'0:14.543',0.99
'0:14.547',0.3
'0:14.551',-0.28
'0:14.555',-0.62
'0:14.559',-0.44
'0:14.563',-0.01
'0:14.566',0.17
'0:14.570',0.34
'0:14.574',0.53
'0:14.578',0.56
'0:14.582',0.54
'0:14.586',0.33
'0:14.590',-0.06
'0:14.594',-0.46
'0:14.598',-0.68
'0:14.602',-0.8
'0:14.605',-1.11
'0:14.609',-1.29
'0:14.613',-1.36
'0:14.617',-1.61
'0:14.621',-1.75
'0:14.625',-1.68
'0:14.629',-1.67
'0:14.633',-1.47
'0:14.637',-0.99
'0:14.641',-0.34
'0:14.645',0.69
'0:14.648',2.5
'0:14.652',4.98
'0:14.656',6.95
'0:14.660',6.53
'0:14.664',3.33
'0:14.668',-0.37
'0:14.672',-2.85
'0:14.676',-4.1
'0:14.680',-4.6
'0:14.684',-4.89
'0:14.688',-4.86
'0:14.691',-4.53
'0:14.695',-4.31
'0:14.699',-3.88
'0:14.703',-3.34
'0:14.707',-3.19
'0:14.711',-3.22
'0:14.715',-2.9
'0:14.719',-2.64
'0:14.723',-2.27
'0:14.727',-1.6
'0:14.730',-0.67
'0:14.734',-0.29
'0:14.738',-0.7
'0:14.742',-1.11
'0:14.746',-1.38
'0:14.750',-1.46
'0:14.754',-1.22
'0:14.758',-0.53
'0:14.762',0.07
'0:14.766',0.62
'0:14.770',1.95
'0:14.773',3.16
'0:14.777',3.15
'0:14.781',2.47
'0:14.785',1.36
'0:14.789',0.61
'0:14.793',0.56
'0:14.797',0.87
'0:14.801',1.02
'0:14.805',0.99
'0:14.809',0.85
'0:14.813',0.92
'0:14.816',1.4
'0:14.820',2.26
'0:14.824',3.13
'0:14.828',3.08
'0:14.832',1.76
'0:14.836',0.09
'0:14.840',-1.01
'0:14.844',-1.31
'0:14.848',-1.15
'0:14.852',-0.43
'0:14.855',0.71
'0:14.859',2.41
'0:14.863',2.43
'0:14.867',0.42
'0:14.871',-1.12
'0:14.875',-1.41
'0:14.879',-1.15
'0:14.883',-0.9
'0:14.887',-0.52
'0:14.891',-0.29
'0:14.895',-0.29
'0:14.898',-0.45
'0:14.902',-0.48
'0:14.906',-0.43
'0:14.910',-0.35
'0:14.914',-0.67
'0:14.918',-1.4
'0:14.922',-2.11
'0:14.926',-2.55
'0:14.930',-2.62
'0:14.934',-2.43
'0:14.938',-2.13
'0:14.941',-1.87
'0:14.945',-1.9
'0:14.949',-1.8
'0:14.953',-1.47
'0:14.957',-0.46
'0:14.961',1.17
'0:14.965',3.21
'0:14.969',4.94
'0:14.973',4.89
'0:14.977',2.99
'0:14.980',0.43
'0:14.984',-1.58
'0:14.988',-3
'0:14.992',-3.79
'0:14.996',-3.76
'0:15.000',-3.49
'0:15.004',-3.11
'0:15.008',-2.85
'0:15.012',-2.92
'0:15.016',-2.95
'0:15.020',-2.8
'0:15.023',-2.46
'0:15.027',-2.1
'0:15.031',-1.71
'0:15.035',-1.49
'0:15.039',-1.29
'0:15.043',-1
'0:15.047',-0.68
'0:15.051',-0.27
'0:15.055',0.24
'0:15.059',0.65
'0:15.063',0.16
'0:15.066',-0.35
'0:15.070',-0.27
'0:15.074',0.04
'0:15.078',0.55
'0:15.082',1.09
'0:15.086',1.46
'0:15.090',1.66
'0:15.094',1.94
'0:15.098',2.29
'0:15.102',2.6
'0:15.105',2.9
'0:15.109',3.06
'0:15.113',3.14
'0:15.117',3.02
'0:15.121',2.8
'0:15.125',2.61
'0:15.129',2.32
'0:15.133',1.96
'0:15.137',1.64
'0:15.141',1.33
'0:15.145',0.9
'0:15.148',0.42
'0:15.152',0.06
'0:15.156',-0.02
'0:15.160',-0.02
'0:15.164',0.08
'0:15.168',0.06
'0:15.172',-0.14
'0:15.176',-0.24
'0:15.180',0
'0:15.184',0.32
'0:15.188',0.32
'0:15.191',0.32
'0:15.195',0.32
'0:15.199',0.3
'0:15.203',0.27
'0:15.207',0.39
'0:15.211',0.41
'0:15.215',0.27
'0:15.219',-0.02
'0:15.223',-0.38
'0:15.227',-0.86
'0:15.230',-1.19
'0:15.234',-1.36
'0:15.238',-1.51
'0:15.242',-0.94
'0:15.246',-0.27
'0:15.250',-0.45
'0:15.254',-0.99
'0:15.258',-0.86
'0:15.262',-1.23
'0:15.266',-1.96
'0:15.270',-1.69
'0:15.273',-0.11
'0:15.277',2.77
'0:15.281',5.59
'0:15.285',6.26
'0:15.289',4.24
'0:15.293',0.48
'0:15.297',-2.84
'0:15.301',-4.36
'0:15.305',-4.48
'0:15.309',-3.97
'0:15.313',-3.83
'0:15.316',-3.27
'0:15.320',-2.82
'0:15.324',-2.7
'0:15.328',-1.84
'0:15.332',-0.67
'0:15.336',-0.65
'0:15.340',-1.28
'0:15.344',-2.03
'0:15.348',-2.89
'0:15.352',-3.61
'0:15.355',-3.59
'0:15.359',-2.91
'0:15.363',-2.13
'0:15.367',-1.93
'0:15.371',-1.59
'0:15.375',-0.74
'0:15.379',0.02
'0:15.383',1.29
'0:15.387',3.36
'0:15.391',3.14
'0:15.395',1.01
'0:15.398',0.53
'0:15.402',1.16
'0:15.406',1.53
'0:15.410',1.89
'0:15.414',3.38
'0:15.418',3.89
'0:15.422',2.61
'0:15.426',2.03
'0:15.430',2.22
'0:15.434',1.53
'0:15.438',0.57
'0:15.441',0.18
'0:15.445',0.23
'0:15.449',0.32
'0:15.453',0.23
'0:15.457',0.06
'0:15.461',0.45
'0:15.465',1.66
'0:15.469',2.08
'0:15.473',0.59
'0:15.477',-0.97
'0:15.480',-1.48
'0:15.484',-0.98
'0:15.488',-0.41
'0:15.492',-0.58
'0:15.496',-0.7
'0:15.500',-0.23
'0:15.504',0.92
'0:15.508',1.86
'0:15.512',1.4
'0:15.516',0.41
'0:15.520',-0.26
'0:15.523',-0.4
'0:15.527',0.42
'0:15.531',1.64
'0:15.535',1.04
'0:15.539',-0.69
'0:15.543',-1.74
'0:15.547',-2.25
'0:15.551',-2.51
'0:15.555',-2.72
'0:15.559',-2.73
'0:15.563',-2.63
'0:15.566',-2.84
'0:15.570',-3.11
'0:15.574',-2.9
'0:15.578',-2
'0:15.582',-0.29
'0:15.586',1.84
'0:15.590',4.25
'0:15.594',6.61
'0:15.598',7.48
'0:15.602',5.74
'0:15.605',2.2
'0:15.609',-0.9
'0:15.613',-2.82
'0:15.617',-3.96
'0:15.621',-4.59
'0:15.625',-4.71
'0:15.629',-4.41
'0:15.633',-3.98
'0:15.637',-3.52
'0:15.641',-3.15
'0:15.645',-2.83
'0:15.648',-2.44
'0:15.652',-2.14
'0:15.656',-1.97
'0:15.660',-1.71
'0:15.664',-1.32
'0:15.668',-1.17
'0:15.672',-1.16
'0:15.676',-1.08
'0:15.680',-0.96
'0:15.684',-0.87
'0:15.688',-0.57
'0:15.691',-0.06
'0:15.695',0.36
'0:15.699',0.7
'0:15.703',1.01
'0:15.707',1.26
'0:15.711',1.56
'0:15.715',1.94
'0:15.719',2.22
'0:15.723',2.34
'0:15.727',2.46
'0:15.730',2.76
'0:15.734',2.97
'0:15.738',2.96
'0:15.742',2.88
'0:15.746',2.99
'0:15.750',3
'0:15.754',2.69
'0:15.758',2.13
'0:15.762',1.65
'0:15.766',1.16
'0:15.770',0.69
'0:15.773',0.37
'0:15.777',0.21
'0:15.781',0.11
'0:15.785',0.06
'0:15.789',-0.01
'0:15.793',0.02
'0:15.797',0.17
'0:15.801',0.38
'0:15.805',0.7
'0:15.809',0.97
'0:15.813',1.07
'0:15.816',1.07
'0:15.820',1.12
'0:15.824',1.15
'0:15.828',1.14
'0:15.832',1.19
'0:15.836',1.24
'0:15.840',1.17
'0:15.844',0.84
'0:15.848',0.31
'0:15.852',-0.3
'0:15.855',-0.67
'0:15.859',-0.61
'0:15.863',-0.55
'0:15.867',-0.8
'0:15.871',-1.04
'0:15.875',-1.02
'0:15.879',-1.09
'0:15.883',-1.24
'0:15.887',-1.19
'0:15.891',-0.92
'0:15.895',-0.33
'0:15.898',0.95
'0:15.902',2.92
'0:15.906',5.21
'0:15.910',6.76
'0:15.914',6
'0:15.918',3.39
'0:15.922',0.2
'0:15.926',-1.97
'0:15.930',-2.89
'0:15.934',-3.07
'0:15.938',-3.07
'0:15.941',-3.14
'0:15.945',-3.22
'0:15.949',-3.26
'0:15.953',-3.24
'0:15.957',-3.14
'0:15.961',-2.85
'0:15.965',-2.51
'0:15.969',-2.3
'0:15.973',-1.9
'0:15.977',-1.54
'0:15.980',-1.28
'0:15.984',-1.02
'0:15.988',-0.8
'0:15.992',-0.54
'0:15.996',-0.13
'0:16.000',0.39
'0:16.004',1.2
'0:16.008',1.91
'0:16.012',1.69
'0:16.016',1.32
'0:16.020',2.18
'0:16.023',3.56
'0:16.027',3.52
'0:16.031',2.17
'0:16.035',1.37
'0:16.039',1.29
'0:16.043',1.68
'0:16.047',2.27
'0:16.051',2.58
'0:16.055',2.6
'0:16.059',2.25
'0:16.063',1.77
'0:16.066',1.39
'0:16.070',1.42
'0:16.074',1.93
'0:16.078',1.82
'0:16.082',1.18
'0:16.086',1.01
'0:16.090',0.91
'0:16.094',0.07
'0:16.098',-0.83
'0:16.102',-1.28
'0:16.105',-1.07
'0:16.109',-0.21
'0:16.113',0.65
'0:16.117',0.71
'0:16.121',-0.1
'0:16.125',-0.6
'0:16.129',-0.23
'0:16.133',0.17
'0:16.137',0.25
'0:16.141',0.55
'0:16.145',1.11
'0:16.148',1.56
'0:16.152',0.83
'0:16.156',-0.51
'0:16.160',-1.19
'0:16.164',-0.58
'0:16.168',1.38
'0:16.172',1.28
'0:16.176',-1.03
'0:16.180',-1.97
'0:16.184',-1.21
'0:16.188',-0.87
'0:16.191',-2.33
'0:16.195',-3.99
'0:16.199',-4.67
'0:16.203',-4.29
'0:16.207',-3.18
'0:16.211',-1.06
'0:16.215',2.28
'0:16.219',6.18
'0:16.223',8.63
'0:16.227',8.39
'0:16.230',7.73
'0:16.234',5.15
'0:16.238',0.3
'0:16.242',-4.22
'0:16.246',-6.77
'0:16.250',-7.33
'0:16.254',-6.64
'0:16.258',-5.69
'0:16.262',-4.76
'0:16.266',-3.93
'0:16.270',-3.23
'0:16.273',-2.73
'0:16.277',-2.34
'0:16.281',-1.88
'0:16.285',-1.77
'0:16.289',-1.87
'0:16.293',-1.66
'0:16.297',-1.05
'0:16.301',-0.26
'0:16.305',0.02
'0:16.309',-0.28
'0:16.313',-0.63
'0:16.316',-0.78
'0:16.320',-0.5
'0:16.324',0.71
'0:16.328',2.48
'0:16.332',2.19
'0:16.336',0.24
'0:16.340',-0.83
'0:16.344',-0.63
'0:16.348',0.16
'0:16.352',1.11
'0:16.355',1.78
'0:16.359',2.17
'0:16.363',2.51
'0:16.367',2.56
'0:16.371',2.58
'0:16.375',2.83
'0:16.379',2.97
'0:16.383',2.88
'0:16.387',2.5
'0:16.391',1.72
'0:16.395',0.91
'0:16.398',0.35
'0:16.402',0.11
'0:16.406',0.16
'0:16.410',0.32
'0:16.414',0.49
'0:16.418',0.65
'0:16.422',0.87
'0:16.426',0.96
'0:16.430',0.66
'0:16.434',0.23
'0:16.438',0
'0:16.441',0.15
'0:16.445',0.35
'0:16.449',0.39
'0:16.453',0.35
'0:16.457',0.43
'0:16.461',0.39
'0:16.465',0.03
'0:16.469',-0.43
'0:16.473',-0.8
'0:16.477',-1.14
'0:16.480',-1.63
'0:16.484',-1.97
'0:16.488',-1.95
'0:16.492',-1.63
'0:16.496',-1.59
'0:16.500',-1.89
'0:16.504',-2.1
'0:16.508',-1.95
'0:16.512',-1.42
'0:16.516',-0.83
'0:16.520',-0.23
'0:16.523',0.45
'0:16.527',1.69
'0:16.531',3.7
'0:16.535',5.6
'0:16.539',6
'0:16.543',4.14
'0:16.547',1.17
'0:16.551',-1.42
'0:16.555',-2.97
'0:16.559',-3.88
'0:16.563',-4.31
'0:16.566',-4.32
'0:16.570',-3.93
'0:16.574',-3.54
'0:16.578',-3.12
'0:16.582',-2.66
'0:16.586',-2.29
'0:16.590',-2.1
'0:16.594',-1.95
'0:16.598',-1.76
'0:16.602',-1.54
'0:16.605',-1.38
'0:16.609',-1.19
'0:16.613',-1.02
'0:16.617',-0.99
'0:16.621',-0.83
'0:16.625',-0.52
'0:16.629',-0.12
'0:16.633',0.13
'0:16.637',0.29
'0:16.641',0.22
'0:16.645',0.22
'0:16.648',0.36
'0:16.652',0.63
'0:16.656',0.99
'0:16.660',1.41
'0:16.664',1.89
'0:16.668',2.27
'0:16.672',2.58
'0:16.676',2.78
'0:16.680',2.92
'0:16.684',3.05
'0:16.688',2.98
'0:16.691',2.76
'0:16.695',2.47
'0:16.699',2.04
'0:16.703',1.54
'0:16.707',1.3
'0:16.711',1.18
'0:16.715',1.07
'0:16.719',1.41
'0:16.723',2.2
'0:16.727',2.03
'0:16.730',1.1
'0:16.734',1.01
'0:16.738',0.86
'0:16.742',-0.19
'0:16.746',-0.94
'0:16.750',-1.07
'0:16.754',-0.71
'0:16.758',-0.27
'0:16.762',0.02
'0:16.766',0.24
'0:16.770',0.56
'0:16.773',0.76
'0:16.777',0.92
'0:16.781',0.85
'0:16.785',-0.29
'0:16.789',-1.46
'0:16.793',-2.04
'0:16.797',-2.42
'0:16.801',-2.6
'0:16.805',-2.49
'0:16.809',-2.1
'0:16.813',-1.87
'0:16.816',-2.63
'0:16.820',-3.61
'0:16.824',-4.23
'0:16.828',-4.17
'0:16.832',-3.5
'0:16.836',-2.36
'0:16.840',-0.69
'0:16.844',1.33
'0:16.848',3.79
'0:16.852',5.61
'0:16.855',5.11
'0:16.859',2.98
'0:16.863',0.76
'0:16.867',-0.74
'0:16.871',-1.48
'0:16.875',-2.83
'0:16.879',-4.07
'0:16.883',-4.26
'0:16.887',-4
'0:16.891',-4.3
'0:16.895',-4.53
'0:16.898',-4.2
'0:16.902',-3.57
'0:16.906',-2.55
'0:16.910',-1.55
'0:16.914',-1.17
'0:16.918',-0.9
'0:16.922',-0.09
'0:16.926',1.61
'0:16.930',2.34
'0:16.934',-0.35
'0:16.938',-3.01
'0:16.941',-3
'0:16.945',-2.02
'0:16.949',-1.7
'0:16.953',-1.68
'0:16.957',-1.29
'0:16.961',-0.73
'0:16.965',-0.23
'0:16.969',0.3
'0:16.973',0.89
'0:16.977',1.5
'0:16.980',2.16
'0:16.984',2.72
'0:16.988',3.23
'0:16.992',3.68
'0:16.996',3.99
'0:17.000',4.31
'0:17.004',4.58
'0:17.008',3.44
'0:17.012',1.64
'0:17.016',0.46
'0:17.020',-0.4
'0:17.023',-0.49
'0:17.027',0.12
'0:17.031',0.63
'0:17.035',0.38
'0:17.039',-0.33
'0:17.043',-0.84
'0:17.047',-0.94
'0:17.051',-0.82
'0:17.055',-0.47
'0:17.059',-0.01
'0:17.063',0.55
'0:17.066',0.95
'0:17.070',1
'0:17.074',0.81
'0:17.078',0.59
'0:17.082',0.56
'0:17.086',0.47
'0:17.090',0.13
'0:17.094',-0.35
'0:17.098',-0.7
'0:17.102',-1.04
'0:17.105',-1.31
'0:17.109',-1.48
'0:17.113',-1.68
'0:17.117',-1.81
'0:17.121',-1.91
'0:17.125',-2.07
'0:17.129',-2.2
'0:17.133',-2.27
'0:17.137',-2.43
'0:17.141',-2.34
'0:17.145',-1.6
'0:17.148',-0.31
'0:17.152',1.31
'0:17.156',3.33
'0:17.160',5.59
'0:17.164',6.79
'0:17.168',5.58
'0:17.172',2.69
'0:17.176',-0.32
'0:17.180',-2.46
'0:17.184',-3.71
'0:17.188',-4.28
'0:17.191',-4.44
'0:17.195',-4.41
'0:17.199',-4.26
'0:17.203',-3.93
'0:17.207',-3.46
'0:17.211',-3.16
'0:17.215',-2.9
'0:17.219',-2.7
'0:17.223',-2.59
'0:17.227',-2.46
'0:17.230',-2.32
'0:17.234',-2.1
'0:17.238',-1.76
'0:17.242',-1.39
'0:17.246',-0.91
'0:17.250',-0.56
'0:17.254',-0.52
'0:17.258',-0.58
'0:17.262',-0.42
'0:17.266',-0.09
'0:17.270',0.25
'0:17.273',0.68
'0:17.277',1.16
'0:17.281',1.53
'0:17.285',1.9
'0:17.289',2.26
'0:17.293',2.65
'0:17.297',2.92
'0:17.301',3.1
'0:17.305',3.29
'0:17.309',3.2
'0:17.313',2.8
'0:17.316',2.27
'0:17.320',1.95
'0:17.324',1.59
'0:17.328',1.1
'0:17.332',0.88
'0:17.336',0.66
'0:17.340',0.13
'0:17.344',-0.47
'0:17.348',-0.68
'0:17.352',-0.65
'0:17.355',-0.69
'0:17.359',-0.73
'0:17.363',-0.63
'0:17.367',-0.17
'0:17.371',0.33
'0:17.375',0.68
'0:17.379',0.83
'0:17.383',0.78
'0:17.387',0.73
'0:17.391',0.71
'0:17.395',0.73
'0:17.398',0.61
'0:17.402',0.44
'0:17.406',0.32
'0:17.410',0.1
'0:17.414',-0.26
'0:17.418',-0.63
'0:17.422',-0.87
'0:17.426',-1.18
'0:17.430',-1.51
'0:17.434',-1.68
'0:17.438',-1.65
'0:17.441',-1.63
'0:17.445',-1.56
'0:17.449',-1.53
'0:17.453',-1.46
'0:17.457',-1.1
'0:17.461',-0.21
'0:17.465',1.31
'0:17.469',3.42
'0:17.473',6.01
'0:17.477',7.95
'0:17.480',7.65
'0:17.484',5.05
'0:17.488',1.71
'0:17.492',-0.7
'0:17.496',-1.93
'0:17.500',-2.26
'0:17.504',-1.63
'0:17.508',-0.52
'0:17.512',-0.43
'0:17.516',-1.97
'0:17.520',-3.39
'0:17.523',-3.78
'0:17.527',-3.52
'0:17.531',-2.88
'0:17.535',-2.25
'0:17.539',-2
'0:17.543',-1.85
'0:17.547',-1.66
'0:17.551',-1.55
'0:17.555',-1.48
'0:17.559',-1.2
'0:17.563',-0.8
'0:17.566',-0.42
'0:17.570',0
'0:17.574',0.27
'0:17.578',0.39
'0:17.582',0.7
'0:17.586',1.49
'0:17.590',2.4
'0:17.594',2.87
'0:17.598',2.66
'0:17.602',2.34
'0:17.605',2.08
'0:17.609',1.81
'0:17.613',1.63
'0:17.617',1.73
'0:17.621',1.97
'0:17.625',2.05
'0:17.629',2.34
'0:17.633',2.9
'0:17.637',3.24
'0:17.641',2.79
'0:17.645',1.99
'0:17.648',1.64
'0:17.652',1.83
'0:17.656',1.31
'0:17.660',0.12
'0:17.664',-0.74
'0:17.668',-1.31
'0:17.672',-1.63
'0:17.676',-1.7
'0:17.680',-1.69
'0:17.684',-1.49
'0:17.688',-0.92
'0:17.691',0.05
'0:17.695',1.39
'0:17.699',2.48
'0:17.703',3.54
'0:17.707',4.34
'0:17.711',3.02
'0:17.715',0.2
'0:17.719',-1.7
'0:17.723',-2.11
'0:17.727',-1.78
'0:17.730',-1.37
'0:17.734',-1.15
'0:17.738',-1.11
'0:17.742',-1.31
'0:17.746',-1.54
'0:17.750',-1.56
'0:17.754',-1.53
'0:17.758',-1.52
'0:17.762',-1.63
'0:17.766',-1.72
'0:17.770',-1.54
'0:17.773',-1.03
'0:17.777',-0.09
'0:17.781',1.46
'0:17.785',3.62
'0:17.789',6.05
'0:17.793',7.37
'0:17.797',6.1
'0:17.801',3.06
'0:17.805',0.19
'0:17.809',-1.84
'0:17.813',-3.03
'0:17.816',-3.4
'0:17.820',-3.15
'0:17.824',-3
'0:17.828',-3.19
'0:17.832',-3.48
'0:17.836',-3.53
'0:17.840',-3.34
'0:17.844',-3.11
'0:17.848',-2.78
'0:17.852',-2.37
'0:17.855',-1.97
'0:17.859',-1.66
'0:17.863',-1.34
'0:17.867',-0.98
'0:17.871',-0.83
'0:17.875',-0.88
'0:17.879',-0.94
'0:17.883',-0.69
'0:17.887',-0.11
'0:17.891',0.38
'0:17.895',0.56
'0:17.898',0.64
'0:17.902',0.89
'0:17.906',1.19
'0:17.910',1.46
'0:17.914',1.82
'0:17.918',2.28
'0:17.922',2.71
'0:17.926',2.85
'0:17.930',2.85
'0:17.934',2.9
'0:17.938',3.05
'0:17.941',3.01
'0:17.945',2.74
'0:17.949',2.28
'0:17.953',1.86
'0:17.957',1.42
'0:17.961',0.98
'0:17.965',0.61
'0:17.969',0.13
'0:17.973',-0.19
'0:17.977',-0.44
'0:17.980',-0.46
'0:17.984',-0.43
'0:17.988',-0.37
'0:17.992',-0.26
'0:17.996',-0.15
'0:18.000',0.04
'0:18.004',0.39
'0:18.008',0.73
'0:18.012',0.87
'0:18.016',0.76
'0:18.020',0.59
'0:18.023',0.63
'0:18.027',0.61
'0:18.031',0.54
'0:18.035',0.4
'0:18.039',0.16
'0:18.043',-0.13
'0:18.047',-0.5
'0:18.051',-0.97
'0:18.055',-1.38
'0:18.059',-1.57
'0:18.063',-1.75
'0:18.066',-2.02
'0:18.070',-2.21
'0:18.074',-2.24
'0:18.078',-2.22
'0:18.082',-1.9
'0:18.086',-1.23
'0:18.090',-0.06
'0:18.094',1.7
'0:18.098',4.01
'0:18.102',6.3
'0:18.105',7.13
'0:18.109',5.42
'0:18.113',2.18
'0:18.117',-0.76
'0:18.121',-2.73
'0:18.125',-3.81
'0:18.129',-4.16
'0:18.133',-4.12
'0:18.137',-4.02
'0:18.141',-3.78
'0:18.145',-3.56
'0:18.148',-3.36
'0:18.152',-3.03
'0:18.156',-2.67
'0:18.160',-2.41
'0:18.164',-2.2
'0:18.168',-1.95
'0:18.172',-1.71
'0:18.176',-1.39
'0:18.180',-1.05
'0:18.184',-0.92
'0:18.188',-0.88
'0:18.191',-0.62
'0:18.195',-0.46
'0:18.199',-0.42
'0:18.203',-0.25
'0:18.207',0.09
'0:18.211',0.51
'0:18.215',0.97
'0:18.219',1.4
'0:18.223',1.7
'0:18.227',2.02
'0:18.230',2.31
'0:18.234',2.53
'0:18.238',2.76
'0:18.242',3.04
'0:18.246',3.42
'0:18.250',3.83
'0:18.254',3.98
'0:18.258',3.86
'0:18.262',3.47
'0:18.266',2.45
'0:18.270',1.53
'0:18.273',1.03
'0:18.277',0.56
'0:18.281',-0.13
'0:18.285',-0.96
'0:18.289',-1.48
'0:18.293',-1.54
'0:18.297',-1.15
'0:18.301',-0.68
'0:18.305',-0.52
'0:18.309',-0.34
'0:18.313',0.26
'0:18.316',1.18
'0:18.320',1.63
'0:18.324',1.08
'0:18.328',-0.14
'0:18.332',-1.08
'0:18.336',-1.27
'0:18.340',-1.26
'0:18.344',-1.01
'0:18.348',-0.76
'0:18.352',-0.76
'0:18.355',-1.19
'0:18.359',-1.53
'0:18.363',-1.4
'0:18.367',-0.84
'0:18.371',-0.46
'0:18.375',-0.51
'0:18.379',-1.2
'0:18.383',-0.6
'0:18.387',-0.25
'0:18.391',-1.75
'0:18.395',-3.05
'0:18.398',-3.47
'0:18.402',-2.7
'0:18.406',-0.9
'0:18.410',1.26
'0:18.414',3.79
'0:18.418',5.08
'0:18.422',4.14
'0:18.426',2.28
'0:18.430',0.16
'0:18.434',-1.46
'0:18.438',-2.18
'0:18.441',-2.1
'0:18.445',-2.45
'0:18.449',-3.32
'0:18.453',-3.88
'0:18.457',-3.37
'0:18.461',-3.09
'0:18.465',-3.86
'0:18.469',-4.18
'0:18.473',-4.02
'0:18.477',-3.52
'0:18.480',-2.93
'0:18.484',-2.39
'0:18.488',-1.74
'0:18.492',-1.05
'0:18.496',-0.46
'0:18.500',0.04
'0:18.504',0.7
'0:18.508',1.38
'0:18.512',0.94
'0:18.516',-0.15
'0:18.520',-0.72
'0:18.523',-0.42
'0:18.527',0.21
'0:18.531',0.56
'0:18.535',0.82
'0:18.539',1.16
'0:18.543',1.65
'0:18.547',2.29
'0:18.551',2.93
'0:18.555',3.22
'0:18.559',3.18
'0:18.563',3.44
'0:18.566',3.91
'0:18.570',3.78
'0:18.574',3.13
'0:18.578',2.28
'0:18.582',1.36
'0:18.586',0.6
'0:18.590',0.01
'0:18.594',-0.52
'0:18.598',-0.68
'0:18.602',-0.51
'0:18.605',-0.29
'0:18.609',-0.09
'0:18.613',0.04
'0:18.617',-0.04
'0:18.621',-0.12
'0:18.625',0.15
'0:18.629',0.53
'0:18.633',0.8
'0:18.637',0.83
'0:18.641',0.68
'0:18.645',0.59
'0:18.648',0.48
'0:18.652',0.35
'0:18.656',0.2
'0:18.660',-0.13
'0:18.664',-0.58
'0:18.668',-0.97
'0:18.672',-1.02
'0:18.676',-1.04
'0:18.680',-1.33
'0:18.684',-1.73
'0:18.688',-1.96
'0:18.691',-2.05
'0:18.695',-2.09
'0:18.699',-2.24
'0:18.703',-2.36
'0:18.707',-2.17
'0:18.711',-1.67
'0:18.715',-0.72
'0:18.719',0.67
'0:18.723',2.53
'0:18.727',4.46
'0:18.730',5.18
'0:18.734',3.8
'0:18.738',1.25
'0:18.742',-1.13
'0:18.746',-2.78
'0:18.750',-3.67
'0:18.754',-3.9
'0:18.758',-3.68
'0:18.762',-3.34
'0:18.766',-2.98
'0:18.770',-2.64
'0:18.773',-2.41
'0:18.777',-2.31
'0:18.781',-2.33
'0:18.785',-2.24
'0:18.789',-2.08
'0:18.793',-1.87
'0:18.797',-1.57
'0:18.801',-1.29
'0:18.805',-1.05
'0:18.809',-0.9
'0:18.813',-0.78
'0:18.816',-0.63
'0:18.820',-0.39
'0:18.824',-0.14
'0:18.828',0.22
'0:18.832',0.63
'0:18.836',0.83
'0:18.840',0.95
'0:18.844',1.17
'0:18.848',1.62
'0:18.852',2.12
'0:18.855',2.46
'0:18.859',2.56
'0:18.863',2.56
'0:18.867',2.48
'0:18.871',2.4
'0:18.875',2.29
'0:18.879',2.29
'0:18.883',2.32
'0:18.887',2.25
'0:18.891',1.9
'0:18.895',1.32
'0:18.898',0.79
'0:18.902',0.47
'0:18.906',0.27
'0:18.910',0.17
'0:18.914',0.15
'0:18.918',0.17
'0:18.922',0.27
'0:18.926',0.43
'0:18.930',0.54
'0:18.934',0.58
'0:18.938',0.65
'0:18.941',0.69
'0:18.945',0.59
'0:18.949',0.41
'0:18.953',0.35
'0:18.957',0.3
'0:18.961',0.25
'0:18.965',0.1
'0:18.969',-0.08
'0:18.973',-0.29
'0:18.977',-0.58
'0:18.980',-0.82
'0:18.984',-1.16
'0:18.988',-1.6
'0:18.992',-1.84
'0:18.996',-1.85
'0:19.000',-1.54
'0:19.004',-1.03
'0:19.008',-0.89
'0:19.012',-1.04
'0:19.016',-0.93
'0:19.020',-0.7
'0:19.023',-0.53
'0:19.027',0.25
'0:19.031',1.66
'0:19.035',3.16
'0:19.039',4.82
'0:19.043',5.07
'0:19.047',3.37
'0:19.051',0.2
'0:19.055',-2.84
'0:19.059',-4.63
'0:19.063',-5.26
'0:19.066',-5.15
'0:19.070',-4.7
'0:19.074',-4.14
'0:19.078',-3.15
'0:19.082',-1.7
'0:19.086',-1.12
'0:19.090',-1.83
'0:19.094',-2.21
'0:19.098',-1.57
'0:19.102',-1.19
'0:19.105',-1.91
'0:19.109',-2.81
'0:19.113',-3.21
'0:19.117',-3.15
'0:19.121',-2.64
'0:19.125',-1.81
'0:19.129',-1.13
'0:19.133',-0.69
'0:19.137',-0.41
'0:19.141',-0.25
'0:19.145',0.56
'0:19.148',1.88
'0:19.152',2.41
'0:19.156',2.18
'0:19.160',1.93
'0:19.164',1.54
'0:19.168',1.58
'0:19.172',2.37
'0:19.176',3.88
'0:19.180',4.8
'0:19.184',4.92
'0:19.188',4.35
'0:19.191',2.71
'0:19.195',0.78
'0:19.199',-0.64
'0:19.203',-0.97
'0:19.207',-0.49
'0:19.211',-0.05
'0:19.215',0.12
'0:19.219',0.49
'0:19.223',0.47
'0:19.227',-0.33
'0:19.230',-0.84
'0:19.234',-0.53
'0:19.238',0.12
'0:19.242',0.66
'0:19.246',0.66
'0:19.250',-0.09
'0:19.254',-0.65
'0:19.258',-0.44
'0:19.262',-0.04
'0:19.266',0.18
'0:19.270',0.36
'0:19.273',0.53
'0:19.277',0.78
'0:19.281',0.85
'0:19.285',0.25
'0:19.289',-0.48
'0:19.293',-1.02
'0:19.297',-1.36
'0:19.301',-1.13
'0:19.305',-0.64
'0:19.309',-0.67
'0:19.313',-1.32
'0:19.316',-1.89
'0:19.320',-2.14
'0:19.324',-2.12
'0:19.328',-1.98
'0:19.332',-1.71
'0:19.336',-1.25
'0:19.340',-0.2
'0:19.344',1.58
'0:19.348',3.92
'0:19.352',6.38
'0:19.355',7.66
'0:19.359',6.48
'0:19.363',3.27
'0:19.367',-0.24
'0:19.371',-2.58
'0:19.375',-3.46
'0:19.379',-3.7
'0:19.383',-3.63
'0:19.387',-3.32
'0:19.391',-2.95
'0:19.395',-2.82
'0:19.398',-2.85
'0:19.402',-2.53
'0:19.406',-2.07
'0:19.410',-1.76
'0:19.414',-1.53
'0:19.418',-1.41
'0:19.422',-1.31
'0:19.426',-1.22
'0:19.430',-1.05
'0:19.434',-0.69
'0:19.438',-0.2
'0:19.441',0.23
'0:19.445',0.37
'0:19.449',0.35
'0:19.453',0.27
'0:19.457',0.25
'0:19.461',0.27
'0:19.465',0.51
'0:19.469',0.98
'0:19.473',1.49
'0:19.477',1.94
'0:19.480',2.32
'0:19.484',2.62
'0:19.488',2.75
'0:19.492',2.85
'0:19.496',2.98
'0:19.500',3.07
'0:19.504',3.05
'0:19.508',2.9
'0:19.512',2.63
'0:19.516',2.25
'0:19.520',1.86
'0:19.523',1.38
'0:19.527',0.93
