'0:00.000',-3.07
'0:00.004',-2.91
'0:00.008',-3.23
'0:00.012',-3.56
'0:00.016',-3.66
'0:00.020',-3.42
'0:00.023',-3.08
'0:00.027',-3.11
'0:00.031',-3.39
'0:00.035',-3.63
'0:00.039',-4.88
'0:00.043',-3.5
'0:00.047',0.2
'0:00.051',4.86
'0:00.055',9.36
'0:00.059',12.27
'0:00.063',10.35
'0:00.066',4.97
'0:00.070',0.02
'0:00.074',-4.08
'0:00.078',-7.33
'0:00.082',-9.03
'0:00.086',-9.46
'0:00.090',-9.49
'0:00.094',-8.89
'0:00.098',-7.54
'0:00.102',-5.76
'0:00.105',-3.82
'0:00.109',-2.92
'0:00.113',-4.59
'0:00.117',-5.16
'0:00.121',-4.71
'0:00.125',-3.51
'0:00.129',-2.17
'0:00.133',-2.75
'0:00.137',-3.99
'0:00.141',-2.94
'0:00.145',-0.51
'0:00.148',1.09
'0:00.152',1.97
'0:00.156',3.22
'0:00.160',4.07
'0:00.164',4.34
'0:00.168',4.25
'0:00.172',4.22
'0:00.176',4.79
'0:00.180',5.5
'0:00.184',6.03
'0:00.188',6.01
'0:00.191',5.24
'0:00.195',4.66
'0:00.199',4.41
'0:00.203',3.99
'0:00.207',3.51
'0:00.211',3.23
'0:00.215',3.22
'0:00.219',3.17
'0:00.223',2.66
'0:00.227',1.75
'0:00.230',1.24
'0:00.234',1.25
'0:00.238',1.3
'0:00.242',1.35
'0:00.246',1.52
'0:00.250',1.46
'0:00.254',1.32
'0:00.258',1.38
'0:00.262',1.33
'0:00.266',1.53
'0:00.270',1.4
'0:00.273',1.56
'0:00.277',1.57
'0:00.281',1.57
'0:00.285',1.11
'0:00.289',0.46
'0:00.293',0.32
'0:00.297',0.46
'0:00.301',0.89
'0:00.305',0.7
'0:00.309',-0.06
'0:00.313',-0.79
'0:00.316',-1.66
'0:00.320',-2.22
'0:00.324',-2.49
'0:00.328',-2.5
'0:00.332',-2.15
'0:00.336',-2.12
'0:00.340',-2.19
'0:00.344',-2.32
'0:00.348',-2.44
'0:00.352',-2.56
'0:00.355',-2.2
'0:00.359',-1.15
'0:00.363',0.37
'0:00.367',2.66
'0:00.371',6.01
'0:00.375',9.94
'0:00.379',12.91
'0:00.383',11.47
'0:00.387',6.2
'0:00.391',0.92
'0:00.395',-3
'0:00.398',-6.02
'0:00.402',-8.22
'0:00.406',-9.46
'0:00.410',-9.77
'0:00.414',-9.32
'0:00.418',-8.13
'0:00.422',-6.51
'0:00.426',-5.01
'0:00.430',-3.7
'0:00.434',-2.64
'0:00.438',-1.8
'0:00.441',-1.47
'0:00.445',-1.24
'0:00.449',-0.7
'0:00.453',-0.17
'0:00.457',0
'0:00.461',0.03
'0:00.465',0.25
'0:00.469',0.55
'0:00.473',0.95
'0:00.477',1.24
'0:00.480',1.34
'0:00.484',1.34
'0:00.488',2.35
'0:00.492',2.57
'0:00.496',2.76
'0:00.500',2.99
'0:00.504',3
'0:00.508',3.21
'0:00.512',3.41
'0:00.516',3.26
'0:00.520',2.8
'0:00.523',2.25
'0:00.527',1.85
'0:00.531',1.73
'0:00.535',1.73
'0:00.539',1.59
'0:00.543',1.18
'0:00.547',0.78
'0:00.551',0.71
'0:00.555',0.52
'0:00.559',0.03
'0:00.563',-0.34
'0:00.566',-0.11
'0:00.570',0.39
'0:00.574',0.63
'0:00.578',0.75
'0:00.582',0.97
'0:00.586',1.41
'0:00.590',1.63
'0:00.594',1.2
'0:00.598',0.58
'0:00.602',0.23
'0:00.605',0.19
'0:00.609',0.33
'0:00.613',0.41
'0:00.617',0.32
'0:00.621',-0.17
'0:00.625',-0.78
'0:00.629',-1.36
'0:00.633',-1.86
'0:00.637',-2.24
'0:00.641',-2.47
'0:00.645',-2.53
'0:00.648',-2.53
'0:00.652',-2.66
'0:00.656',-2.8
'0:00.660',-2.64
'0:00.664',-2.56
'0:00.668',-2.78
'0:00.672',-3.14
'0:00.676',-2.94
'0:00.680',-1.87
'0:00.684',0.23
'0:00.688',3.36
'0:00.691',7.05
'0:00.695',10.76
'0:00.699',12.34
'0:00.703',8.95
'0:00.707',3.16
'0:00.711',-1.64
'0:00.715',-5.19
'0:00.719',-8.17
'0:00.723',-10
'0:00.727',-10.47
'0:00.730',-10.09
'0:00.734',-9.12
'0:00.738',-7.63
'0:00.742',-6.11
'0:00.746',-4.8
'0:00.750',-3.49
'0:00.754',-2.23
'0:00.758',-1.36
'0:00.762',-0.83
'0:00.766',-0.48
'0:00.770',-0.27
'0:00.773',-0.16
'0:00.777',-0.01
'0:00.781',0.16
'0:00.785',0.49
'0:00.789',0.74
'0:00.793',0.97
'0:00.797',1.25
'0:00.801',1.56
'0:00.805',1.84
'0:00.809',2.09
'0:00.813',2.43
'0:00.816',2.78
'0:00.820',3.02
'0:00.824',3.29
'0:00.828',3.33
'0:00.832',3.12
'0:00.836',2.82
'0:00.840',2.47
'0:00.844',2.21
'0:00.848',2.17
'0:00.852',2.09
'0:00.855',1.79
'0:00.859',1.33
'0:00.863',0.91
'0:00.867',0.4
'0:00.871',-0.13
'0:00.875',-0.53
'0:00.879',-0.58
'0:00.883',-0.24
'0:00.887',0.03
'0:00.891',0.23
'0:00.895',0.38
'0:00.898',0.54
'0:00.902',0.68
'0:00.906',0.88
'0:00.910',1.14
'0:00.914',1.11
'0:00.918',1.12
'0:00.922',1.22
'0:00.926',0.98
'0:00.930',0.62
'0:00.934',0.12
'0:00.938',-0.29
'0:00.941',-0.54
'0:00.945',-0.77
'0:00.949',-1.11
'0:00.953',-1.55
'0:00.957',-1.86
'0:00.961',-1.94
'0:00.965',-1.94
'0:00.969',-2.15
'0:00.973',-2.28
'0:00.977',-2.17
'0:00.980',-2.09
'0:00.984',-2.33
'0:00.988',-2.73
'0:00.992',-2.97
'0:00.996',-2.47
'0:01.000',-1.24
'0:01.004',1.01
'0:01.008',4.65
'0:01.012',8.85
'0:01.016',12.65
'0:01.020',12.71
'0:01.023',7.75
'0:01.027',1.92
'0:01.031',-2.87
'0:01.035',-6.56
'0:01.039',-9.01
'0:01.043',-10.15
'0:01.047',-9.98
'0:01.051',-8.87
'0:01.055',-7.23
'0:01.059',-5.66
'0:01.063',-4.52
'0:01.066',-3.37
'0:01.070',-1.86
'0:01.074',-0.74
'0:01.078',-0.12
'0:01.082',0.23
'0:01.086',0.42
'0:01.090',0.66
'0:01.094',0.92
'0:01.098',0.96
'0:01.102',0.86
'0:01.105',0.92
'0:01.109',1.42
'0:01.113',1.98
'0:01.117',2.53
'0:01.121',2.85
'0:01.125',3.17
'0:01.129',3.53
'0:01.133',3.84
'0:01.137',4.11
'0:01.141',4.28
'0:01.145',4.4
'0:01.148',4.43
'0:01.152',4.31
'0:01.156',4.05
'0:01.160',3.65
'0:01.164',3.31
'0:01.168',2.98
'0:01.172',2.62
'0:01.176',2.19
'0:01.180',1.62
'0:01.184',1.01
'0:01.188',0.68
'0:01.191',0.45
'0:01.195',0.39
'0:01.199',0.25
'0:01.203',0.29
'0:01.207',0.33
'0:01.211',0.4
'0:01.215',0.68
'0:01.219',0.97
'0:01.223',1.08
'0:01.227',1.21
'0:01.230',1.39
'0:01.234',1.34
'0:01.238',1.02
'0:01.242',0.79
'0:01.246',0.64
'0:01.250',0.28
'0:01.254',-0.01
'0:01.258',-0.34
'0:01.262',-0.94
'0:01.266',-1.57
'0:01.270',-2.32
'0:01.273',-2.57
'0:01.277',-2.33
'0:01.281',-2.55
'0:01.285',-2.87
'0:01.289',-2.68
'0:01.293',-2.35
'0:01.297',-2.44
'0:01.301',-2.48
'0:01.305',-2.65
'0:01.309',-3
'0:01.313',-3.33
'0:01.316',-2.96
'0:01.320',-1.34
'0:01.324',2.15
'0:01.328',6.87
'0:01.332',11.42
'0:01.336',14.28
'0:01.340',12.07
'0:01.344',6.05
'0:01.348',0.49
'0:01.352',-3.72
'0:01.355',-7.04
'0:01.359',-9.49
'0:01.363',-10.75
'0:01.367',-10.6
'0:01.371',-9.51
'0:01.375',-7.96
'0:01.379',-6.13
'0:01.383',-4.47
'0:01.387',-2.96
'0:01.391',-1.84
'0:01.395',-1.27
'0:01.398',-0.83
'0:01.402',-0.61
'0:01.406',-0.49
'0:01.410',-0.2
'0:01.414',0.22
'0:01.418',0.66
'0:01.422',0.98
'0:01.426',1.18
'0:01.430',1.27
'0:01.434',1.22
'0:01.438',1.35
'0:01.441',1.68
'0:01.445',2.19
'0:01.449',2.78
'0:01.453',3.2
'0:01.457',3.47
'0:01.461',3.56
'0:01.465',3.47
'0:01.469',3.41
'0:01.473',3.29
'0:01.477',3.27
'0:01.480',3.11
'0:01.484',2.75
'0:01.488',2.28
'0:01.492',1.73
'0:01.496',1.23
'0:01.500',0.89
'0:01.504',0.46
'0:01.508',-0.04
'0:01.512',-0.3
'0:01.516',-0.41
'0:01.520',-0.41
'0:01.523',-0.47
'0:01.527',-0.42
'0:01.531',-0.22
'0:01.535',0.14
'0:01.539',0.53
'0:01.543',0.79
'0:01.547',0.97
'0:01.551',0.98
'0:01.555',0.74
'0:01.559',0.43
'0:01.563',0.26
'0:01.566',0
'0:01.570',-0.61
'0:01.574',-1.07
'0:01.578',-1.48
'0:01.582',-1.89
'0:01.586',-2.16
'0:01.590',-2.47
'0:01.594',-2.93
'0:01.598',-3.4
'0:01.602',-3.76
'0:01.605',-3.94
'0:01.609',-4.04
'0:01.613',-4.01
'0:01.617',-3.97
'0:01.621',-3.99
'0:01.625',-4.22
'0:01.629',-4.35
'0:01.633',-4.1
'0:01.637',-3.24
'0:01.641',-1.55
'0:01.645',1.17
'0:01.648',4.79
'0:01.652',8.94
'0:01.656',11.63
'0:01.660',9.21
'0:01.664',3.71
'0:01.668',-1.21
'0:01.672',-4.59
'0:01.676',-7.31
'0:01.680',-9.16
'0:01.684',-10.04
'0:01.688',-10.2
'0:01.691',-9.44
'0:01.695',-8.25
'0:01.699',-6.84
'0:01.703',-5.27
'0:01.707',-3.74
'0:01.711',-2.69
'0:01.715',-1.81
'0:01.719',-1.26
'0:01.723',-0.97
'0:01.727',-0.61
'0:01.730',-0.16
'0:01.734',0.07
'0:01.738',0.34
'0:01.742',0.76
'0:01.746',1.29
'0:01.750',1.66
'0:01.754',1.92
'0:01.758',2.23
'0:01.762',2.83
'0:01.766',3.24
'0:01.770',3.43
'0:01.773',3.22
'0:01.777',3.47
'0:01.781',3.97
'0:01.785',3.98
'0:01.789',3.7
'0:01.793',3.43
'0:01.797',3.4
'0:01.801',3.33
'0:01.805',3
'0:01.809',2.73
'0:01.813',2.02
'0:01.816',1.62
'0:01.820',1.2
'0:01.824',0.87
'0:01.828',0.52
'0:01.832',0.18
'0:01.836',0.28
'0:01.840',0.31
'0:01.844',0.18
'0:01.848',0.41
'0:01.852',0.55
'0:01.855',0.85
'0:01.859',1.35
'0:01.863',1.31
'0:01.867',1.15
'0:01.871',1.2
'0:01.875',1.34
'0:01.879',1.39
'0:01.883',1.21
'0:01.887',0.72
'0:01.891',-0.09
'0:01.895',-0.08
'0:01.898',0.17
'0:01.902',-0.42
'0:01.906',-1.39
'0:01.910',-1.95
'0:01.914',-1.89
'0:01.918',-1.86
'0:01.922',-2.02
'0:01.926',-2.35
'0:01.930',-2.99
'0:01.934',-3.21
'0:01.938',-3.05
'0:01.941',-3.13
'0:01.945',-3.28
'0:01.949',-3.12
'0:01.953',-2.34
'0:01.957',-0.77
'0:01.961',1.25
'0:01.965',3.56
'0:01.969',6.52
'0:01.973',10.45
'0:01.977',13.33
'0:01.980',11.22
'0:01.984',5.32
'0:01.988',-0.08
'0:01.992',-3.59
'0:01.996',-6.37
'0:02.000',-8.55
'0:02.004',-9.45
'0:02.008',-9.88
'0:02.012',-9.36
'0:02.016',-7.68
'0:02.020',-6.04
'0:02.023',-4.91
'0:02.027',-3.68
'0:02.031',-2.09
'0:02.035',-1.47
'0:02.039',-1.26
'0:02.043',-1.09
'0:02.047',-1.08
'0:02.051',-0.61
'0:02.055',0.02
'0:02.059',0.2
'0:02.063',0.27
'0:02.066',0.29
'0:02.070',0.65
'0:02.074',1
'0:02.078',1.42
'0:02.082',1.91
'0:02.086',2.27
'0:02.090',2.74
'0:02.094',3.3
'0:02.098',3.41
'0:02.102',3.14
'0:02.105',3.04
'0:02.109',3.16
'0:02.113',3.26
'0:02.117',3.29
'0:02.121',3.23
'0:02.125',2.9
'0:02.129',2.32
'0:02.133',1.73
'0:02.137',1.09
'0:02.141',0.56
'0:02.145',0.24
'0:02.148',0.18
'0:02.152',0.23
'0:02.156',0
'0:02.160',-0.2
'0:02.164',-0.24
'0:02.168',-0.08
'0:02.172',0.12
'0:02.176',0.11
'0:02.180',0.21
'0:02.184',0.49
'0:02.188',1.11
'0:02.191',2
'0:02.195',2.6
'0:02.199',2.35
'0:02.203',1.39
'0:02.207',0.48
'0:02.211',0
'0:02.215',-0.05
'0:02.219',0.03
'0:02.223',-0.29
'0:02.227',-0.74
'0:02.230',-1.09
'0:02.234',-1.43
'0:02.238',-1.88
'0:02.242',-2.44
'0:02.246',-2.83
'0:02.250',-2.66
'0:02.254',-2.29
'0:02.258',-1.99
'0:02.262',-2.07
'0:02.266',-2.45
'0:02.270',-2.71
'0:02.273',-2.58
'0:02.277',-1.95
'0:02.281',-0.51
'0:02.285',1.9
'0:02.289',5.41
'0:02.293',9.68
'0:02.297',13.26
'0:02.301',12.91
'0:02.305',8.02
'0:02.309',2.33
'0:02.313',-2.18
'0:02.316',-5.63
'0:02.320',-8.2
'0:02.324',-9.83
'0:02.328',-10.27
'0:02.332',-9.54
'0:02.336',-8.12
'0:02.340',-6.52
'0:02.344',-5.08
'0:02.348',-3.72
'0:02.352',-2.61
'0:02.355',-1.87
'0:02.359',-1.28
'0:02.363',-0.68
'0:02.367',-0.13
'0:02.371',0.31
'0:02.375',0.4
'0:02.379',0.44
'0:02.383',0.62
'0:02.387',0.84
'0:02.391',1.09
'0:02.395',1.4
'0:02.398',1.73
'0:02.402',2.01
'0:02.406',2.36
'0:02.410',2.62
'0:02.414',2.8
'0:02.418',2.95
'0:02.422',3.06
'0:02.426',3.12
'0:02.430',3.06
'0:02.434',2.94
'0:02.438',2.64
'0:02.441',2.29
'0:02.445',2.09
'0:02.449',1.94
'0:02.453',1.75
'0:02.457',1.29
'0:02.461',0.74
'0:02.465',0.36
'0:02.469',0.12
'0:02.473',-0.12
'0:02.477',-0.27
'0:02.480',-0.39
'0:02.484',-0.46
'0:02.488',-0.33
'0:02.492',-0.2
'0:02.496',-0.01
'0:02.500',0.22
'0:02.504',0.53
'0:02.508',0.85
'0:02.512',1.09
'0:02.516',1.21
'0:02.520',1.27
'0:02.523',1.1
'0:02.527',0.79
'0:02.531',0.62
'0:02.535',0.53
'0:02.539',0.28
'0:02.543',-0.22
'0:02.547',-0.97
'0:02.551',-1.87
'0:02.555',-2.59
'0:02.559',-2.41
'0:02.563',-2.06
'0:02.566',-2.01
'0:02.570',-2.05
'0:02.574',-2.27
'0:02.578',-2.35
'0:02.582',-2.55
'0:02.586',-3.07
'0:02.590',-3.39
'0:02.594',-3.34
'0:02.598',-2.44
'0:02.602',-0.54
'0:02.605',2.17
'0:02.609',5.59
'0:02.613',9.35
'0:02.617',12.47
'0:02.621',11.56
'0:02.625',6.58
'0:02.629',1.43
'0:02.633',-2.72
'0:02.637',-6.19
'0:02.641',-8.67
'0:02.645',-9.78
'0:02.648',-9.7
'0:02.652',-8.89
'0:02.656',-7.23
'0:02.660',-5.55
'0:02.664',-4.17
'0:02.668',-3.01
'0:02.672',-2.04
'0:02.676',-1.32
'0:02.680',-0.74
'0:02.684',-0.47
'0:02.688',-0.23
'0:02.691',0.06
'0:02.695',0.3
'0:02.699',0.5
'0:02.703',0.6
'0:02.707',0.8
'0:02.711',1.21
'0:02.715',1.69
'0:02.719',2.12
'0:02.723',2.48
'0:02.727',3
'0:02.730',3.38
'0:02.734',3.74
'0:02.738',3.9
'0:02.742',3.86
'0:02.746',3.74
'0:02.750',3.67
'0:02.754',3.57
'0:02.758',3.61
'0:02.762',3.53
'0:02.766',3.31
'0:02.770',3.1
'0:02.773',2.7
'0:02.777',2.15
'0:02.781',1.47
'0:02.785',0.77
'0:02.789',0.25
'0:02.793',0.11
'0:02.797',0.15
'0:02.801',0.13
'0:02.805',0.2
'0:02.809',0.27
'0:02.813',0.4
'0:02.816',0.64
'0:02.820',1.07
'0:02.824',1.41
'0:02.828',1.5
'0:02.832',1.59
'0:02.836',1.6
'0:02.840',1.48
'0:02.844',1.18
'0:02.848',0.61
'0:02.852',0.12
'0:02.855',-0.26
'0:02.859',-0.59
'0:02.863',-0.82
'0:02.867',-1.39
'0:02.871',-1.88
'0:02.875',-1.92
'0:02.879',-2.16
'0:02.883',-2.51
'0:02.887',-2.62
'0:02.891',-2.59
'0:02.895',-2.53
'0:02.898',-2.29
'0:02.902',-2.14
'0:02.906',-2.87
'0:02.910',-3.74
'0:02.914',-3.63
'0:02.918',-2.45
'0:02.922',-0.75
'0:02.926',1.39
'0:02.930',4.44
'0:02.934',8.23
'0:02.938',11.58
'0:02.941',11.33
'0:02.945',6.77
'0:02.949',1.49
'0:02.953',-2.67
'0:02.957',-5.97
'0:02.961',-8.27
'0:02.965',-9.64
'0:02.969',-9.98
'0:02.973',-9.14
'0:02.977',-7.71
'0:02.980',-6.27
'0:02.984',-4.98
'0:02.988',-3.81
'0:02.992',-2.7
'0:02.996',-1.75
'0:03.000',-0.9
'0:03.004',-0.48
'0:03.008',-0.2
'0:03.012',0.07
'0:03.016',0.37
'0:03.020',0.79
'0:03.023',1.1
'0:03.027',0.98
'0:03.031',0.86
'0:03.035',0.98
'0:03.039',1.6
'0:03.043',2.37
'0:03.047',2.88
'0:03.051',3.27
'0:03.055',3.57
'0:03.059',3.84
'0:03.063',3.93
'0:03.066',3.88
'0:03.070',3.8
'0:03.074',3.6
'0:03.078',3.49
'0:03.082',3.37
'0:03.086',3.39
'0:03.090',3.12
'0:03.094',2.4
'0:03.098',1.65
'0:03.102',1.07
'0:03.105',0.62
'0:03.109',0.31
'0:03.113',0.31
'0:03.117',0.49
'0:03.121',0.41
'0:03.125',0.23
'0:03.129',0.21
'0:03.133',0.44
'0:03.137',0.62
'0:03.141',0.73
'0:03.145',0.79
'0:03.148',1
'0:03.152',1.19
'0:03.156',1.05
'0:03.160',0.8
'0:03.164',0.42
'0:03.168',0.17
'0:03.172',0.07
'0:03.176',-0.24
'0:03.180',-0.78
'0:03.184',-1.5
'0:03.188',-2.1
'0:03.191',-2.52
'0:03.195',-2.7
'0:03.199',-2.68
'0:03.203',-2.83
'0:03.207',-3.14
'0:03.211',-3.36
'0:03.215',-3.28
'0:03.219',-3.08
'0:03.223',-3.07
'0:03.227',-3.34
'0:03.230',-3.64
'0:03.234',-3.53
'0:03.238',-2.79
'0:03.242',-1.19
'0:03.246',1.47
'0:03.250',4.96
'0:03.254',8.76
'0:03.258',11.25
'0:03.262',8.93
'0:03.266',3.52
'0:03.270',-1.13
'0:03.273',-4.44
'0:03.277',-7.35
'0:03.281',-9.59
'0:03.285',-10.55
'0:03.289',-10.3
'0:03.293',-9.23
'0:03.297',-7.7
'0:03.301',-5.96
'0:03.305',-4.4
'0:03.309',-3.35
'0:03.313',-2.37
'0:03.316',-1.72
'0:03.320',-1.27
'0:03.324',-0.8
'0:03.328',-0.46
'0:03.332',-0.21
'0:03.336',0.05
'0:03.340',0.32
'0:03.344',0.34
'0:03.348',0.33
'0:03.352',0.54
'0:03.355',1.15
'0:03.359',1.66
'0:03.363',1.96
'0:03.367',2.27
'0:03.371',2.66
'0:03.375',2.93
'0:03.379',3.08
'0:03.383',3.02
'0:03.387',3.09
'0:03.391',3.41
'0:03.395',3.59
'0:03.398',3.24
'0:03.402',2.64
'0:03.406',2.18
'0:03.410',1.73
'0:03.414',1.31
'0:03.418',1.09
'0:03.422',0.86
'0:03.426',0.73
'0:03.430',0.34
'0:03.434',0.02
'0:03.438',0.06
'0:03.441',-0.06
'0:03.445',0.04
'0:03.449',0.32
'0:03.453',0.39
'0:03.457',0.6
'0:03.461',0.73
'0:03.465',0.75
'0:03.469',0.88
'0:03.473',1.19
'0:03.477',1.32
'0:03.480',1.27
'0:03.484',1
'0:03.488',0.45
'0:03.492',0.16
'0:03.496',0.06
'0:03.500',0
'0:03.504',-0.28
'0:03.508',-0.87
'0:03.512',-1.51
'0:03.516',-2.05
'0:03.520',-2.26
'0:03.523',-2.29
'0:03.527',-2.38
'0:03.531',-2.32
'0:03.535',-2.33
'0:03.539',-2.36
'0:03.543',-2.45
'0:03.547',-2.16
'0:03.551',-2.12
'0:03.555',-2.29
'0:03.559',-1.82
'0:03.563',-0.26
'0:03.566',2.51
'0:03.570',6.14
'0:03.574',10.25
'0:03.578',12.68
'0:03.582',10.25
'0:03.586',4.46
'0:03.590',-0.29
'0:03.594',-3.06
'0:03.598',-5.42
'0:03.602',-7.51
'0:03.605',-9
'0:03.609',-9.57
'0:03.613',-9.19
'0:03.617',-7.61
'0:03.621',-5.41
'0:03.625',-3.75
'0:03.629',-2.57
'0:03.633',-1.92
'0:03.637',-1.28
'0:03.641',-0.64
'0:03.645',-0.48
'0:03.648',-0.38
'0:03.652',0.15
'0:03.656',0.41
'0:03.660',0.56
'0:03.664',0.72
'0:03.668',1.24
'0:03.672',1.75
'0:03.676',1.95
'0:03.680',1.94
'0:03.684',2.21
'0:03.688',2.37
'0:03.691',3.02
'0:03.695',3.58
'0:03.699',3.54
'0:03.703',3.22
'0:03.707',3.54
'0:03.711',3.9
'0:03.715',3.61
'0:03.719',3.15
'0:03.723',2.99
'0:03.727',3.28
'0:03.730',3.25
'0:03.734',2.6
'0:03.738',2.04
'0:03.742',1.45
'0:03.746',0.6
'0:03.750',0.13
'0:03.754',0.08
'0:03.758',0.15
'0:03.762',0.26
'0:03.766',0.4
'0:03.770',0.41
'0:03.773',0.48
'0:03.777',0.55
'0:03.781',0.92
'0:03.785',1.23
'0:03.789',1.55
'0:03.793',1.91
'0:03.797',1.67
'0:03.801',1.14
'0:03.805',0.7
'0:03.809',0.31
'0:03.813',0.37
'0:03.816',0.53
'0:03.820',0.14
'0:03.824',-0.19
'0:03.828',-0.43
'0:03.832',-0.96
'0:03.836',-1.63
'0:03.840',-2.16
'0:03.844',-2.45
'0:03.848',-2.39
'0:03.852',-2.23
'0:03.855',-2.1
'0:03.859',-2.09
'0:03.863',-2.29
'0:03.867',-2.52
'0:03.871',-2.45
'0:03.875',-2.32
'0:03.879',-2.08
'0:03.883',-1.02
'0:03.887',1.35
'0:03.891',5.03
'0:03.895',9.43
'0:03.898',13.36
'0:03.902',13.84
'0:03.906',9.36
'0:03.910',3.49
'0:03.914',-1.27
'0:03.918',-4.83
'0:03.922',-7.64
'0:03.926',-9.2
'0:03.930',-9.49
'0:03.934',-8.9
'0:03.938',-7.94
'0:03.941',-6.9
'0:03.945',-5.74
'0:03.949',-4.39
'0:03.953',-3.2
'0:03.957',-2.24
'0:03.961',-1.39
'0:03.965',-0.66
'0:03.969',-0.15
'0:03.973',0.18
'0:03.977',0.56
'0:03.980',0.83
'0:03.984',0.9
'0:03.988',0.95
'0:03.992',1.13
'0:03.996',1.37
'0:04.000',1.66
'0:04.004',2.05
'0:04.008',2.49
'0:04.012',2.93
'0:04.016',3.22
'0:04.020',3.43
'0:04.023',3.69
'0:04.027',3.99
'0:04.031',4.1
'0:04.035',3.81
'0:04.039',3.36
'0:04.043',3.14
'0:04.047',2.99
'0:04.051',2.73
'0:04.055',2.33
'0:04.059',1.83
'0:04.063',1.34
'0:04.066',0.89
'0:04.070',0.47
'0:04.074',0.17
'0:04.078',-0.07
'0:04.082',-0.21
'0:04.086',-0.26
'0:04.090',-0.37
'0:04.094',-0.46
'0:04.098',-0.22
'0:04.102',0.33
'0:04.105',1.01
'0:04.109',1.51
'0:04.113',1.66
'0:04.117',1.47
'0:04.121',0.99
'0:04.125',0.57
'0:04.129',0.31
'0:04.133',0.12
'0:04.137',-0.23
'0:04.141',-0.52
'0:04.145',-0.75
'0:04.148',-1.14
'0:04.152',-1.53
'0:04.156',-1.99
'0:04.160',-2.39
'0:04.164',-2.47
'0:04.168',-2.31
'0:04.172',-2.49
'0:04.176',-2.78
'0:04.180',-3
'0:04.184',-3.06
'0:04.188',-3.29
'0:04.191',-4.18
'0:04.195',-5.27
'0:04.199',-5.42
'0:04.203',-4.35
'0:04.207',-2.19
'0:04.211',1.09
'0:04.215',5.06
'0:04.219',8.93
'0:04.223',9.88
'0:04.227',5.7
'0:04.230',-0.01
'0:04.234',-4.69
'0:04.238',-8.11
'0:04.242',-10.35
'0:04.246',-11.54
'0:04.250',-11.64
'0:04.254',-10.8
'0:04.258',-9.37
'0:04.262',-7.72
'0:04.266',-6.22
'0:04.270',-4.88
'0:04.273',-3.77
'0:04.277',-2.88
'0:04.281',-2.08
'0:04.285',-1.38
'0:04.289',-0.95
'0:04.293',-0.63
'0:04.297',-0.35
'0:04.301',0.02
'0:04.305',0.28
'0:04.309',0.43
'0:04.313',0.6
'0:04.316',0.82
'0:04.320',1.19
'0:04.324',1.62
'0:04.328',1.99
'0:04.332',2.27
'0:04.336',2.64
'0:04.340',3.22
'0:04.344',4.32
'0:04.348',4.29
'0:04.352',4.35
'0:04.355',4.24
'0:04.359',3.64
'0:04.363',2.99
'0:04.367',2.64
'0:04.371',2.38
'0:04.375',2.13
'0:04.379',1.81
'0:04.383',1.47
'0:04.387',1.1
'0:04.391',0.69
'0:04.395',0.47
'0:04.398',0.42
'0:04.402',0.31
'0:04.406',0.18
'0:04.410',0.37
'0:04.414',0.74
'0:04.418',1.07
'0:04.422',1.39
'0:04.426',1.71
'0:04.430',1.92
'0:04.434',2.02
'0:04.438',1.87
'0:04.441',1.52
'0:04.445',1.08
'0:04.449',0.77
'0:04.453',0.74
'0:04.457',0.76
'0:04.461',0.59
'0:04.465',0.18
'0:04.469',-0.46
'0:04.473',-1.1
'0:04.477',-1.55
'0:04.480',-1.96
'0:04.484',-2.23
'0:04.488',-2.3
'0:04.492',-2.22
'0:04.496',-2.15
'0:04.500',-2.07
'0:04.504',-2.2
'0:04.508',-2.6
'0:04.512',-2.95
'0:04.516',-3.05
'0:04.520',-2.51
'0:04.523',-1.06
'0:04.527',1.26
'0:04.531',4.32
'0:04.535',7.95
'0:04.539',11.59
'0:04.543',12.26
'0:04.547',8.38
'0:04.551',3.09
'0:04.555',-1.2
'0:04.559',-4.65
'0:04.563',-7.85
'0:04.566',-8.67
'0:04.570',-8.48
'0:04.574',-7.44
'0:04.578',-5.63
'0:04.582',-3.63
'0:04.586',-2.02
'0:04.590',-0.74
'0:04.594',0.26
'0:04.598',0.97
'0:04.602',1.51
'0:04.605',1.74
'0:04.609',2.04
'0:04.613',2.25
'0:04.617',2.32
'0:04.621',2.44
'0:04.625',2.5
'0:04.629',2.7
'0:04.633',2.73
'0:04.637',2.72
'0:04.641',2.75
'0:04.645',3.09
'0:04.648',3.57
'0:04.652',4.04
'0:04.656',4.35
'0:04.660',4.58
'0:04.664',4.53
'0:04.668',4.37
'0:04.672',4.31
'0:04.676',4.07
'0:04.680',3.82
'0:04.684',3.58
'0:04.688',3.23
'0:04.691',2.77
'0:04.695',2.28
'0:04.699',1.94
'0:04.703',1.68
'0:04.707',1.48
'0:04.711',1.17
'0:04.715',0.82
'0:04.719',0.52
'0:04.723',0.29
'0:04.727',0.32
'0:04.730',0.4
'0:04.734',0.4
'0:04.738',0.4
'0:04.742',0.48
'0:04.746',0.69
'0:04.750',1.11
'0:04.754',1.5
'0:04.758',1.39
'0:04.762',0.94
'0:04.766',0.72
'0:04.770',0.65
'0:04.773',0.31
'0:04.777',-0.33
'0:04.781',-1.02
'0:04.785',-1.48
'0:04.789',-1.82
'0:04.793',-2.14
'0:04.797',-2.35
'0:04.801',-2.51
'0:04.805',-2.75
'0:04.809',-2.81
'0:04.813',-2.71
'0:04.816',-2.76
'0:04.820',-3.08
'0:04.824',-3.43
'0:04.828',-3.77
'0:04.832',-3.92
'0:04.836',-3.76
'0:04.840',-2.94
'0:04.844',-1.26
'0:04.848',1.36
'0:04.852',4.72
'0:04.855',8.39
'0:04.859',10.8
'0:04.863',8.67
'0:04.867',3.4
'0:04.871',-1.39
'0:04.875',-5.09
'0:04.879',-8
'0:04.883',-9.95
'0:04.887',-10.73
'0:04.891',-10.39
'0:04.895',-9.3
'0:04.898',-7.77
'0:04.902',-6.02
'0:04.906',-4.4
'0:04.910',-3.2
'0:04.914',-2.48
'0:04.918',-2.02
'0:04.922',-1.66
'0:04.926',-1.27
'0:04.930',-0.83
'0:04.934',-0.41
'0:04.938',-0.19
'0:04.941',-0.08
'0:04.945',0.11
'0:04.949',0.38
'0:04.953',0.68
'0:04.957',1.23
'0:04.961',1.79
'0:04.965',2.21
'0:04.969',2.45
'0:04.973',2.69
'0:04.977',2.87
'0:04.980',3.04
'0:04.984',3.17
'0:04.988',3.12
'0:04.992',3.1
'0:04.996',2.95
'0:05.000',2.74
'0:05.004',2.66
'0:05.008',2.46
'0:05.012',2.04
'0:05.016',1.34
'0:05.020',0.69
'0:05.023',0.39
'0:05.027',0.3
'0:05.031',0.14
'0:05.035',-0.1
'0:05.039',-0.37
'0:05.043',-0.5
'0:05.047',-0.62
'0:05.051',-0.57
'0:05.055',-0.33
'0:05.059',0.05
'0:05.063',0.32
'0:05.066',0.65
'0:05.070',1.01
'0:05.074',1.04
'0:05.078',0.82
'0:05.082',0.47
'0:05.086',0.06
'0:05.090',-0.32
'0:05.094',-0.83
'0:05.098',-1.33
'0:05.102',-1.56
'0:05.105',-1.61
'0:05.109',-1.83
'0:05.113',-2.23
'0:05.117',-2.52
'0:05.121',-2.59
'0:05.125',-2.98
'0:05.129',-3.35
'0:05.133',-3.38
'0:05.137',-3.41
'0:05.141',-3.45
'0:05.145',-3.46
'0:05.148',-3.52
'0:05.152',-3.6
'0:05.156',-3.33
'0:05.160',-2.44
'0:05.164',-1
'0:05.168',1.36
'0:05.172',4.61
'0:05.176',8.43
'0:05.180',10.78
'0:05.184',8.36
'0:05.188',3.31
'0:05.191',-0.79
'0:05.195',-3.59
'0:05.199',-6.06
'0:05.203',-7.92
'0:05.207',-8.96
'0:05.211',-9.39
'0:05.215',-8.94
'0:05.219',-7.6
'0:05.223',-5.9
'0:05.227',-4.23
'0:05.230',-2.73
'0:05.234',-1.4
'0:05.238',-0.58
'0:05.242',-0.17
'0:05.246',0.33
'0:05.250',0.6
'0:05.254',0.53
'0:05.258',0.52
'0:05.262',0.95
'0:05.266',1.39
'0:05.270',1.61
'0:05.273',1.9
'0:05.277',2.33
'0:05.281',2.71
'0:05.285',2.92
'0:05.289',3
'0:05.293',3.03
'0:05.297',3.13
'0:05.301',3.42
'0:05.305',3.85
'0:05.309',3.92
'0:05.313',3.65
'0:05.316',3.6
'0:05.320',3.45
'0:05.324',3.2
'0:05.328',2.72
'0:05.332',2.38
'0:05.336',2.1
'0:05.340',1.55
'0:05.344',1.24
'0:05.348',0.98
'0:05.352',0.68
'0:05.355',0.33
'0:05.359',0.14
'0:05.363',0.22
'0:05.367',0.29
'0:05.371',0.14
'0:05.375',0.04
'0:05.379',0.37
'0:05.383',0.73
'0:05.387',1.15
'0:05.391',1.45
'0:05.395',1.55
'0:05.398',1.64
'0:05.402',1.71
'0:05.406',1.76
'0:05.410',1.39
'0:05.414',0.85
'0:05.418',0.38
'0:05.422',-0.16
'0:05.426',-0.57
'0:05.430',-1.4
'0:05.434',-2.16
'0:05.438',-2.03
'0:05.441',-1.37
'0:05.445',-1.37
'0:05.449',-1.97
'0:05.453',-2.27
'0:05.457',-2.49
'0:05.461',-2.72
'0:05.465',-2.96
'0:05.469',-2.89
'0:05.473',-2.81
'0:05.477',-2.81
'0:05.480',-2.27
'0:05.484',-0.7
'0:05.488',1.66
'0:05.492',4.84
'0:05.496',8.46
'0:05.500',11.6
'0:05.504',11.2
'0:05.508',6.71
'0:05.512',1.73
'0:05.516',-1.78
'0:05.520',-4.9
'0:05.523',-7.8
'0:05.527',-9.54
'0:05.531',-9.97
'0:05.535',-9.32
'0:05.539',-8.04
'0:05.543',-6.65
'0:05.547',-5.3
'0:05.551',-4.12
'0:05.555',-3.16
'0:05.559',-2.3
'0:05.563',-1.46
'0:05.566',-0.79
'0:05.570',-0.39
'0:05.574',-0.15
'0:05.578',-0.09
'0:05.582',0.2
'0:05.586',0.6
'0:05.590',0.7
'0:05.594',0.9
'0:05.598',1.27
'0:05.602',1.73
'0:05.605',2.15
'0:05.609',2.45
'0:05.613',2.81
'0:05.617',3.19
'0:05.621',3.43
'0:05.625',3.64
'0:05.629',3.94
'0:05.633',3.87
'0:05.637',3.5
'0:05.641',3.11
'0:05.645',2.73
'0:05.648',2.57
'0:05.652',2.41
'0:05.656',2.03
'0:05.660',1.73
'0:05.664',1.43
'0:05.668',1.08
'0:05.672',0.72
'0:05.676',0.53
'0:05.680',0.36
'0:05.684',0.25
'0:05.688',0.33
'0:05.691',0.52
'0:05.695',0.59
'0:05.699',0.64
'0:05.703',0.72
'0:05.707',0.96
'0:05.711',1.18
'0:05.715',1.3
'0:05.719',1.27
'0:05.723',1.16
'0:05.727',1.06
'0:05.730',0.92
'0:05.734',0.55
'0:05.738',-0.03
'0:05.742',-0.41
'0:05.746',-0.63
'0:05.750',-0.87
'0:05.754',-1.24
'0:05.758',-1.57
'0:05.762',-1.95
'0:05.766',-2.4
'0:05.770',-2.96
'0:05.773',-3.38
'0:05.777',-3.69
'0:05.781',-3.82
'0:05.785',-3.82
'0:05.789',-3.98
'0:05.793',-4.25
'0:05.797',-4.28
'0:05.801',-3.83
'0:05.805',-2.62
'0:05.809',-0.42
'0:05.813',2.6
'0:05.816',6.26
'0:05.820',9.94
'0:05.824',10.69
'0:05.828',6.65
'0:05.832',1.47
'0:05.836',-2.59
'0:05.840',-5.9
'0:05.844',-8.3
'0:05.848',-9.53
'0:05.852',-9.57
'0:05.855',-8.74
'0:05.859',-7.56
'0:05.863',-6.42
'0:05.867',-5.11
'0:05.871',-3.41
'0:05.875',-1.98
'0:05.879',-1.02
'0:05.883',-0.4
'0:05.887',0.16
'0:05.891',0.56
'0:05.895',0.84
'0:05.898',0.95
'0:05.902',1.16
'0:05.906',1.27
'0:05.910',1.56
'0:05.914',1.89
'0:05.918',2.22
'0:05.922',2.53
'0:05.926',2.95
'0:05.930',3.05
'0:05.934',2.55
'0:05.938',2.23
'0:05.941',2.33
'0:05.945',2.73
'0:05.949',3.01
'0:05.953',3.12
'0:05.957',3.11
'0:05.961',2.84
'0:05.965',2.65
'0:05.969',2.28
'0:05.973',1.83
'0:05.977',1.39
'0:05.980',1.15
'0:05.984',1.15
'0:05.988',1.07
'0:05.992',0.69
'0:05.996',0.29
'0:06.000',0.08
'0:06.004',0.14
'0:06.008',0.36
'0:06.012',0.53
'0:06.016',0.6
'0:06.020',0.72
'0:06.023',1.27
'0:06.027',1.96
'0:06.031',2.09
'0:06.035',1.85
'0:06.039',1.59
'0:06.043',1.35
'0:06.047',1.18
'0:06.051',1.17
'0:06.055',1.17
'0:06.059',1.1
'0:06.063',0.82
'0:06.066',0.35
'0:06.070',-0.13
'0:06.074',-0.66
'0:06.078',-1.26
'0:06.082',-1.72
'0:06.086',-1.97
'0:06.090',-2.27
'0:06.094',-2.32
'0:06.098',-2.04
'0:06.102',-1.77
'0:06.105',-1.58
'0:06.109',-1.68
'0:06.113',-2.09
'0:06.117',-2.44
'0:06.121',-2.37
'0:06.125',-1.55
'0:06.129',0.15
'0:06.133',2.56
'0:06.137',5.61
'0:06.141',8.98
'0:06.145',10.16
'0:06.148',6.86
'0:06.152',2.21
'0:06.156',-1.54
'0:06.160',-4.26
'0:06.164',-6.37
'0:06.168',-7.95
'0:06.172',-8.68
'0:06.176',-8.42
'0:06.180',-7.48
'0:06.184',-5.87
'0:06.188',-4.28
'0:06.191',-3.04
'0:06.195',-2.06
'0:06.199',-1.31
'0:06.203',-0.79
'0:06.207',-0.25
'0:06.211',0.11
'0:06.215',0.27
'0:06.219',0.39
'0:06.223',0.51
'0:06.227',0.97
'0:06.230',1.48
'0:06.234',2.03
'0:06.238',2.44
'0:06.242',2.67
'0:06.246',2.81
'0:06.250',2.82
'0:06.254',3.18
'0:06.258',3.87
'0:06.262',4.48
'0:06.266',4.55
'0:06.270',4.23
'0:06.273',3.79
'0:06.277',3.52
'0:06.281',3.43
'0:06.285',3.04
'0:06.289',2.55
'0:06.293',2.32
'0:06.297',2.41
'0:06.301',2.23
'0:06.305',1.57
'0:06.309',1.07
'0:06.313',0.85
'0:06.316',0.75
'0:06.320',0.4
'0:06.324',0.07
'0:06.328',-0.09
'0:06.332',-0.03
'0:06.336',0.12
'0:06.340',0.33
'0:06.344',0.52
'0:06.348',0.72
'0:06.352',0.98
'0:06.355',1.37
'0:06.359',1.56
'0:06.363',1.5
'0:06.367',1.07
'0:06.371',0.51
'0:06.375',0.1
'0:06.379',-0.13
'0:06.383',-0.23
'0:06.387',-0.65
'0:06.391',-1.42
'0:06.395',-1.95
'0:06.398',-2.2
'0:06.402',-2.39
'0:06.406',-2.47
'0:06.410',-2.64
'0:06.414',-2.73
'0:06.418',-2.69
'0:06.422',-2.73
'0:06.426',-3.03
'0:06.430',-3.36
'0:06.434',-3.62
'0:06.438',-3.71
'0:06.441',-3.19
'0:06.445',-1.92
'0:06.449',0.4
'0:06.453',3.56
'0:06.457',7.18
'0:06.461',10.6
'0:06.465',10.62
'0:06.469',6.11
'0:06.473',1.23
'0:06.477',-2.4
'0:06.480',-5.61
'0:06.484',-8.26
'0:06.488',-9.87
'0:06.492',-10.28
'0:06.496',-9.66
'0:06.500',-8.33
'0:06.504',-6.8
'0:06.508',-5.3
'0:06.512',-4.02
'0:06.516',-2.97
'0:06.520',-2.14
'0:06.523',-1.56
'0:06.527',-1.19
'0:06.531',-0.98
'0:06.535',-0.81
'0:06.539',-0.53
'0:06.543',-0.12
'0:06.547',0.23
'0:06.551',0.65
'0:06.555',1.11
'0:06.559',1.35
'0:06.563',1.55
'0:06.566',1.72
'0:06.570',1.99
'0:06.574',2.2
'0:06.578',2.43
'0:06.582',2.71
'0:06.586',3.1
'0:06.590',3.41
'0:06.594',3.53
'0:06.598',3.54
'0:06.602',3.29
'0:06.605',2.97
'0:06.609',2.58
'0:06.613',2.05
'0:06.617',1.53
'0:06.621',1.21
'0:06.625',0.95
'0:06.629',0.64
'0:06.633',0.34
'0:06.637',0.02
'0:06.641',-0.57
'0:06.645',-0.8
'0:06.648',-0.58
'0:06.652',-0.04
'0:06.656',0.36
'0:06.660',0.35
'0:06.664',0.35
'0:06.668',0.48
'0:06.672',0.74
'0:06.676',0.93
'0:06.680',0.93
'0:06.684',0.91
'0:06.688',0.89
'0:06.691',0.54
'0:06.695',0
'0:06.699',-0.48
'0:06.703',-0.69
'0:06.707',-0.86
'0:06.711',-1.2
'0:06.715',-1.78
'0:06.719',-2.38
'0:06.723',-2.65
'0:06.727',-2.81
'0:06.730',-3.02
'0:06.734',-2.91
'0:06.738',-2.98
'0:06.742',-3.15
'0:06.746',-3.14
'0:06.750',-3.09
'0:06.754',-3.24
'0:06.758',-3.52
'0:06.762',-3.14
'0:06.766',-1.85
'0:06.770',0.28
'0:06.773',3.17
'0:06.777',6.46
'0:06.781',9.87
'0:06.785',10.64
'0:06.789',6.78
'0:06.793',1.99
'0:06.797',-1.55
'0:06.801',-4.47
'0:06.805',-7.16
'0:06.809',-8.94
'0:06.813',-9.62
'0:06.816',-9.46
'0:06.820',-8.34
'0:06.824',-6.84
'0:06.828',-5.33
'0:06.832',-3.94
'0:06.836',-2.98
'0:06.840',-2.02
'0:06.844',-1.36
'0:06.848',-0.89
'0:06.852',-0.46
'0:06.855',-0.29
'0:06.859',-0.13
'0:06.863',0.02
'0:06.867',0.27
'0:06.871',0.55
'0:06.875',0.74
'0:06.879',1.03
'0:06.883',1.26
'0:06.887',1.47
'0:06.891',1.79
'0:06.895',2.09
'0:06.898',2.39
'0:06.902',2.66
'0:06.906',2.92
'0:06.910',2.86
'0:06.914',2.76
'0:06.918',2.81
'0:06.922',2.8
'0:06.926',2.44
'0:06.930',2.09
'0:06.934',1.93
'0:06.938',1.89
'0:06.941',1.54
'0:06.945',0.71
'0:06.949',0.24
'0:06.953',0.11
'0:06.957',0.1
'0:06.961',0.02
'0:06.965',-0.04
'0:06.969',-0.04
'0:06.973',0.05
'0:06.977',-0.01
'0:06.980',-0.13
'0:06.984',-0.06
'0:06.988',0.44
'0:06.992',0.95
'0:06.996',1.48
'0:07.000',1.93
'0:07.004',1.69
'0:07.008',1.09
'0:07.012',0.56
'0:07.016',0.37
'0:07.020',0.48
'0:07.023',0.52
'0:07.027',0.21
'0:07.031',-0.45
'0:07.035',-1.14
'0:07.039',-1.84
'0:07.043',-2.36
'0:07.047',-2.63
'0:07.051',-2.92
'0:07.055',-3.21
'0:07.059',-3.58
'0:07.063',-3.93
'0:07.066',-4.24
'0:07.070',-4.43
'0:07.074',-4.53
'0:07.078',-4.33
'0:07.082',-3.54
'0:07.086',-2.31
'0:07.090',-0.51
'0:07.094',2.29
'0:07.098',6.12
'0:07.102',10.31
'0:07.105',12.76
'0:07.109',10.53
'0:07.113',4.95
'0:07.117',-0.09
'0:07.121',-3.99
'0:07.125',-7.07
'0:07.129',-9.11
'0:07.133',-10.08
'0:07.137',-9.97
'0:07.141',-8.87
'0:07.145',-7.31
'0:07.148',-5.85
'0:07.152',-4.35
'0:07.156',-2.94
'0:07.160',-1.79
'0:07.164',-1.03
'0:07.168',-0.62
'0:07.172',-0.34
'0:07.176',-0.12
'0:07.180',0.04
'0:07.184',0.25
'0:07.188',0.35
'0:07.191',0.54
'0:07.195',0.98
'0:07.199',1.19
'0:07.203',1.49
'0:07.207',1.99
'0:07.211',2.53
'0:07.215',2.98
'0:07.219',3.23
'0:07.223',3.5
'0:07.227',3.78
'0:07.230',3.92
'0:07.234',3.87
'0:07.238',3.72
'0:07.242',3.54
'0:07.246',3.39
'0:07.250',3.21
'0:07.254',2.94
'0:07.258',2.61
'0:07.262',2.19
'0:07.266',1.87
'0:07.270',1.57
'0:07.273',1.16
'0:07.277',0.82
'0:07.281',0.69
'0:07.285',0.65
'0:07.289',0.61
'0:07.293',0.52
'0:07.297',0.36
'0:07.301',0.14
'0:07.305',0.19
'0:07.309',0.54
'0:07.313',1.01
'0:07.316',1.3
'0:07.320',1.62
'0:07.324',1.82
'0:07.328',1.88
'0:07.332',1.84
'0:07.336',1.71
'0:07.340',1.5
'0:07.344',1.23
'0:07.348',0.79
'0:07.352',0.18
'0:07.355',-0.34
'0:07.359',-0.89
'0:07.363',-1.41
'0:07.367',-1.74
'0:07.371',-2.01
'0:07.375',-2.12
'0:07.379',-2.05
'0:07.383',-1.94
'0:07.387',-1.96
'0:07.391',-2.19
'0:07.395',-2.73
'0:07.398',-3.13
'0:07.402',-3.07
'0:07.406',-2.14
'0:07.410',-0.08
'0:07.414',2.99
'0:07.418',6.69
'0:07.422',10.49
'0:07.426',11.94
'0:07.430',8.53
'0:07.434',3.09
'0:07.438',-1.4
'0:07.441',-4.81
'0:07.445',-7.41
'0:07.449',-8.87
'0:07.453',-9.08
'0:07.457',-8.45
'0:07.461',-7.19
'0:07.465',-5.6
'0:07.469',-3.99
'0:07.473',-2.51
'0:07.477',-1.8
'0:07.480',-1.59
'0:07.484',-1.47
'0:07.488',-0.89
'0:07.492',-0.06
'0:07.496',0.68
'0:07.500',1.18
'0:07.504',1.43
'0:07.508',1.53
'0:07.512',1.84
'0:07.516',2.04
'0:07.520',2.19
'0:07.523',2.41
'0:07.527',2.69
'0:07.531',2.87
'0:07.535',3.2
'0:07.539',3.66
'0:07.543',3.77
'0:07.547',3.97
'0:07.551',4.12
'0:07.555',4.12
'0:07.559',4.07
'0:07.563',3.85
'0:07.566',3.46
'0:07.570',2.91
'0:07.574',2.34
'0:07.578',2.13
'0:07.582',1.98
'0:07.586',1.89
'0:07.590',1.71
'0:07.594',1.52
'0:07.598',1.19
'0:07.602',1.03
'0:07.605',0.93
'0:07.609',0.87
'0:07.613',0.85
'0:07.617',0.74
'0:07.621',0.66
'0:07.625',0.77
'0:07.629',0.87
'0:07.633',1.03
'0:07.637',1.16
'0:07.641',1.38
'0:07.645',1.38
'0:07.648',1.07
'0:07.652',0.78
'0:07.656',0.25
'0:07.660',-0.22
'0:07.664',-0.47
'0:07.668',-0.55
'0:07.672',-0.79
'0:07.676',-1.55
'0:07.680',-2.51
'0:07.684',-3.12
'0:07.688',-3.41
'0:07.691',-3.76
'0:07.695',-3.87
'0:07.699',-3.83
'0:07.703',-3.41
'0:07.707',-2.95
'0:07.711',-2.79
'0:07.715',-3.01
'0:07.719',-3.16
'0:07.723',-2.73
'0:07.727',-1.39
'0:07.730',0.65
'0:07.734',3.28
'0:07.738',6.38
'0:07.742',9.63
'0:07.746',11.09
'0:07.750',7.89
'0:07.754',2.71
'0:07.758',-1.58
'0:07.762',-4.73
'0:07.766',-7.5
'0:07.770',-9.32
'0:07.773',-9.72
'0:07.777',-9.04
'0:07.781',-7.61
'0:07.785',-5.95
'0:07.789',-4.45
'0:07.793',-3.17
'0:07.797',-2.05
'0:07.801',-1.15
'0:07.805',-0.49
'0:07.809',-0.01
'0:07.813',0.24
'0:07.816',0.52
'0:07.820',0.87
'0:07.824',0.96
'0:07.828',1
'0:07.832',1.03
'0:07.836',1.34
'0:07.840',1.91
'0:07.844',2.33
'0:07.848',2.74
'0:07.852',3.11
'0:07.855',3.28
'0:07.859',3.43
'0:07.863',3.67
'0:07.867',3.78
'0:07.871',3.78
'0:07.875',3.72
'0:07.879',3.51
'0:07.883',3.23
'0:07.887',2.8
'0:07.891',2.47
'0:07.895',2.33
'0:07.898',2.14
'0:07.902',1.7
'0:07.906',1.34
'0:07.910',0.91
'0:07.914',0.41
'0:07.918',0.14
'0:07.922',0
'0:07.926',-0.09
'0:07.930',-0.07
'0:07.934',-0.04
'0:07.938',0.26
'0:07.941',0.53
'0:07.945',0.75
'0:07.949',0.97
'0:07.953',1.12
'0:07.957',1.22
'0:07.961',1.2
'0:07.965',1.07
'0:07.969',0.64
'0:07.973',0.08
'0:07.977',-0.28
'0:07.980',-0.54
'0:07.984',-0.77
'0:07.988',-1.07
'0:07.992',-1.55
'0:07.996',-2.12
'0:08.000',-2.58
'0:08.004',-2.93
'0:08.008',-3.27
'0:08.012',-3.39
'0:08.016',-3.29
'0:08.020',-3.28
'0:08.023',-3.36
'0:08.027',-3.41
'0:08.031',-3.59
'0:08.035',-3.95
'0:08.039',-4.21
'0:08.043',-3.85
'0:08.047',-2.68
'0:08.051',-0.42
'0:08.055',2.67
'0:08.059',6.25
'0:08.063',9.78
'0:08.066',10.08
'0:08.070',5.78
'0:08.074',0.9
'0:08.078',-2.83
'0:08.082',-5.93
'0:08.086',-8.55
'0:08.090',-10.19
'0:08.094',-10.6
'0:08.098',-9.86
'0:08.102',-8.51
'0:08.105',-6.86
'0:08.109',-5.25
'0:08.113',-3.86
'0:08.117',-2.79
'0:08.121',-2.04
'0:08.125',-1.5
'0:08.129',-1.07
'0:08.133',-0.73
'0:08.137',-0.47
'0:08.141',-0.22
'0:08.145',0.02
'0:08.148',0.22
'0:08.152',0.55
'0:08.156',1.08
'0:08.160',1.53
'0:08.164',1.75
'0:08.168',2.04
'0:08.172',2.46
'0:08.176',2.63
'0:08.180',2.91
'0:08.184',3.12
'0:08.188',3.31
'0:08.191',3.47
'0:08.195',3.33
'0:08.199',2.99
'0:08.203',2.68
'0:08.207',2.56
'0:08.211',2.66
'0:08.215',2.51
'0:08.219',2.21
'0:08.223',1.73
'0:08.227',1.17
'0:08.230',0.85
'0:08.234',0.79
'0:08.238',0.62
'0:08.242',0.47
'0:08.246',0.35
'0:08.250',0.39
'0:08.254',0.47
'0:08.258',0.65
'0:08.262',0.68
'0:08.266',0.75
'0:08.270',1.13
'0:08.273',1.46
'0:08.277',1.77
'0:08.281',1.83
'0:08.285',1.74
'0:08.289',1.3
'0:08.293',0.54
'0:08.297',0.14
'0:08.301',-0.4
'0:08.305',-0.89
'0:08.309',-1.06
'0:08.313',-1.31
'0:08.316',-1.48
'0:08.320',-1.62
'0:08.324',-1.95
'0:08.328',-2.32
'0:08.332',-2.51
'0:08.336',-2.46
'0:08.340',-2.46
'0:08.344',-2.18
'0:08.348',-1.88
'0:08.352',-2.3
'0:08.355',-2.93
'0:08.359',-3
'0:08.363',-2.49
'0:08.367',-1.09
'0:08.371',1.39
'0:08.375',4.33
'0:08.379',7.56
'0:08.383',10.55
'0:08.387',10.41
'0:08.391',6.19
'0:08.395',1.37
'0:08.398',-1.85
'0:08.402',-4.45
'0:08.406',-6.88
'0:08.410',-8.34
'0:08.414',-8.83
'0:08.418',-8.55
'0:08.422',-7.79
'0:08.426',-6.34
'0:08.430',-4.68
'0:08.434',-3.23
'0:08.438',-2.16
'0:08.441',-1.17
'0:08.445',-0.4
'0:08.449',-0.12
'0:08.453',-0.18
'0:08.457',0.06
'0:08.461',0.77
'0:08.465',0.98
'0:08.469',0.98
'0:08.473',1.19
'0:08.477',1.34
'0:08.480',1.55
'0:08.484',1.79
'0:08.488',2.13
'0:08.492',2.37
'0:08.496',2.92
'0:08.500',3.41
'0:08.504',3.18
'0:08.508',3.03
'0:08.512',2.85
'0:08.516',2.99
'0:08.520',3.29
'0:08.523',3.53
'0:08.527',3.52
'0:08.531',3.02
'0:08.535',2.58
'0:08.539',2.12
'0:08.543',1.56
'0:08.547',0.97
'0:08.551',0.54
'0:08.555',0.31
'0:08.559',0.13
'0:08.563',0.15
'0:08.566',0.27
'0:08.570',0.3
'0:08.574',0.23
'0:08.578',0.2
'0:08.582',0.51
'0:08.586',0.8
'0:08.590',1.18
'0:08.594',1.6
'0:08.598',1.85
'0:08.602',1.84
'0:08.605',1.69
'0:08.609',1.55
'0:08.613',1.14
'0:08.617',0.48
'0:08.621',-0.04
'0:08.625',-0.07
'0:08.629',-0.29
'0:08.633',-0.9
'0:08.637',-1.39
'0:08.641',-1.65
'0:08.645',-2.03
'0:08.648',-2.3
'0:08.652',-2.39
'0:08.656',-2.29
'0:08.660',-2.15
'0:08.664',-2.11
'0:08.668',-2.18
'0:08.672',-2.63
'0:08.676',-3.13
'0:08.680',-3.13
'0:08.684',-2.53
'0:08.688',-1.24
'0:08.691',0.5
'0:08.695',2.94
'0:08.699',6.53
'0:08.703',10.65
'0:08.707',13.12
'0:08.711',10.62
'0:08.715',4.88
'0:08.719',-0.1
'0:08.723',-3.72
'0:08.727',-6.82
'0:08.730',-9.11
'0:08.734',-9.95
'0:08.738',-9.61
'0:08.742',-8.56
'0:08.746',-7.43
'0:08.750',-6.28
'0:08.754',-4.61
'0:08.758',-2.99
'0:08.762',-2.02
'0:08.766',-1.56
'0:08.770',-1.44
'0:08.773',-1.06
'0:08.777',-0.52
'0:08.781',-0.15
'0:08.785',0.33
'0:08.789',0.58
'0:08.793',0.85
'0:08.797',1.21
'0:08.801',1.44
'0:08.805',1.75
'0:08.809',2.07
'0:08.813',2.17
'0:08.816',2.29
'0:08.820',2.38
'0:08.824',2.58
'0:08.828',2.94
'0:08.832',3.19
'0:08.836',3.22
'0:08.840',3.18
'0:08.844',3.05
'0:08.848',2.84
'0:08.852',2.67
'0:08.855',2.47
'0:08.859',2.11
'0:08.863',1.7
'0:08.867',1.38
'0:08.871',1.16
'0:08.875',0.84
'0:08.879',0.5
'0:08.883',0.21
'0:08.887',-0.06
'0:08.891',-0.14
'0:08.895',-0.02
'0:08.898',0.07
'0:08.902',0.24
'0:08.906',0.44
'0:08.910',0.67
'0:08.914',1.1
'0:08.918',1.51
'0:08.922',1.66
'0:08.926',1.45
'0:08.930',1.14
'0:08.934',0.7
'0:08.938',0.36
'0:08.941',0.03
'0:08.945',-0.21
'0:08.949',-0.49
'0:08.953',-0.95
'0:08.957',-1.59
'0:08.961',-2.03
'0:08.965',-2.35
'0:08.969',-2.6
'0:08.973',-2.58
'0:08.977',-2.6
'0:08.980',-2.78
'0:08.984',-2.89
'0:08.988',-2.82
'0:08.992',-2.91
'0:08.996',-3.18
'0:09.000',-3.4
'0:09.004',-3.41
'0:09.008',-2.68
'0:09.012',-0.81
'0:09.016',2.17
'0:09.020',6.07
'0:09.023',10
'0:09.027',11.58
'0:09.031',7.94
'0:09.035',2.24
'0:09.039',-2.36
'0:09.043',-5.94
'0:09.047',-8.4
'0:09.051',-9.63
'0:09.055',-9.84
'0:09.059',-9.2
'0:09.063',-7.78
'0:09.066',-6.19
'0:09.070',-4.87
'0:09.074',-3.7
'0:09.078',-2.63
'0:09.082',-1.77
'0:09.086',-1.05
'0:09.090',-0.49
'0:09.094',-0.22
'0:09.098',0.02
'0:09.102',0.2
'0:09.105',0.27
'0:09.109',0.4
'0:09.113',0.7
'0:09.117',0.97
'0:09.121',1.29
'0:09.125',1.72
'0:09.129',2.09
'0:09.133',2.34
'0:09.137',2.51
'0:09.141',2.83
'0:09.145',3.04
'0:09.148',3.38
'0:09.152',3.58
'0:09.156',3.66
'0:09.160',3.59
'0:09.164',3.37
'0:09.168',3.11
'0:09.172',2.72
'0:09.176',2.39
'0:09.180',2.13
'0:09.184',2.01
'0:09.188',1.74
'0:09.191',1.21
'0:09.195',0.75
'0:09.199',0.31
'0:09.203',0.13
'0:09.207',0.26
'0:09.211',0.58
'0:09.215',0.88
'0:09.219',1.08
'0:09.223',1.01
'0:09.227',0.84
'0:09.230',0.85
'0:09.234',0.9
'0:09.238',0.95
'0:09.242',1.12
'0:09.246',1.14
'0:09.250',1.03
'0:09.254',0.77
'0:09.258',0.42
'0:09.262',0.11
'0:09.266',-0.21
'0:09.270',-0.51
'0:09.273',-0.93
'0:09.277',-1.47
'0:09.281',-2
'0:09.285',-2.55
'0:09.289',-2.91
'0:09.293',-3.08
'0:09.297',-3.2
'0:09.301',-3.23
'0:09.305',-3.21
'0:09.309',-3.09
'0:09.313',-3.02
'0:09.316',-3.24
'0:09.320',-3.48
'0:09.324',-3.41
'0:09.328',-2.58
'0:09.332',-0.84
'0:09.336',1.75
'0:09.340',5
'0:09.344',8.58
'0:09.348',10.26
'0:09.352',7.33
'0:09.355',2.32
'0:09.359',-2.12
'0:09.363',-5.37
'0:09.367',-7.99
'0:09.371',-9.69
'0:09.375',-10.36
'0:09.379',-10.14
'0:09.383',-8.99
'0:09.387',-7.29
'0:09.391',-5.49
'0:09.395',-3.85
'0:09.398',-2.14
'0:09.402',-0.79
'0:09.406',-0.31
'0:09.410',-0.11
'0:09.414',0.24
'0:09.418',0.65
'0:09.422',0.89
'0:09.426',0.93
'0:09.430',1.04
'0:09.434',1.29
'0:09.438',1.52
'0:09.441',1.94
'0:09.445',2.31
'0:09.449',2.61
'0:09.453',2.91
'0:09.457',3.31
'0:09.461',3.9
'0:09.465',4.24
'0:09.469',4.3
'0:09.473',4.15
'0:09.477',4
'0:09.480',4.01
'0:09.484',4.02
'0:09.488',3.92
'0:09.492',3.58
'0:09.496',2.99
'0:09.500',2.49
'0:09.504',1.99
'0:09.508',1.64
'0:09.512',1.38
'0:09.516',0.99
'0:09.520',0.79
'0:09.523',0.67
'0:09.527',0.5
'0:09.531',0.51
'0:09.535',0.59
'0:09.539',0.63
'0:09.543',0.42
'0:09.547',0.27
'0:09.551',0.44
'0:09.555',0.87
'0:09.559',1.48
'0:09.563',1.79
'0:09.566',1.69
'0:09.570',1.33
'0:09.574',0.93
'0:09.578',0.45
'0:09.582',-0.13
'0:09.586',-0.67
'0:09.590',-1.21
'0:09.594',-1.75
'0:09.598',-2.23
'0:09.602',-2.57
'0:09.605',-2.6
'0:09.609',-2.67
'0:09.613',-2.67
'0:09.617',-2.66
'0:09.621',-2.89
'0:09.625',-3.13
'0:09.629',-3.26
'0:09.633',-3.5
'0:09.637',-3.91
'0:09.641',-4.16
'0:09.645',-3.66
'0:09.648',-2.36
'0:09.652',-0.15
'0:09.656',2.82
'0:09.660',6.43
'0:09.664',10
'0:09.668',10.2
'0:09.672',5.85
'0:09.676',0.97
'0:09.680',-2.56
'0:09.684',-5.37
'0:09.688',-7.81
'0:09.691',-9.33
'0:09.695',-9.69
'0:09.699',-9.21
'0:09.703',-7.98
'0:09.707',-6.4
'0:09.711',-4.99
'0:09.715',-3.84
'0:09.719',-2.79
'0:09.723',-1.88
'0:09.727',-1.25
'0:09.730',-0.83
'0:09.734',-0.42
'0:09.738',0.03
'0:09.742',0.32
'0:09.746',0.47
'0:09.750',0.63
'0:09.754',0.95
'0:09.758',1.41
'0:09.762',1.65
'0:09.766',1.65
'0:09.770',1.86
'0:09.773',2.22
'0:09.777',2.59
'0:09.781',2.69
'0:09.785',2.81
'0:09.789',3.13
'0:09.793',3.41
'0:09.797',3.54
'0:09.801',3.42
'0:09.805',3.13
'0:09.809',2.84
'0:09.813',2.75
'0:09.816',2.46
'0:09.820',1.84
'0:09.824',1.33
'0:09.828',1.13
'0:09.832',0.79
'0:09.836',0.45
'0:09.840',0.4
'0:09.844',0.35
'0:09.848',0.51
'0:09.852',0.63
'0:09.855',0.38
'0:09.859',0.42
'0:09.863',0.54
'0:09.867',0.8
'0:09.871',1.12
'0:09.875',1.32
'0:09.879',1.44
'0:09.883',1.3
'0:09.887',1.08
'0:09.891',1
'0:09.895',1
'0:09.898',0.72
'0:09.902',0.26
'0:09.906',-0.16
'0:09.910',-0.45
'0:09.914',-0.86
'0:09.918',-1.4
'0:09.922',-1.84
'0:09.926',-2.11
'0:09.930',-2.21
'0:09.934',-2.33
'0:09.938',-2.29
'0:09.941',-2.38
'0:09.945',-2.43
'0:09.949',-2.23
'0:09.953',-2.33
'0:09.957',-2.84
'0:09.961',-3.21
'0:09.965',-2.78
'0:09.969',-1.37
'0:09.973',0.88
'0:09.977',1.88
'0:09.980',1.88
'0:09.984',11.91
'0:09.988',9.42
'0:09.992',4.31
'0:09.996',-0.17
'0:10.000',-3.19
'0:10.004',-5.77
'0:10.008',-8
'0:10.012',-9.25
'0:10.016',-9.37
'0:10.020',-8.63
'0:10.023',-7.27
'0:10.027',-5.69
'0:10.031',-4.1
'0:10.035',-2.85
'0:10.039',-1.98
'0:10.043',-1.22
'0:10.047',-0.5
'0:10.051',0.05
'0:10.055',0.25
'0:10.059',0.4
'0:10.063',0.76
'0:10.066',0.9
'0:10.070',0.83
'0:10.074',0.83
'0:10.078',1.03
'0:10.082',1.39
'0:10.086',1.82
'0:10.090',2.39
'0:10.094',2.86
'0:10.098',2.93
'0:10.102',3.02
'0:10.105',3.13
'0:10.109',3.24
'0:10.113',3.42
'0:10.117',3.42
'0:10.121',3.12
'0:10.125',2.88
'0:10.129',2.74
'0:10.133',2.51
'0:10.137',2.1
'0:10.141',1.76
'0:10.145',1.97
'0:10.148',1.93
'0:10.152',1.32
'0:10.156',0.6
'0:10.160',0.21
'0:10.164',0.28
'0:10.168',0.23
'0:10.172',0.2
'0:10.176',0.2
'0:10.180',0.33
'0:10.184',0.43
'0:10.188',0.47
'0:10.191',0.66
'0:10.195',1.05
'0:10.199',1.57
'0:10.203',1.83
'0:10.207',1.62
'0:10.211',1.18
'0:10.215',0.6
'0:10.219',0.21
'0:10.223',-0.04
'0:10.227',-0.23
'0:10.230',-0.35
'0:10.234',-0.74
'0:10.238',-1.32
'0:10.242',-1.98
'0:10.246',-2.29
'0:10.250',-2.45
'0:10.254',-2.51
'0:10.258',-2.6
'0:10.262',-2.4
'0:10.266',-2.16
'0:10.270',-2.17
'0:10.273',-1.99
'0:10.277',-2.19
'0:10.281',-2.4
'0:10.285',-2.14
'0:10.289',-0.96
'0:10.293',1.11
'0:10.297',4.29
'0:10.301',8.28
'0:10.305',11.99
'0:10.309',12.21
'0:10.313',7.7
'0:10.316',2.19
'0:10.320',-2.18
'0:10.324',-5.54
'0:10.328',-8.04
'0:10.332',-9.41
'0:10.336',-9.57
'0:10.340',-8.87
'0:10.344',-7.71
'0:10.348',-6.25
'0:10.352',-4.75
'0:10.355',-3.36
'0:10.359',-2.15
'0:10.363',-1.26
'0:10.367',-0.92
'0:10.371',-0.58
'0:10.375',-0.14
'0:10.379',0.13
'0:10.383',0.2
'0:10.387',0.1
'0:10.391',0.32
'0:10.395',0.88
'0:10.398',1.46
'0:10.402',1.72
'0:10.406',1.73
'0:10.410',1.79
'0:10.414',2.05
'0:10.418',2.27
'0:10.422',2.52
'0:10.426',3.07
'0:10.430',3.43
'0:10.434',3.53
'0:10.438',3.63
'0:10.441',3.61
'0:10.445',3.27
'0:10.449',2.79
'0:10.453',2.42
'0:10.457',2.1
'0:10.461',1.71
'0:10.465',1.42
'0:10.469',1.15
'0:10.473',0.96
'0:10.477',0.73
'0:10.480',0.44
'0:10.484',0.14
'0:10.488',-0.07
'0:10.492',-0.11
'0:10.496',0.05
'0:10.500',0.27
'0:10.504',0.4
'0:10.508',0.49
'0:10.512',0.78
'0:10.516',1.07
'0:10.520',1.27
'0:10.523',1.25
'0:10.527',1.02
'0:10.531',0.73
'0:10.535',0.42
'0:10.539',0.06
'0:10.543',-0.29
'0:10.547',-0.65
'0:10.551',-0.99
'0:10.555',-1.21
'0:10.559',-1.62
'0:10.563',-2.09
'0:10.566',-2.5
'0:10.570',-2.7
'0:10.574',-2.65
'0:10.578',-2.6
'0:10.582',-2.69
'0:10.586',-2.72
'0:10.590',-2.84
'0:10.594',-3.11
'0:10.598',-3.62
'0:10.602',-3.94
'0:10.605',-3.27
'0:10.609',-1.95
'0:10.613',0.31
'0:10.617',3.76
'0:10.621',7.8
'0:10.625',11.21
'0:10.629',10.85
'0:10.633',6.13
'0:10.637',0.96
'0:10.641',-3.18
'0:10.645',-6.55
'0:10.648',-8.78
'0:10.652',-9.78
'0:10.656',-9.76
'0:10.660',-8.92
'0:10.664',-7.29
'0:10.668',-5.58
'0:10.672',-4.14
'0:10.676',-3.05
'0:10.680',-2.13
'0:10.684',-1.29
'0:10.688',-0.62
'0:10.691',-0.1
'0:10.695',0.16
'0:10.699',0.42
'0:10.703',0.73
'0:10.707',0.95
'0:10.711',1.03
'0:10.715',1.03
'0:10.719',1.1
'0:10.723',1.28
'0:10.727',1.59
'0:10.730',2.08
'0:10.734',2.44
'0:10.738',2.71
'0:10.742',2.83
'0:10.746',2.98
'0:10.750',3.25
'0:10.754',3.61
'0:10.758',3.8
'0:10.762',3.54
'0:10.766',3.13
'0:10.770',2.69
'0:10.773',2.44
'0:10.777',2.22
'0:10.781',1.98
'0:10.785',1.55
'0:10.789',1.24
'0:10.793',0.9
'0:10.797',0.61
'0:10.801',0.37
'0:10.805',0.27
'0:10.809',0.32
'0:10.813',0.51
'0:10.816',0.73
'0:10.820',0.51
'0:10.824',0.39
'0:10.828',0.4
'0:10.832',0.74
'0:10.836',1.12
'0:10.840',1.2
'0:10.844',1.13
'0:10.848',0.85
'0:10.852',0.56
'0:10.855',0.24
'0:10.859',0.05
'0:10.863',-0.12
'0:10.867',-0.31
'0:10.871',-0.72
'0:10.875',-1.36
'0:10.879',-1.9
'0:10.883',-2.11
'0:10.887',-2.28
'0:10.891',-2.36
'0:10.895',-2.41
'0:10.898',-2.53
'0:10.902',-2.56
'0:10.906',-2.58
'0:10.910',-2.58
'0:10.914',-2.73
'0:10.918',-3.09
'0:10.922',-3.22
'0:10.926',-2.73
'0:10.930',-1.56
'0:10.934',0.48
'0:10.938',3.42
'0:10.941',6.71
'0:10.945',9.75
'0:10.949',9.93
'0:10.953',5.73
'0:10.957',0.74
'0:10.961',-2.97
'0:10.965',-5.85
'0:10.969',-8.22
'0:10.973',-9.63
'0:10.977',-9.94
'0:10.980',-9.27
'0:10.984',-7.75
'0:10.988',-6.12
'0:10.992',-4.69
'0:10.996',-3.46
'0:11.000',-2.46
'0:11.004',-1.69
'0:11.008',-0.99
'0:11.012',-0.3
'0:11.016',0.07
'0:11.020',0.13
'0:11.023',0.22
'0:11.027',0.37
'0:11.031',0.59
'0:11.035',1.1
'0:11.039',1.66
'0:11.043',2.24
'0:11.047',2.73
'0:11.051',3
'0:11.055',3.02
'0:11.059',3
'0:11.063',3.2
'0:11.066',3.54
'0:11.070',3.78
'0:11.074',3.83
'0:11.078',3.87
'0:11.082',3.9
'0:11.086',3.78
'0:11.090',3.64
'0:11.094',3.49
'0:11.098',3.22
'0:11.102',2.83
'0:11.105',2.17
'0:11.109',1.49
'0:11.113',0.91
'0:11.117',0.49
'0:11.121',0.41
'0:11.125',0.54
'0:11.129',0.68
'0:11.133',0.69
'0:11.137',0.69
'0:11.141',0.73
'0:11.145',0.69
'0:11.148',0.7
'0:11.152',0.79
'0:11.156',1
'0:11.160',1.39
'0:11.164',1.56
'0:11.168',1.25
'0:11.172',0.69
'0:11.176',0.33
'0:11.180',0.15
'0:11.184',-0.13
'0:11.188',-0.53
'0:11.191',-1.09
'0:11.195',-1.45
'0:11.199',-1.63
'0:11.203',-2.03
'0:11.207',-2.6
'0:11.211',-3.18
'0:11.215',-3.5
'0:11.219',-3.32
'0:11.223',-2.8
'0:11.227',-2.7
'0:11.230',-2.95
'0:11.234',-3.24
'0:11.238',-3.53
'0:11.242',-3.77
'0:11.246',-3.36
'0:11.250',-2.09
'0:11.254',0.48
'0:11.258',4.01
'0:11.262',8.06
'0:11.266',11.33
'0:11.270',10.33
'0:11.273',5.44
'0:11.277',0.52
'0:11.281',-3.27
'0:11.285',-6.53
'0:11.289',-8.89
'0:11.293',-9.98
'0:11.297',-10.08
'0:11.301',-9.4
'0:11.305',-7.92
'0:11.309',-6.26
'0:11.313',-4.95
'0:11.316',-3.8
'0:11.320',-2.75
'0:11.324',-2.02
'0:11.328',-1.46
'0:11.332',-1.14
'0:11.336',-0.83
'0:11.340',-0.54
'0:11.344',-0.33
'0:11.348',-0.11
'0:11.352',0.27
'0:11.355',0.76
'0:11.359',1.12
'0:11.363',1.32
'0:11.367',1.49
'0:11.371',1.52
'0:11.375',1.73
'0:11.379',2.21
'0:11.383',2.61
'0:11.387',2.92
'0:11.391',3.1
'0:11.395',3.27
'0:11.398',3.49
'0:11.402',3.32
'0:11.406',2.86
'0:11.410',2.58
'0:11.414',2.44
'0:11.418',2.1
'0:11.422',1.73
'0:11.426',1.24
'0:11.430',0.62
'0:11.434',0.33
'0:11.438',0.03
'0:11.441',-0.14
'0:11.445',-0.07
'0:11.449',0.05
'0:11.453',0.02
'0:11.457',0.2
'0:11.461',0.47
'0:11.465',0.48
'0:11.469',0.47
'0:11.473',0.87
'0:11.477',1.25
'0:11.480',1.66
'0:11.484',1.8
'0:11.488',1.56
'0:11.492',1.13
'0:11.496',0.38
'0:11.500',-0.21
'0:11.504',-0.23
'0:11.508',-0.05
'0:11.512',-0.36
'0:11.516',-0.77
'0:11.520',-1.34
'0:11.523',-1.96
'0:11.527',-2.24
'0:11.531',-2.14
'0:11.535',-2.05
'0:11.539',-2.28
'0:11.543',-2.33
'0:11.547',-2.17
'0:11.551',-2.34
'0:11.555',-2.62
'0:11.559',-3.03
'0:11.563',-3.28
'0:11.566',-2.51
'0:11.570',-0.31
'0:11.574',2.56
'0:11.578',5.69
'0:11.582',9.39
'0:11.586',12.11
'0:11.590',10.23
'0:11.594',5.1
'0:11.598',0.4
'0:11.602',-3.25
'0:11.605',-6.05
'0:11.609',-8.03
'0:11.613',-9.17
'0:11.617',-9.29
'0:11.621',-8.53
'0:11.625',-7.36
'0:11.629',-5.95
'0:11.633',-4.11
'0:11.637',-2.52
'0:11.641',-1.78
'0:11.645',-1.37
'0:11.648',-0.8
'0:11.652',-0.36
'0:11.656',0.05
'0:11.660',0.27
'0:11.664',0.44
'0:11.668',0.6
'0:11.672',0.95
'0:11.676',1.15
'0:11.680',1.17
'0:11.684',1.3
'0:11.688',1.64
'0:11.691',2.1
'0:11.695',2.84
'0:11.699',3.26
'0:11.703',3.39
'0:11.707',3.65
'0:11.711',3.73
'0:11.715',3.61
'0:11.719',3.61
'0:11.723',3.37
'0:11.727',3.12
'0:11.730',2.96
'0:11.734',2.42
'0:11.738',1.93
'0:11.742',1.76
'0:11.746',1.54
'0:11.750',1.27
'0:11.754',0.72
'0:11.758',0.28
'0:11.762',0.18
'0:11.766',0.33
'0:11.770',0.39
'0:11.773',0.15
'0:11.777',-0.02
'0:11.781',0.19
'0:11.785',0.44
'0:11.789',0.6
'0:11.793',0.88
'0:11.797',1.06
'0:11.801',1.25
'0:11.805',1.4
'0:11.809',1.25
'0:11.813',1.03
'0:11.816',0.76
'0:11.820',0.28
'0:11.824',-0.04
'0:11.828',-0.21
'0:11.832',-0.7
'0:11.836',-1.31
'0:11.840',-1.48
'0:11.844',-1.75
'0:11.848',-2.13
'0:11.852',-2.29
'0:11.855',-2.29
'0:11.859',-2.27
'0:11.863',-1.92
'0:11.867',-1.73
'0:11.871',-1.92
'0:11.875',-2.43
'0:11.879',-2.89
'0:11.883',-2.82
'0:11.887',-2.02
'0:11.891',-0.44
'0:11.895',2.04
'0:11.898',5.48
'0:11.902',9.44
'0:11.906',12.58
'0:11.910',11.83
'0:11.914',6.82
'0:11.918',1.4
'0:11.922',-2.88
'0:11.926',-6.29
'0:11.930',-8.78
'0:11.934',-10.02
'0:11.938',-10.22
'0:11.941',-9.5
'0:11.945',-8.14
'0:11.949',-6.49
'0:11.953',-5.11
'0:11.957',-3.92
'0:11.961',-2.9
'0:11.965',-2.14
'0:11.969',-1.5
'0:11.973',-1.1
'0:11.977',-0.78
'0:11.980',-0.44
'0:11.984',-0.12
'0:11.988',0.06
'0:11.992',0.13
'0:11.996',0.47
'0:12.000',0.97
'0:12.004',1.28
'0:12.008',1.34
'0:12.012',1.34
'0:12.016',1.6
'0:12.020',2.15
'0:12.023',2.48
'0:12.027',2.69
'0:12.031',3.22
'0:12.035',3.57
'0:12.039',3.56
'0:12.043',3.4
'0:12.047',3.29
'0:12.051',3.07
'0:12.055',2.66
'0:12.059',1.86
'0:12.063',0.98
'0:12.066',0.47
'0:12.070',0.51
'0:12.074',0.47
'0:12.078',0.14
'0:12.082',-0.31
'0:12.086',-0.99
'0:12.090',-1.84
'0:12.094',-2.66
'0:12.098',-2.99
'0:12.102',-2.87
'0:12.105',-2.36
'0:12.109',-2.02
'0:12.113',-1.88
'0:12.117',-1.73
'0:12.121',-1.66
'0:12.125',-1.75
'0:12.129',-1.99
'0:12.133',-2.23
'0:12.137',-2.41
'0:12.141',-2.68
'0:12.145',-2.85
'0:12.148',-3.04
'0:12.152',-3.38
'0:12.156',-3.58
'0:12.160',-3.14
'0:12.164',-2.12
'0:12.168',-1.73
'0:12.172',-1.82
'0:12.176',-1.8
'0:12.180',-1.37
'0:12.184',-1.09
'0:12.188',-0.98
'0:12.191',-1.07
'0:12.195',-1.34
'0:12.199',-1.87
'0:12.203',-2.09
'0:12.207',-1.37
'0:12.211',0.35
'0:12.215',2.99
'0:12.219',6.33
'0:12.223',10.14
'0:12.227',12.84
'0:12.230',11.09
'0:12.234',5.9
'0:12.238',0.9
'0:12.242',-3.12
'0:12.246',-6.23
'0:12.250',-8.18
'0:12.254',-8.96
'0:12.258',-8.79
'0:12.262',-7.72
'0:12.266',-6.27
'0:12.270',-4.84
'0:12.273',-3.72
'0:12.277',-2.58
'0:12.281',-1.44
'0:12.285',-0.76
'0:12.289',-0.36
'0:12.293',-0.14
'0:12.297',0.02
'0:12.301',0.29
'0:12.305',0.39
'0:12.309',0.37
'0:12.313',0.44
'0:12.316',0.08
'0:12.320',-0.52
'0:12.324',-0.96
'0:12.328',-1.15
'0:12.332',-1.06
'0:12.336',-0.89
'0:12.340',-0.56
'0:12.344',-0.11
'0:12.348',0.35
'0:12.352',0.64
'0:12.355',0.74
'0:12.359',0.85
'0:12.363',0.93
'0:12.367',1.16
'0:12.371',2.39
'0:12.375',3.92
'0:12.379',4.73
'0:12.383',4.36
'0:12.387',3.67
'0:12.391',3.95
'0:12.395',4.12
'0:12.398',4
'0:12.402',3.85
'0:12.406',3.83
'0:12.410',3.95
'0:12.414',4.07
'0:12.418',4.04
'0:12.422',3.97
'0:12.426',4.07
'0:12.430',3.98
'0:12.434',3.9
'0:12.438',3.93
'0:12.441',3.86
'0:12.445',3.83
'0:12.449',3.69
'0:12.453',3.22
'0:12.457',2.66
'0:12.461',2.2
'0:12.465',1.88
'0:12.469',1.64
'0:12.473',1.18
'0:12.477',0.7
'0:12.480',0.13
'0:12.484',-0.38
'0:12.488',-0.63
'0:12.492',-0.79
'0:12.496',-0.92
'0:12.500',-0.92
'0:12.504',-0.89
'0:12.508',-0.85
'0:12.512',-1.02
'0:12.516',-1.5
'0:12.520',-2.1
'0:12.523',-2.26
'0:12.527',-1.38
'0:12.531',0.37
'0:12.535',3.09
'0:12.539',6.41
'0:12.543',9.98
'0:12.547',11.31
'0:12.551',11.31
'0:12.555',0.63
'0:12.559',-3.17
'0:12.563',-6.15
'0:12.566',-8.18
'0:12.570',-9.25
'0:12.574',-9.26
'0:12.578',-8.36
'0:12.582',-6.87
'0:12.586',-5.22
'0:12.590',-3.77
'0:12.594',-2.56
'0:12.598',-1.73
'0:12.602',-1.43
'0:12.605',-1.02
'0:12.609',-0.46
'0:12.613',0.13
'0:12.617',0.79
'0:12.621',1.21
'0:12.625',1.44
'0:12.629',1.71
'0:12.633',2
'0:12.637',2.18
'0:12.641',2.17
'0:12.645',2.32
'0:12.648',2.91
'0:12.652',3.49
'0:12.656',3.78
'0:12.660',4.05
'0:12.664',4.44
'0:12.668',4.74
'0:12.672',4.98
'0:12.676',5.1
'0:12.680',4.88
'0:12.684',4.54
'0:12.688',4.52
'0:12.691',4.29
'0:12.695',3.76
'0:12.699',3.03
'0:12.703',2.37
'0:12.707',1.86
'0:12.711',1.47
'0:12.715',1.12
'0:12.719',1.1
'0:12.723',1.46
'0:12.727',1.44
'0:12.730',1.1
'0:12.734',0.76
'0:12.738',0.45
'0:12.742',0.59
'0:12.746',1.22
'0:12.750',1.58
'0:12.754',1.75
'0:12.758',1.73
'0:12.762',1.5
'0:12.766',1.13
'0:12.770',0.73
'0:12.773',0.54
'0:12.777',0.51
'0:12.781',0.2
'0:12.785',-0.35
'0:12.789',-0.92
'0:12.793',-1.53
'0:12.797',-2.09
'0:12.801',-2.41
'0:12.805',-2.53
'0:12.809',-2.46
'0:12.813',-2.32
'0:12.816',-2.29
'0:12.820',-2.6
'0:12.824',-3.04
'0:12.828',-3.28
'0:12.832',-3.37
'0:12.836',-3.42
'0:12.840',-3.31
'0:12.844',-2.34
'0:12.848',-0.57
'0:12.852',1.97
'0:12.855',5.29
'0:12.859',9.25
'0:12.863',11.38
'0:12.867',8.38
'0:12.871',2.96
'0:12.875',-1.37
'0:12.879',-4.47
'0:12.883',-7.13
'0:12.887',-8.98
'0:12.891',-9.93
'0:12.895',-10.03
'0:12.898',-9.15
'0:12.902',-7.57
'0:12.906',-6.18
'0:12.910',-4.82
'0:12.914',-3.61
'0:12.918',-2.62
'0:12.922',-1.85
'0:12.926',-1.22
'0:12.930',-0.78
'0:12.934',-0.38
'0:12.938',-0.14
'0:12.941',-0.1
'0:12.945',-0.14
'0:12.949',-0.09
'0:12.953',0.01
'0:12.957',0.53
'0:12.961',1.08
'0:12.965',1.46
'0:12.969',1.83
'0:12.973',2.22
'0:12.977',2.51
'0:12.980',2.75
'0:12.984',2.83
'0:12.988',2.61
'0:12.992',2.57
'0:12.996',2.57
'0:13.000',2.46
'0:13.004',2.15
'0:13.008',1.76
'0:13.012',1.51
'0:13.016',1.27
'0:13.020',0.95
'0:13.023',0.69
'0:13.027',0.69
'0:13.031',0.62
'0:13.035',0.53
'0:13.039',-0.01
'0:13.043',-0.55
'0:13.047',-0.57
'0:13.051',-0.48
'0:13.055',-0.24
'0:13.059',-0.07
'0:13.063',0.37
'0:13.066',0.66
'0:13.070',0.81
'0:13.074',0.98
'0:13.078',1
'0:13.082',0.66
'0:13.086',0.4
'0:13.090',0.25
'0:13.094',0.08
'0:13.098',0.22
'0:13.102',-0.03
'0:13.105',-0.96
'0:13.109',-1.36
'0:13.113',-1.36
'0:13.117',-1.64
'0:13.121',-2.06
'0:13.125',-2.36
'0:13.129',-2.68
'0:13.133',-2.75
'0:13.137',-2.6
'0:13.141',-2.78
'0:13.145',-2.85
'0:13.148',-2.75
'0:13.152',-2.73
'0:13.156',-2.77
'0:13.160',-2.32
'0:13.164',-1.21
'0:13.168',0.76
'0:13.172',3.37
'0:13.176',6.92
'0:13.180',10.79
'0:13.184',11.44
'0:13.188',7.64
'0:13.191',2.33
'0:13.195',-1.99
'0:13.199',-5.14
'0:13.203',-7.49
'0:13.207',-8.93
'0:13.211',-9.69
'0:13.215',-9.6
'0:13.219',-8.54
'0:13.223',-6.45
'0:13.227',-4.89
'0:13.230',-3.79
'0:13.234',-2.71
'0:13.238',-1.92
'0:13.242',-1.41
'0:13.246',-1.14
'0:13.250',-1.09
'0:13.254',-0.78
'0:13.258',0.2
'0:13.262',0.81
'0:13.266',0.9
'0:13.270',1.12
'0:13.273',1.3
'0:13.277',1.9
'0:13.281',2.12
'0:13.285',1.94
'0:13.289',1.83
'0:13.293',2.64
'0:13.297',2.93
'0:13.301',2.62
'0:13.305',2.5
'0:13.309',2.93
'0:13.313',3.67
'0:13.316',3.75
'0:13.320',3.17
'0:13.324',2.52
'0:13.328',2.51
'0:13.332',2.27
'0:13.336',1.65
'0:13.340',1.11
'0:13.344',0.9
'0:13.348',0.66
'0:13.352',0.69
'0:13.355',0.52
'0:13.359',-0.03
'0:13.363',-0.18
'0:13.367',-0.18
'0:13.371',-0.14
'0:13.375',-0.24
'0:13.379',-0.48
'0:13.383',0.01
'0:13.387',0.6
'0:13.391',0.79
'0:13.395',0.95
'0:13.398',1.08
'0:13.402',1.16
'0:13.406',1.08
'0:13.410',0.8
'0:13.414',0.35
'0:13.418',-0.14
'0:13.422',-0.38
'0:13.426',-0.41
'0:13.430',-0.56
'0:13.434',-1.04
'0:13.438',-1.58
'0:13.441',-1.98
'0:13.445',-2.35
'0:13.449',-2.77
'0:13.453',-2.89
'0:13.457',-2.85
'0:13.461',-2.6
'0:13.465',-2.6
'0:13.469',-2.8
'0:13.473',-3.02
'0:13.477',-2.69
'0:13.480',-1.7
'0:13.484',-0.58
'0:13.488',1.14
'0:13.492',4.11
'0:13.496',8
'0:13.500',12
'0:13.504',13.78
'0:13.508',10.33
'0:13.512',4.43
'0:13.516',-0.38
'0:13.520',-3.99
'0:13.523',-6.91
'0:13.527',-9.03
'0:13.531',-10.03
'0:13.535',-9.92
'0:13.539',-8.79
'0:13.543',-7.26
'0:13.547',-5.84
'0:13.551',-4.43
'0:13.555',-3.16
'0:13.559',-2
'0:13.563',-1.12
'0:13.566',-0.44
'0:13.570',-0.19
'0:13.574',-0.19
'0:13.578',-0.14
'0:13.582',0.23
'0:13.586',0.56
'0:13.590',0.69
'0:13.594',0.95
'0:13.598',1.29
'0:13.602',1.63
'0:13.605',2
'0:13.609',2.31
'0:13.613',2.34
'0:13.617',2.37
'0:13.621',2.61
'0:13.625',3.08
'0:13.629',3.51
'0:13.633',3.63
'0:13.637',3.49
'0:13.641',3.12
'0:13.645',2.78
'0:13.648',2.47
'0:13.652',2.22
'0:13.656',2.05
'0:13.660',1.83
'0:13.664',1.51
'0:13.668',0.99
'0:13.672',0.47
'0:13.676',0.32
'0:13.680',0.32
'0:13.684',0.3
'0:13.688',0.15
'0:13.691',0
'0:13.695',0.13
'0:13.699',0.33
'0:13.703',0.61
'0:13.707',1.03
'0:13.711',1.3
'0:13.715',1.49
'0:13.719',1.61
'0:13.723',1.55
'0:13.727',1.24
'0:13.730',0.64
'0:13.734',0.12
'0:13.738',-0.02
'0:13.742',-0.14
'0:13.746',-0.5
'0:13.750',-0.87
'0:13.754',-1.32
'0:13.758',-1.8
'0:13.762',-2.13
'0:13.766',-2.38
'0:13.770',-2.63
'0:13.773',-2.88
'0:13.777',-3.01
'0:13.781',-3.03
'0:13.785',-3.01
'0:13.789',-3.22
'0:13.793',-3.58
'0:13.797',-3.66
'0:13.801',-3.09
'0:13.805',-1.58
'0:13.809',0.99
'0:13.813',4.37
'0:13.816',8.26
'0:13.820',11.46
'0:13.824',10.53
'0:13.828',5.37
'0:13.832',0.2
'0:13.836',-3.78
'0:13.840',-7.04
'0:13.844',-9.38
'0:13.848',-10.4
'0:13.852',-10.25
'0:13.855',-9.21
'0:13.859',-7.64
'0:13.863',-6.02
'0:13.867',-4.66
'0:13.871',-3.53
'0:13.875',-2.58
'0:13.879',-2.03
'0:13.883',-2.36
'0:13.887',-3.56
'0:13.891',-4.32
'0:13.895',-2.89
'0:13.898',-1.19
'0:13.902',-0.09
'0:13.906',0.51
'0:13.910',0.88
'0:13.914',1.19
'0:13.918',1.49
'0:13.922',1.81
'0:13.926',2.03
'0:13.930',2.38
'0:13.934',2.39
'0:13.938',2.39
'0:13.941',2.39
'0:13.945',2.7
'0:13.949',3.8
'0:13.953',3.91
'0:13.957',3.9
'0:13.961',3.69
'0:13.965',3.22
'0:13.969',2.83
'0:13.973',2.81
'0:13.977',2.85
'0:13.980',2.55
'0:13.984',2.05
'0:13.988',1.56
'0:13.992',1.13
'0:13.996',0.78
'0:14.000',0.4
'0:14.004',0.31
'0:14.008',0.52
'0:14.012',0.79
'0:14.016',0.98
'0:14.020',1.05
'0:14.023',1.15
'0:14.027',1.42
'0:14.031',1.69
'0:14.035',1.85
'0:14.039',1.78
'0:14.043',1.54
'0:14.047',1
'0:14.051',0.61
'0:14.055',0.47
'0:14.059',0.27
'0:14.063',-0.19
'0:14.066',-0.55
'0:14.070',-0.93
'0:14.074',-1.41
'0:14.078',-1.85
'0:14.082',-2.31
'0:14.086',-2.55
'0:14.090',-2.49
'0:14.094',-2.48
'0:14.098',-2.58
'0:14.102',-2.58
'0:14.105',-2.77
'0:14.109',-3.05
'0:14.113',-3.23
'0:14.117',-3.24
'0:14.121',-2.7
'0:14.125',-1.13
'0:14.129',1.79
'0:14.133',5.33
'0:14.137',9.26
'0:14.141',11.8
'0:14.145',9.59
'0:14.148',4.27
'0:14.152',-0.41
'0:14.156',-3.96
'0:14.160',-6.94
'0:14.164',-9.14
'0:14.168',-9.89
'0:14.172',-9.48
'0:14.176',-8.45
'0:14.180',-6.91
'0:14.184',-5.07
'0:14.188',-3.34
'0:14.191',-2.06
'0:14.195',-1.12
'0:14.199',-0.67
'0:14.203',-0.43
'0:14.207',-0.31
'0:14.211',-0.21
'0:14.215',0.11
'0:14.219',0.27
'0:14.223',0.33
'0:14.227',0.75
'0:14.230',1.23
'0:14.234',1.61
'0:14.238',1.61
'0:14.242',1.61
'0:14.246',1.61
'0:14.250',2.76
'0:14.254',3
'0:14.258',3.42
'0:14.262',3.9
'0:14.266',4.32
'0:14.270',4.36
'0:14.273',4.09
'0:14.277',3.92
'0:14.281',3.85
'0:14.285',3.73
'0:14.289',3.39
'0:14.293',2.89
'0:14.297',2.2
'0:14.301',1.84
'0:14.305',1.68
'0:14.309',1.37
'0:14.313',1.02
'0:14.316',0.59
'0:14.320',0.13
'0:14.324',-0.19
'0:14.328',-0.04
'0:14.332',0.54
'0:14.336',0.82
'0:14.340',0.81
'0:14.344',0.71
'0:14.348',0.54
'0:14.352',0.52
'0:14.355',0.66
'0:14.359',0.79
'0:14.363',0.8
'0:14.367',0.34
'0:14.371',-0.09
'0:14.375',-0.09
'0:14.379',-0.09
'0:14.383',-0.09
'0:14.387',-0.09
'0:14.391',-0.09
'0:14.395',-2.71
'0:14.398',-3.11
'0:14.402',-3.26
'0:14.406',-3.11
'0:14.410',-2.97
'0:14.414',-2.97
'0:14.418',-2.93
'0:14.422',-2.87
'0:14.426',-3.11
'0:14.430',-3.53
'0:14.434',-3.67
'0:14.438',-3.08
'0:14.441',-1.45
'0:14.445',1.18
'0:14.449',4.52
'0:14.453',8.22
'0:14.457',11.17
'0:14.461',9.65
'0:14.465',4.34
'0:14.469',-0.68
'0:14.473',-4.55
'0:14.477',-7.57
'0:14.480',-9.37
'0:14.484',-10.01
'0:14.488',-9.79
'0:14.492',-8.83
'0:14.496',-7.3
'0:14.500',-5.58
'0:14.504',-3.94
'0:14.508',-2.74
'0:14.512',-2.02
'0:14.516',-1.38
'0:14.520',-0.75
'0:14.523',-0.33
'0:14.527',-0.07
'0:14.531',0.39
'0:14.535',0.76
'0:14.539',0.94
'0:14.543',1.03
'0:14.547',1.17
'0:14.551',1.34
'0:14.555',1.62
'0:14.559',1.98
'0:14.563',2.29
'0:14.566',2.67
'0:14.570',3
'0:14.574',3.37
'0:14.578',3.67
'0:14.582',3.68
'0:14.586',3.63
'0:14.590',3.49
'0:14.594',2.84
'0:14.598',2.35
'0:14.602',2.49
'0:14.605',2.4
'0:14.609',2.11
'0:14.613',1.87
'0:14.617',1.51
'0:14.621',1
'0:14.625',0.5
'0:14.629',0.06
'0:14.633',-0.11
'0:14.637',-0.14
'0:14.641',-0.08
'0:14.645',-0.05
'0:14.648',-0.14
'0:14.652',-0.09
'0:14.656',0.17
'0:14.660',0.33
'0:14.664',0.57
'0:14.668',0.86
'0:14.672',0.89
'0:14.676',0.71
'0:14.680',0.25
'0:14.684',-0.16
'0:14.688',-0.51
'0:14.691',-0.71
'0:14.695',-0.82
'0:14.699',-1.07
'0:14.703',-1.53
'0:14.707',-2.06
'0:14.711',-2.41
'0:14.715',-2.65
'0:14.719',-3.04
'0:14.723',-3.17
'0:14.727',-3.18
'0:14.730',-2.99
'0:14.734',-2.87
'0:14.738',-2.92
'0:14.742',-3.12
'0:14.746',-3.52
'0:14.750',-3.6
'0:14.754',-3.03
'0:14.758',-1.73
'0:14.762',0.5
'0:14.766',3.6
'0:14.770',6.93
'0:14.773',9.48
'0:14.777',8.99
'0:14.781',4.11
'0:14.785',-1.79
'0:14.789',-6.3
'0:14.793',-9.1
'0:14.797',-10.47
'0:14.801',-10.91
'0:14.805',-11.44
'0:14.809',-11.51
'0:14.813',-10.43
'0:14.816',-8.61
'0:14.820',-7.15
'0:14.824',-5.83
'0:14.828',-4.68
'0:14.832',-3.85
'0:14.836',-3.29
'0:14.840',-3.04
'0:14.844',-2.56
'0:14.848',-1.82
'0:14.852',-1.29
'0:14.855',-1.08
'0:14.859',-1.02
'0:14.863',-0.65
'0:14.867',-0.12
'0:14.871',0.35
'0:14.875',0.96
'0:14.879',1.47
'0:14.883',2.02
'0:14.887',2.22
'0:14.891',2.15
'0:14.895',2.3
'0:14.898',2.58
'0:14.902',3.02
'0:14.906',3.32
'0:14.910',3.22
'0:14.914',2.81
'0:14.918',2.61
'0:14.922',2.49
'0:14.926',2.27
'0:14.930',2
'0:14.934',1.58
'0:14.938',1.12
'0:14.941',0.64
'0:14.945',0.41
'0:14.949',0.49
'0:14.953',0.51
'0:14.957',0.29
'0:14.961',0.15
'0:14.965',0.18
'0:14.969',0.41
'0:14.973',0.45
'0:14.977',0.69
'0:14.980',0.91
'0:14.984',0.98
'0:14.988',0.93
'0:14.992',0.76
'0:14.996',0.8
'0:15.000',0.78
'0:15.004',0.56
'0:15.008',0.42
'0:15.012',0.28
'0:15.016',0.05
'0:15.020',-0.68
'0:15.023',-1.19
'0:15.027',-1.1
'0:15.031',-1.29
'0:15.035',-1.74
'0:15.039',-1.84
'0:15.043',-1.78
'0:15.047',-1.8
'0:15.051',-1.6
'0:15.055',-1.31
'0:15.059',-1.29
'0:15.063',-1.58
'0:15.066',-1.92
'0:15.070',-1.96
'0:15.074',-1.06
'0:15.078',0.79
'0:15.082',3.48
'0:15.086',6.82
'0:15.090',10.54
'0:15.094',12.9
'0:15.098',10.6
'0:15.102',5.35
'0:15.105',0.9
'0:15.109',-2.42
'0:15.113',-5.56
'0:15.117',-8.11
'0:15.121',-9.2
'0:15.125',-9.03
'0:15.129',-8.11
'0:15.133',-7.03
'0:15.137',-5.76
'0:15.141',-4.43
'0:15.145',-3.05
'0:15.148',-2.14
'0:15.152',-1.53
'0:15.156',-0.92
'0:15.160',-0.26
'0:15.164',0.52
'0:15.168',0.83
'0:15.172',0.81
'0:15.176',0.9
'0:15.180',1.13
'0:15.184',1.35
'0:15.188',1.61
'0:15.191',1.98
'0:15.195',2.18
'0:15.199',2.37
'0:15.203',2.71
'0:15.207',3.06
'0:15.211',3.37
'0:15.215',3.83
'0:15.219',4.35
'0:15.223',4.81
'0:15.227',4.81
'0:15.230',4.29
'0:15.234',3.79
'0:15.238',3.76
'0:15.242',3.97
'0:15.246',3.93
'0:15.250',3.54
'0:15.254',3.08
'0:15.258',2.63
'0:15.262',2.1
'0:15.266',1.44
'0:15.270',0.87
'0:15.273',0.71
'0:15.277',0.81
'0:15.281',1.03
'0:15.285',1
'0:15.289',1.1
'0:15.293',1.4
'0:15.297',1.69
'0:15.301',1.89
'0:15.305',1.95
'0:15.309',1.94
'0:15.313',1.76
'0:15.316',1.79
'0:15.320',2.2
'0:15.324',2.53
'0:15.328',2.02
'0:15.332',0.82
'0:15.336',-0.31
'0:15.340',-1.14
'0:15.344',-1.92
'0:15.348',-2.6
'0:15.352',-3.09
'0:15.355',-3.31
'0:15.359',-3.43
'0:15.363',-3.49
'0:15.367',-2.96
'0:15.371',-1.85
'0:15.375',-1.15
'0:15.379',-1.32
'0:15.383',-2.44
'0:15.387',-3.19
'0:15.391',-3.18
'0:15.395',-2.2
'0:15.398',0.02
'0:15.402',3.11
'0:15.406',6.65
'0:15.410',9.98
'0:15.414',10.04
'0:15.418',5.51
'0:15.422',0.14
'0:15.426',-3.89
'0:15.430',-6.88
'0:15.434',-8.96
'0:15.438',-10.13
'0:15.441',-10.2
'0:15.445',-9.17
'0:15.449',-7.57
'0:15.453',-5.92
'0:15.457',-4.4
'0:15.461',-3.12
'0:15.465',-2.21
'0:15.469',-1.55
'0:15.473',-1.01
'0:15.477',-0.46
'0:15.480',-0.04
'0:15.484',0.3
'0:15.488',0.59
'0:15.492',0.91
'0:15.496',1.32
'0:15.500',1.69
'0:15.504',1.96
'0:15.508',2.08
'0:15.512',2.28
'0:15.516',2.81
'0:15.520',3.4
'0:15.523',3.9
'0:15.527',4.05
'0:15.531',4.05
'0:15.535',4.96
'0:15.539',5.34
'0:15.543',5.39
'0:15.547',5.27
'0:15.551',5.22
'0:15.555',5.12
'0:15.559',4.88
'0:15.563',4.62
'0:15.566',4.31
'0:15.570',4.07
'0:15.574',3.83
'0:15.578',3.39
'0:15.582',2.7
'0:15.586',2.19
'0:15.590',2.06
'0:15.594',2.04
'0:15.598',2.2
'0:15.602',2.43
'0:15.605',2.36
'0:15.609',2.17
'0:15.613',2.17
'0:15.617',2.06
'0:15.621',2.25
'0:15.625',2.58
'0:15.629',2.81
'0:15.633',2.9
'0:15.637',2.86
'0:15.641',2.38
'0:15.645',1.75
'0:15.648',1.27
'0:15.652',0.73
'0:15.656',0.04
'0:15.660',-0.51
'0:15.664',-1.07
'0:15.668',-1.63
'0:15.672',-2.02
'0:15.676',-2.19
'0:15.680',-2.23
'0:15.684',-2.21
'0:15.688',-2.07
'0:15.691',-1.87
'0:15.695',-2.19
'0:15.699',-2.84
'0:15.703',-3.38
'0:15.707',-3.08
'0:15.711',-1.84
'0:15.715',0.25
'0:15.719',3.19
'0:15.723',6.82
'0:15.727',10.44
'0:15.730',11.41
'0:15.734',7.4
'0:15.738',1.91
'0:15.742',-2.51
'0:15.746',-5.86
'0:15.750',-8.23
'0:15.754',-9.64
'0:15.758',-9.9
'0:15.762',-9.19
'0:15.766',-7.9
'0:15.770',-6.2
'0:15.773',-4.49
'0:15.777',-3.21
'0:15.781',-2.35
'0:15.785',-1.75
'0:15.789',-1.26
'0:15.793',-0.8
'0:15.797',-0.43
'0:15.801',-0.16
'0:15.805',0.13
'0:15.809',0.35
'0:15.813',0.47
'0:15.816',0.74
'0:15.820',0.91
'0:15.824',1.03
'0:15.828',1.23
'0:15.832',1.56
'0:15.836',1.95
'0:15.840',2.25
'0:15.844',2.43
'0:15.848',2.67
'0:15.852',2.76
'0:15.855',3.13
'0:15.859',3.49
'0:15.863',3.48
'0:15.867',3.3
'0:15.871',2.85
'0:15.875',2.41
'0:15.879',2.01
'0:15.883',1.61
'0:15.887',1.32
'0:15.891',0.9
'0:15.895',0.39
'0:15.898',-0.21
'0:15.902',-0.48
'0:15.906',-0.29
'0:15.910',-0.08
'0:15.914',0.08
'0:15.918',0.21
'0:15.922',0.4
'0:15.926',0.54
'0:15.930',0.57
'0:15.934',0.61
'0:15.938',0.73
'0:15.941',0.73
'0:15.945',0.59
'0:15.949',0.3
'0:15.953',-0.02
'0:15.957',-0.19
'0:15.961',-0.34
'0:15.965',-0.6
'0:15.969',-0.92
'0:15.973',-1.41
'0:15.977',-1.89
'0:15.980',-2.12
'0:15.984',-2.56
'0:15.988',-3.02
'0:15.992',-2.99
'0:15.996',-2.84
'0:16.000',-2.9
'0:16.004',-3.07
'0:16.008',-3.24
'0:16.012',-3.41
'0:16.016',-3.85
'0:16.020',-4.12
'0:16.023',-3.76
'0:16.027',-2.4
'0:16.031',-0.27
'0:16.035',2.78
'0:16.039',6.65
'0:16.043',10.54
'0:16.047',11.78
'0:16.051',8.01
'0:16.055',2.54
'0:16.059',-1.94
'0:16.063',-5.32
'0:16.066',-8.04
'0:16.070',-9.84
'0:16.074',-10.47
'0:16.078',-10.08
'0:16.082',-8.94
'0:16.086',-7.3
'0:16.090',-5.6
'0:16.094',-4.19
'0:16.098',-3.11
'0:16.102',-2.19
'0:16.105',-1.63
'0:16.109',-1.33
'0:16.113',-0.89
'0:16.117',-0.36
'0:16.121',0.15
'0:16.125',0.46
'0:16.129',0.64
'0:16.133',0.79
'0:16.137',0.89
'0:16.141',0.99
'0:16.145',1.24
'0:16.148',1.53
'0:16.152',1.81
'0:16.156',2.17
'0:16.160',2.64
'0:16.164',2.93
'0:16.168',3.12
'0:16.172',3.24
'0:16.176',3.29
'0:16.180',3.24
'0:16.184',3.05
'0:16.188',2.83
'0:16.191',2.62
'0:16.195',2.46
'0:16.199',2.25
'0:16.203',1.85
'0:16.207',1.24
'0:16.211',0.59
'0:16.215',0.18
'0:16.219',0
'0:16.223',-0.21
'0:16.227',-0.29
'0:16.230',-0.16
'0:16.234',-0.15
'0:16.238',-0.19
'0:16.242',-0.01
'0:16.246',0.38
'0:16.250',0.71
'0:16.254',0.95
'0:16.258',1.13
'0:16.262',1.27
'0:16.266',1.25
'0:16.270',0.94
'0:16.273',0.35
'0:16.277',0.02
'0:16.281',0.03
'0:16.285',-0.14
'0:16.289',-0.64
'0:16.293',-1.36
'0:16.297',-2.1
'0:16.301',-2.65
'0:16.305',-2.95
'0:16.309',-2.89
'0:16.313',-2.65
'0:16.316',-2.53
'0:16.320',-2.63
'0:16.324',-2.78
'0:16.328',-2.8
'0:16.332',-2.84
'0:16.336',-2.95
'0:16.340',-2.74
'0:16.344',-1.86
'0:16.348',-0.23
'0:16.352',2.47
'0:16.355',6.09
'0:16.359',9.95
'0:16.363',12.02
'0:16.367',9.31
'0:16.371',4
'0:16.375',-0.5
'0:16.379',-3.89
'0:16.383',-6.91
'0:16.387',-9.16
'0:16.391',-10.08
'0:16.395',-9.76
'0:16.398',-8.71
'0:16.402',-7.15
'0:16.406',-5.49
'0:16.410',-4.18
'0:16.414',-2.94
'0:16.418',-1.94
'0:16.422',-1.3
'0:16.426',-0.8
'0:16.430',-0.46
'0:16.434',-0.12
'0:16.438',0.15
'0:16.441',0.42
'0:16.445',0.44
'0:16.449',0.45
'0:16.453',0.62
'0:16.457',0.88
'0:16.461',1.24
'0:16.465',1.59
'0:16.469',1.98
'0:16.473',2.4
'0:16.477',2.79
'0:16.480',3.15
'0:16.484',3.39
'0:16.488',3.47
'0:16.492',3.63
'0:16.496',3.58
'0:16.500',3.31
'0:16.504',3.02
'0:16.508',2.75
'0:16.512',2.51
'0:16.516',2.19
'0:16.520',1.76
'0:16.523',1.29
'0:16.527',0.83
'0:16.531',0.54
'0:16.535',0.26
'0:16.539',0.05
'0:16.543',-0.09
'0:16.547',-0.09
'0:16.551',0.05
'0:16.555',0.23
'0:16.559',0.4
'0:16.563',0.47
'0:16.566',0.69
'0:16.570',1.01
'0:16.574',1.27
'0:16.578',1.37
'0:16.582',1.29
'0:16.586',0.95
'0:16.590',0.63
'0:16.594',0.35
'0:16.598',0.16
'0:16.602',0.08
'0:16.605',-0.24
'0:16.609',-0.83
'0:16.613',-1.46
'0:16.617',-2.09
'0:16.621',-2.63
'0:16.625',-2.85
'0:16.629',-2.74
'0:16.633',-2.6
'0:16.637',-2.53
'0:16.641',-2.65
'0:16.645',-2.68
'0:16.648',-2.91
'0:16.652',-3.46
'0:16.656',-3.65
'0:16.660',-3.09
'0:16.664',-1.68
'0:16.668',0.95
'0:16.672',4.47
'0:16.676',8.46
'0:16.680',12.01
'0:16.684',12.25
'0:16.688',7.78
'0:16.691',2.29
'0:16.695',-1.97
'0:16.699',-5.45
'0:16.703',-7.98
'0:16.707',-9.4
'0:16.711',-9.68
'0:16.715',-9.02
'0:16.719',-7.68
'0:16.723',-6.1
'0:16.727',-4.68
'0:16.730',-3.5
'0:16.734',-2.33
'0:16.738',-1.35
'0:16.742',-0.65
'0:16.746',-0.09
'0:16.750',0.06
'0:16.754',0.01
'0:16.758',0.15
'0:16.762',0.74
'0:16.766',1.3
'0:16.770',1.57
'0:16.773',1.76
'0:16.777',1.81
'0:16.781',1.89
'0:16.785',2.16
'0:16.789',2.34
'0:16.793',2.58
'0:16.797',2.84
'0:16.801',3.21
'0:16.805',3.55
'0:16.809',3.66
'0:16.813',3.7
'0:16.816',3.53
'0:16.820',3.47
'0:16.824',3.44
'0:16.828',3.22
'0:16.832',2.82
'0:16.836',2.37
'0:16.840',2
'0:16.844',1.68
'0:16.848',1.24
'0:16.852',0.95
'0:16.855',0.9
'0:16.859',1.03
'0:16.863',0.96
'0:16.867',0.69
'0:16.871',0.52
'0:16.875',0.49
'0:16.879',0.69
'0:16.883',1.08
'0:16.887',1.37
'0:16.891',1.54
'0:16.895',1.54
'0:16.898',1.62
'0:16.902',1.7
'0:16.906',1.51
'0:16.910',1.15
'0:16.914',0.75
'0:16.918',0.47
'0:16.922',0.17
'0:16.926',-0.19
'0:16.930',-0.67
'0:16.934',-1.17
'0:16.938',-1.58
'0:16.941',-1.9
'0:16.945',-2.11
'0:16.949',-2.12
'0:16.953',-2.1
'0:16.957',-2.22
'0:16.961',-2.31
'0:16.965',-2.35
'0:16.969',-2.53
'0:16.973',-2.63
'0:16.977',-2.43
'0:16.980',-1.61
'0:16.984',0.04
'0:16.988',2.76
'0:16.992',6.3
'0:16.996',10.16
'0:17.000',12.37
'0:17.004',9.85
'0:17.008',4.48
'0:17.012',-0.22
'0:17.016',-3.78
'0:17.020',-6.67
'0:17.023',-8.72
'0:17.027',-9.64
'0:17.031',-9.44
'0:17.035',-8.36
'0:17.039',-6.88
'0:17.043',-5.37
'0:17.047',-3.9
'0:17.051',-2.73
'0:17.055',-1.75
'0:17.059',-0.94
'0:17.063',-0.36
'0:17.066',-0.09
'0:17.070',0.1
'0:17.074',0.29
'0:17.078',0.4
'0:17.082',0.52
'0:17.086',0.81
'0:17.090',1.05
'0:17.094',1.3
'0:17.098',1.59
'0:17.102',1.88
'0:17.105',2.16
'0:17.109',2.49
'0:17.113',2.83
'0:17.117',3.11
'0:17.121',3.45
'0:17.125',3.71
'0:17.129',3.72
'0:17.133',3.56
'0:17.137',3.46
'0:17.141',3.34
'0:17.145',3.13
'0:17.148',2.81
'0:17.152',2.47
'0:17.156',1.97
'0:17.160',1.4
'0:17.164',1
'0:17.168',0.71
'0:17.172',0.45
'0:17.176',0.22
'0:17.180',0.06
'0:17.184',0.06
'0:17.188',0.15
'0:17.191',0.23
'0:17.195',0.33
'0:17.199',0.57
'0:17.203',0.95
'0:17.207',1.18
'0:17.211',1.27
'0:17.215',1.32
'0:17.219',1.3
'0:17.223',1.24
'0:17.227',0.96
'0:17.230',0.4
'0:17.234',0
'0:17.238',-0.19
'0:17.242',-0.61
'0:17.246',-1.27
'0:17.250',-1.8
'0:17.254',-2.02
'0:17.258',-2.31
'0:17.262',-2.63
'0:17.266',-2.98
'0:17.270',-3.17
'0:17.273',-3.14
'0:17.277',-3.05
'0:17.281',-3
'0:17.285',-3.22
'0:17.289',-3.53
'0:17.293',-3.45
'0:17.297',-2.71
'0:17.301',-1.34
'0:17.305',0.91
'0:17.309',4.23
'0:17.313',8.18
'0:17.316',11.42
'0:17.320',10.77
'0:17.324',5.82
'0:17.328',0.52
'0:17.332',-3.49
'0:17.336',-6.79
'0:17.340',-9.2
'0:17.344',-10.42
'0:17.348',-10.47
'0:17.352',-9.73
'0:17.355',-8.44
'0:17.359',-6.98
'0:17.363',-5.54
'0:17.367',-4.25
'0:17.371',-3.3
'0:17.375',-2.58
'0:17.379',-2
'0:17.383',-1.65
'0:17.387',-0.72
'0:17.391',0.2
'0:17.395',0.58
'0:17.398',0.57
'0:17.402',0.56
'0:17.406',0.76
'0:17.410',0.96
'0:17.414',1.07
'0:17.418',1.16
'0:17.422',1.31
'0:17.426',1.73
'0:17.430',2.15
'0:17.434',2.4
'0:17.438',2.54
'0:17.441',2.59
'0:17.445',2.66
'0:17.449',2.81
'0:17.453',2.93
'0:17.457',2.8
'0:17.461',2.56
'0:17.465',2.11
'0:17.469',1.86
'0:17.473',1.63
'0:17.477',1.21
'0:17.480',0.76
'0:17.484',0.38
'0:17.488',0.22
'0:17.492',0.2
'0:17.496',0.23
'0:17.500',0.22
'0:17.504',0.23
'0:17.508',0.25
'0:17.512',0.16
'0:17.516',0.27
'0:17.520',0.77
'0:17.523',1.32
'0:17.527',1.69
'0:17.531',1.95
'0:17.535',1.78
'0:17.539',1.24
'0:17.543',0.68
'0:17.547',0.27
'0:17.551',0.2
'0:17.555',0.04
'0:17.559',-0.34
'0:17.563',-0.75
'0:17.566',-1.15
'0:17.570',-1.71
'0:17.574',-2.09
'0:17.578',-2.38
'0:17.582',-2.63
'0:17.586',-2.7
'0:17.590',-2.6
'0:17.594',-2.36
'0:17.598',-2.29
'0:17.602',-2.66
'0:17.605',-3.16
'0:17.609',-3.3
'0:17.613',-2.78
'0:17.617',-1.25
'0:17.621',1.47
'0:17.625',4.96
'0:17.629',8.93
'0:17.633',12.31
'0:17.637',11.62
'0:17.641',6.78
'0:17.645',1.45
'0:17.648',-2.95
'0:17.652',-6.5
'0:17.656',-8.97
'0:17.660',-10.03
'0:17.664',-9.78
'0:17.668',-8.8
'0:17.672',-7.39
'0:17.676',-5.8
'0:17.680',-4.26
'0:17.684',-2.94
'0:17.688',-1.93
'0:17.691',-1.28
'0:17.695',-0.89
'0:17.699',-0.57
'0:17.703',-0.11
'0:17.707',0.3
'0:17.711',0.49
'0:17.715',0.54
'0:17.719',0.81
'0:17.723',1.23
'0:17.727',1.39
'0:17.730',1.52
'0:17.734',1.69
'0:17.738',1.94
'0:17.742',2.26
'0:17.746',2.56
'0:17.750',2.79
'0:17.754',3.09
'0:17.758',3.32
'0:17.762',3.42
'0:17.766',3.34
'0:17.770',3.1
'0:17.773',2.85
'0:17.777',2.71
'0:17.781',2.56
'0:17.785',2.27
'0:17.789',1.88
'0:17.793',1.38
'0:17.797',0.95
'0:17.801',0.63
'0:17.805',0.3
'0:17.809',0.1
'0:17.813',0.06
'0:17.816',0.05
'0:17.820',0.22
'0:17.824',0.42
'0:17.828',0.51
'0:17.832',0.61
'0:17.836',0.82
'0:17.840',1.07
'0:17.844',1.44
'0:17.848',1.71
'0:17.852',1.76
'0:17.855',1.56
'0:17.859',1.19
'0:17.863',0.75
'0:17.867',0.09
'0:17.871',-0.55
'0:17.875',-0.87
'0:17.879',-0.95
'0:17.883',-1.24
'0:17.887',-1.58
'0:17.891',-1.92
'0:17.895',-2.11
'0:17.898',-2.19
'0:17.902',-2.26
'0:17.906',-2.26
'0:17.910',-2.38
'0:17.914',-2.51
'0:17.918',-3.05
'0:17.922',-3.66
'0:17.926',-3.71
'0:17.930',-2.98
'0:17.934',-1.41
'0:17.938',1.11
'0:17.941',4.47
'0:17.945',8.15
'0:17.949',11.39
'0:17.953',11.06
'0:17.957',6.56
'0:17.961',1.48
'0:17.965',-2.61
'0:17.969',-6.06
'0:17.973',-8.47
'0:17.977',-9.76
'0:17.980',-9.71
'0:17.984',-8.67
'0:17.988',-7.12
'0:17.992',-5.6
'0:17.996',-4.19
'0:18.000',-2.84
'0:18.004',-1.84
'0:18.008',-1.16
'0:18.012',-0.75
'0:18.016',-0.43
'0:18.020',-0.2
'0:18.023',0.15
'0:18.027',0.27
'0:18.031',0.13
'0:18.035',0.37
'0:18.039',0.79
'0:18.043',1.15
'0:18.047',1.47
'0:18.051',1.9
'0:18.055',2.35
'0:18.059',2.57
'0:18.063',2.74
'0:18.066',2.9
'0:18.070',3.08
'0:18.074',3.29
'0:18.078',3.25
'0:18.082',3.2
'0:18.086',3.2
'0:18.090',3.11
'0:18.094',2.78
'0:18.098',2.32
'0:18.102',2.2
'0:18.105',1.84
'0:18.109',1.36
'0:18.113',0.92
'0:18.117',0.42
'0:18.121',0.03
'0:18.125',-0.09
'0:18.129',-0.03
'0:18.133',0.22
'0:18.137',0.46
'0:18.141',0.47
'0:18.145',0.44
'0:18.148',0.62
'0:18.152',0.83
'0:18.156',1.07
'0:18.160',1.25
'0:18.164',1.1
'0:18.168',0.94
'0:18.172',0.83
'0:18.176',0.49
'0:18.180',0.05
'0:18.184',-0.24
'0:18.188',-0.41
'0:18.191',-0.64
'0:18.195',-0.96
'0:18.199',-1.34
'0:18.203',-1.85
'0:18.207',-2.26
'0:18.211',-2.53
'0:18.215',-2.75
'0:18.219',-2.87
'0:18.223',-2.9
'0:18.227',-2.85
'0:18.230',-2.85
'0:18.234',-3.09
'0:18.238',-3.49
'0:18.242',-3.83
'0:18.246',-3.54
'0:18.250',-2.33
'0:18.254',-0.28
'0:18.258',2.57
'0:18.262',6.14
'0:18.266',9.68
'0:18.270',10.3
'0:18.273',6.3
'0:18.277',1.28
'0:18.281',-2.76
'0:18.285',-5.94
'0:18.289',-8.35
'0:18.293',-9.77
'0:18.297',-10.05
'0:18.301',-9.28
'0:18.305',-7.95
'0:18.309',-6.41
'0:18.313',-4.9
'0:18.316',-3.59
'0:18.320',-2.67
'0:18.324',-1.89
'0:18.328',-1.08
'0:18.332',-0.31
'0:18.336',0.13
'0:18.340',0.2
'0:18.344',0.17
'0:18.348',0.15
'0:18.352',0.1
'0:18.355',0.18
'0:18.359',0.5
'0:18.363',0.83
'0:18.367',1.16
'0:18.371',1.59
'0:18.375',1.88
'0:18.379',2.16
'0:18.383',2.48
'0:18.387',2.71
'0:18.391',2.83
'0:18.395',3.02
'0:18.398',3.22
'0:18.402',3.25
'0:18.406',3.04
'0:18.410',2.68
'0:18.414',2.36
'0:18.418',2.19
'0:18.422',2.02
'0:18.426',1.85
'0:18.430',1.44
'0:18.434',0.9
'0:18.438',0.56
'0:18.441',0.38
'0:18.445',0.3
'0:18.449',0.27
'0:18.453',0.27
'0:18.457',0.25
'0:18.461',0.25
'0:18.465',0.43
'0:18.469',0.77
'0:18.473',1.03
'0:18.477',1.22
'0:18.480',1.3
'0:18.484',1.26
'0:18.488',0.95
'0:18.492',0.51
'0:18.496',0.17
'0:18.500',-0.08
'0:18.504',-0.41
'0:18.508',-0.71
'0:18.512',-0.82
'0:18.516',-1.12
'0:18.520',-1.71
'0:18.523',-2.17
'0:18.527',-2.51
'0:18.531',-2.66
'0:18.535',-2.63
'0:18.539',-2.55
'0:18.543',-2.56
'0:18.547',-2.56
'0:18.551',-2.68
'0:18.555',-3.07
'0:18.559',-3.31
'0:18.563',-2.96
'0:18.566',-1.8
'0:18.570',0.2
'0:18.574',2.94
'0:18.578',6.26
'0:18.582',9.73
'0:18.586',10.73
'0:18.590',7.06
'0:18.594',2.02
'0:18.598',-1.88
'0:18.602',-4.76
'0:18.605',-7.26
'0:18.609',-8.9
'0:18.613',-9.47
'0:18.617',-9.05
'0:18.621',-7.8
'0:18.625',-6.21
'0:18.629',-4.75
'0:18.633',-3.62
'0:18.637',-2.74
'0:18.641',-1.91
'0:18.645',-1.07
'0:18.648',-0.58
'0:18.652',-0.33
'0:18.656',-0.09
'0:18.660',0.11
'0:18.664',0.31
'0:18.668',0.45
'0:18.672',0.66
'0:18.676',1.08
'0:18.680',1.47
'0:18.684',1.73
'0:18.688',2.03
'0:18.691',2.14
'0:18.695',2.42
'0:18.699',2.79
'0:18.703',3.18
'0:18.707',3.44
'0:18.711',3.54
'0:18.715',3.44
'0:18.719',3.14
'0:18.723',2.9
'0:18.727',2.76
'0:18.730',2.7
'0:18.734',2.44
'0:18.738',2.1
'0:18.742',1.88
'0:18.746',1.7
'0:18.750',1.57
'0:18.754',1.46
'0:18.758',1.24
'0:18.762',1
'0:18.766',0.97
'0:18.770',0.9
'0:18.773',0.76
'0:18.777',0.76
'0:18.781',1.01
'0:18.785',1.25
'0:18.789',1.4
'0:18.793',1.49
'0:18.797',1.47
'0:18.801',1.47
'0:18.805',1.58
'0:18.809',1.36
'0:18.813',0.83
'0:18.816',0.55
'0:18.820',0.33
'0:18.824',-0.18
'0:18.828',-0.8
'0:18.832',-1.12
'0:18.836',-1.29
'0:18.840',-1.64
'0:18.844',-2.18
'0:18.848',-2.61
'0:18.852',-2.75
'0:18.855',-2.42
'0:18.859',-1.99
'0:18.863',-1.84
'0:18.867',-1.98
'0:18.871',-2.51
'0:18.875',-3.09
'0:18.879',-2.81
'0:18.883',-1.28
'0:18.887',0.92
'0:18.891',3.33
'0:18.895',6.54
'0:18.898',10.03
'0:18.902',11
'0:18.906',7.29
'0:18.910',2.02
'0:18.914',-1.73
'0:18.918',-4.46
'0:18.922',-6.84
'0:18.926',-8.65
'0:18.930',-9.23
'0:18.934',-8.95
'0:18.938',-8.07
'0:18.941',-6.86
'0:18.945',-5.25
'0:18.949',-3.47
'0:18.953',-2.19
'0:18.957',-1.4
'0:18.961',-0.94
'0:18.965',-0.58
'0:18.969',-0.51
'0:18.973',-0.05
'0:18.977',0.7
'0:18.980',1.3
'0:18.984',1.38
'0:18.988',1.26
'0:18.992',0.93
'0:18.996',1.3
'0:19.000',1.66
'0:19.004',1.91
'0:19.008',2.41
'0:19.012',2.95
'0:19.016',3.27
'0:19.020',3.56
'0:19.023',3.38
'0:19.027',2.88
'0:19.031',3.02
'0:19.035',3.24
'0:19.039',3.21
'0:19.043',3.2
'0:19.047',3.29
'0:19.051',3.31
'0:19.055',2.75
'0:19.059',1.99
'0:19.063',1.55
'0:19.066',1.24
'0:19.070',0.75
'0:19.074',0.72
'0:19.078',0.97
'0:19.082',0.88
'0:19.086',0.75
'0:19.090',1
'0:19.094',0.89
'0:19.098',1.04
'0:19.102',0.51
'0:19.105',0.47
'0:19.109',1.03
'0:19.113',1.08
'0:19.117',1.72
'0:19.121',2.07
'0:19.125',1.13
'0:19.129',0.98
'0:19.133',0.34
'0:19.137',-0.14
'0:19.141',-0.02
'0:19.145',-0.17
'0:19.148',-0.94
'0:19.152',-1.9
'0:19.156',-1.94
'0:19.160',-1.7
'0:19.164',-2.01
'0:19.168',-2
'0:19.172',-1.83
'0:19.176',-2.41
'0:19.180',-3.02
'0:19.184',-3.48
'0:19.188',-3.58
'0:19.191',-3.38
'0:19.195',-2.87
'0:19.199',-2.06
'0:19.203',-0.25
'0:19.207',3.07
'0:19.211',6.97
'0:19.215',10.65
'0:19.219',13.48
'0:19.223',11.77
'0:19.227',6.02
'0:19.230',0.74
'0:19.234',-2.62
'0:19.238',-6.4
'0:19.242',-9.39
'0:19.246',-10.15
'0:19.250',-10.56
'0:19.254',-10.09
'0:19.258',-8.84
'0:19.262',-7.55
'0:19.266',-6.12
'0:19.270',-4.33
'0:19.273',-2.99
'0:19.277',-2.43
'0:19.281',-2.16
'0:19.285',-1.62
'0:19.289',-0.87
'0:19.293',-0.42
'0:19.297',-0.18
'0:19.301',0.13
'0:19.305',0.49
'0:19.309',0.87
'0:19.313',1
'0:19.316',1.01
'0:19.320',1.16
'0:19.324',1.52
'0:19.328',1.86
'0:19.332',2.28
'0:19.336',2.82
'0:19.340',2.98
'0:19.344',2.99
'0:19.348',3.13
'0:19.352',3.29
'0:19.355',3.22
'0:19.359',2.85
'0:19.363',2.64
'0:19.367',2.61
'0:19.371',2.46
'0:19.375',2.18
'0:19.379',1.85
'0:19.383',1.41
'0:19.387',0.93
'0:19.391',0.42
'0:19.395',0.02
'0:19.398',-0.17
'0:19.402',-0.16
'0:19.406',0.03
'0:19.410',0.28
'0:19.414',0.46
'0:19.418',0.56
'0:19.422',0.88
'0:19.426',1.28
'0:19.430',1.59
'0:19.434',1.72
'0:19.438',1.7
'0:19.441',1.36
'0:19.445',0.89
'0:19.449',0.52
'0:19.453',0.26
'0:19.457',-0.02
'0:19.461',-0.34
'0:19.465',-0.71
'0:19.469',-1.11
'0:19.473',-1.49
'0:19.477',-1.93
'0:19.480',-2.29
'0:19.484',-2.38
'0:19.488',-2.41
'0:19.492',-2.46
'0:19.496',-2.5
'0:19.500',-2.55
'0:19.504',-2.77
'0:19.508',-3.07
'0:19.512',-3.39
'0:19.516',-3.15
'0:19.520',-1.84
'0:19.523',0.63
'0:19.527',3.93
