'0:00.000',0.3
'0:00.004',-0.46
'0:00.008',-1.1
'0:00.012',-2.05
'0:00.016',-3.07
'0:00.020',-3.66
'0:00.023',-3.03
'0:00.027',-3.7
'0:00.031',-4.17
'0:00.035',-4.29
'0:00.039',-4.21
'0:00.043',-3.74
'0:00.047',-3.13
'0:00.051',-2.68
'0:00.055',-2.34
'0:00.059',-2.56
'0:00.063',-2.17
'0:00.066',-0.66
'0:00.070',1.24
'0:00.074',2.55
'0:00.078',2.72
'0:00.082',2.27
'0:00.086',0.61
'0:00.090',-1.9
'0:00.094',-4.29
'0:00.098',-5.73
'0:00.102',-5.96
'0:00.105',-5.09
'0:00.109',-4.38
'0:00.113',-3.88
'0:00.117',-2.69
'0:00.121',-1.09
'0:00.125',-0.17
'0:00.129',-0.23
'0:00.133',-1
'0:00.137',-1.72
'0:00.141',-1.53
'0:00.145',-0.14
'0:00.148',0.82
'0:00.152',1.17
'0:00.156',1.49
'0:00.160',1.73
'0:00.164',1.66
'0:00.168',1.77
'0:00.172',2.14
'0:00.176',2.85
'0:00.180',3.32
'0:00.184',3.39
'0:00.188',4.07
'0:00.191',5.03
'0:00.195',5.56
'0:00.199',5.61
'0:00.203',5
'0:00.207',4.33
'0:00.211',3.93
'0:00.215',3.85
'0:00.219',4.4
'0:00.223',4.72
'0:00.227',4.21
'0:00.230',3.24
'0:00.234',2.37
'0:00.238',1.69
'0:00.242',0.75
'0:00.246',-0.13
'0:00.250',-0.39
'0:00.254',-0.6
'0:00.258',-0.91
'0:00.262',-1.23
'0:00.266',-1.65
'0:00.270',-1.68
'0:00.273',-1.63
'0:00.277',-2.26
'0:00.281',-2.51
'0:00.285',-2.34
'0:00.289',-1.71
'0:00.293',-1.19
'0:00.297',-0.76
'0:00.301',-0.47
'0:00.305',-0.46
'0:00.309',-0.24
'0:00.313',0.03
'0:00.316',-0.13
'0:00.320',-0.41
'0:00.324',-0.51
'0:00.328',-0.81
'0:00.332',-1.46
'0:00.336',-2.05
'0:00.340',-2.7
'0:00.344',-2.86
'0:00.348',-3.37
'0:00.352',-3.76
'0:00.355',-3.82
'0:00.359',-3.88
'0:00.363',-4.03
'0:00.367',-3.5
'0:00.371',-2.89
'0:00.375',-2.63
'0:00.379',-2.35
'0:00.383',-1.81
'0:00.387',-0.42
'0:00.391',1.61
'0:00.395',3.91
'0:00.398',5.44
'0:00.402',6.11
'0:00.406',5.8
'0:00.410',3.17
'0:00.414',0.29
'0:00.418',-2.13
'0:00.422',-3.56
'0:00.426',-4.23
'0:00.430',-3.8
'0:00.434',-3.18
'0:00.438',-2.87
'0:00.441',-2.27
'0:00.445',-1.29
'0:00.449',-0.48
'0:00.453',-0.37
'0:00.457',-0.47
'0:00.461',0.18
'0:00.465',1.18
'0:00.469',1.78
'0:00.473',1.78
'0:00.477',1.34
'0:00.480',1.36
'0:00.484',1.38
'0:00.488',0.92
'0:00.492',0.73
'0:00.496',1.07
'0:00.500',0.65
'0:00.504',0.31
'0:00.508',0.57
'0:00.512',0.38
'0:00.516',0.61
'0:00.520',1.3
'0:00.523',1.33
'0:00.527',1.4
'0:00.531',1.55
'0:00.535',1.88
'0:00.539',2
'0:00.543',1.71
'0:00.547',0.88
'0:00.551',0.39
'0:00.555',-0.04
'0:00.559',-0.06
'0:00.563',-0.19
'0:00.566',0.13
'0:00.570',0.4
'0:00.574',-0.36
'0:00.578',-0.77
'0:00.582',-0.72
'0:00.586',-0.23
'0:00.590',0.01
'0:00.594',-0.2
'0:00.598',-0.42
'0:00.602',-0.65
'0:00.605',-0.62
'0:00.609',-0.2
'0:00.613',0.23
'0:00.617',0.84
'0:00.621',0.88
'0:00.625',1.18
'0:00.629',1.29
'0:00.633',1.11
'0:00.637',0.83
'0:00.641',0.58
'0:00.645',0.51
'0:00.648',0.3
'0:00.652',0.21
'0:00.656',-0.61
'0:00.660',-1.53
'0:00.664',-2.26
'0:00.668',-2.42
'0:00.672',-2.38
'0:00.676',-2.55
'0:00.680',-2.5
'0:00.684',-2.58
'0:00.688',-2.63
'0:00.691',-2.42
'0:00.695',-2.51
'0:00.699',-2.92
'0:00.703',-3.29
'0:00.707',-3.07
'0:00.711',-1.75
'0:00.715',0.64
'0:00.719',4.1
'0:00.723',6.93
'0:00.727',8.24
'0:00.730',7.33
'0:00.734',4.14
'0:00.738',0.69
'0:00.742',-2.37
'0:00.746',-5.36
'0:00.750',-6.83
'0:00.754',-6.73
'0:00.758',-5.73
'0:00.762',-4.99
'0:00.766',-4.64
'0:00.770',-3.77
'0:00.773',-3
'0:00.777',-2.75
'0:00.781',-2.37
'0:00.785',-1.69
'0:00.789',-0.78
'0:00.793',-0.64
'0:00.797',-0.94
'0:00.801',-1.45
'0:00.805',-1.4
'0:00.809',-0.53
'0:00.813',0.31
'0:00.816',0.4
'0:00.820',-0.39
'0:00.824',-1.03
'0:00.828',-0.77
'0:00.832',0.86
'0:00.836',1.99
'0:00.840',2.5
'0:00.844',3.1
'0:00.848',3.47
'0:00.852',3.9
'0:00.855',4.13
'0:00.859',4.27
'0:00.863',4.02
'0:00.867',2.8
'0:00.871',1.71
'0:00.875',1.23
'0:00.879',1.09
'0:00.883',0.99
'0:00.887',0.8
'0:00.891',-0.34
'0:00.895',-1.39
'0:00.898',-1.84
'0:00.902',-2.28
'0:00.906',-2.32
'0:00.910',-2.29
'0:00.914',-2.32
'0:00.918',-2.19
'0:00.922',-2.37
'0:00.926',-2.71
'0:00.930',-2.47
'0:00.934',-1.89
'0:00.938',-2.04
'0:00.941',-1.88
'0:00.945',-1.28
'0:00.949',-0.83
'0:00.953',-0.64
'0:00.957',-0.48
'0:00.961',-0.76
'0:00.965',-1.04
'0:00.969',-1.28
'0:00.973',-1.43
'0:00.977',-1.48
'0:00.980',-1.78
'0:00.984',-2.31
'0:00.988',-2.66
'0:00.992',-3
'0:00.996',-3.02
'0:01.000',-2.39
'0:01.004',-2.48
'0:01.008',-2.67
'0:01.012',-2.28
'0:01.016',-1.98
'0:01.020',-2.03
'0:01.023',-2.08
'0:01.027',-1.72
'0:01.031',-0.98
'0:01.035',0.02
'0:01.039',1.47
'0:01.043',3.21
'0:01.047',3.62
'0:01.051',3.11
'0:01.055',1.76
'0:01.059',-0.58
'0:01.063',-2.52
'0:01.066',-3.54
'0:01.070',-3.99
'0:01.074',-3.97
'0:01.078',-3.8
'0:01.082',-3.17
'0:01.086',-2.18
'0:01.090',-1.14
'0:01.094',-0.61
'0:01.098',-0.01
'0:01.102',0.4
'0:01.105',0.49
'0:01.109',0.55
'0:01.113',0.84
'0:01.117',1.25
'0:01.121',1.41
'0:01.125',1.71
'0:01.129',1.41
'0:01.133',0.38
'0:01.137',-4.3
'0:01.141',-17.37
'0:01.145',-27.35
'0:01.148',-24.27
'0:01.152',-11.72
'0:01.156',-1.83
'0:01.160',4.26
'0:01.164',7.89
'0:01.168',9.77
'0:01.172',10.52
'0:01.176',10.72
'0:01.180',10.68
'0:01.184',10.43
'0:01.188',10.14
'0:01.191',9.93
'0:01.195',9.54
'0:01.199',9.04
'0:01.203',8.02
'0:01.207',6.8
'0:01.211',6.14
'0:01.215',6.21
'0:01.219',6.29
'0:01.223',6.2
'0:01.227',5.85
'0:01.230',5.08
'0:01.234',4.51
'0:01.238',4.7
'0:01.242',4.95
'0:01.246',4.9
'0:01.250',4.9
'0:01.254',4.92
'0:01.258',5.06
'0:01.262',5.31
'0:01.266',5.18
'0:01.270',4.85
'0:01.273',4.65
'0:01.277',4.72
'0:01.281',4.52
'0:01.285',4.46
'0:01.289',4.14
'0:01.293',3.25
'0:01.297',2.66
'0:01.301',2.09
'0:01.305',1.47
'0:01.309',1.15
'0:01.313',0.53
'0:01.316',0
'0:01.320',-0.92
'0:01.324',-1.4
'0:01.328',-1.53
'0:01.332',-1.74
'0:01.336',-1.85
'0:01.340',-1.84
'0:01.344',-1.98
'0:01.348',-2.08
'0:01.352',-2.08
'0:01.355',-2.26
'0:01.359',-1.8
'0:01.363',-0.76
'0:01.367',1.49
'0:01.371',4.78
'0:01.375',7.38
'0:01.379',8.5
'0:01.383',6.59
'0:01.387',2.78
'0:01.391',-1.22
'0:01.395',-4.16
'0:01.398',-5.83
'0:01.402',-6.3
'0:01.406',-6.27
'0:01.410',-5.97
'0:01.414',-5.58
'0:01.418',-4.91
'0:01.422',-3.89
'0:01.426',-3.06
'0:01.430',-2.66
'0:01.434',-2.24
'0:01.438',-1.86
'0:01.441',-1.78
'0:01.445',-1.8
'0:01.449',-1.8
'0:01.453',-1.68
'0:01.457',-1.27
'0:01.461',-0.67
'0:01.465',-0.12
'0:01.469',0.02
'0:01.473',-0.29
'0:01.477',-0.45
'0:01.480',-0.6
'0:01.484',-0.46
'0:01.488',-0.08
'0:01.492',0.36
'0:01.496',0.9
'0:01.500',1.57
'0:01.504',1.78
'0:01.508',1.64
'0:01.512',1.1
'0:01.516',0.64
'0:01.520',0.6
'0:01.523',0.52
'0:01.527',-0.3
'0:01.531',-0.79
'0:01.535',-0.9
'0:01.539',-1.12
'0:01.543',-1.21
'0:01.547',-1.18
'0:01.551',-1.23
'0:01.555',-1.6
'0:01.559',-1.7
'0:01.563',-1.52
'0:01.566',-1.03
'0:01.570',-0.86
'0:01.574',-0.57
'0:01.578',-0.12
'0:01.582',-0.03
'0:01.586',-0.42
'0:01.590',-1.07
'0:01.594',-1.03
'0:01.598',-0.5
'0:01.602',0.57
'0:01.605',1.11
'0:01.609',1.31
'0:01.613',1.26
'0:01.617',0.78
'0:01.621',-0.22
'0:01.625',-0.75
'0:01.629',-0.89
'0:01.633',-1.17
'0:01.637',-1.59
'0:01.641',-2.21
'0:01.645',-2.62
'0:01.648',-3.21
'0:01.652',-3.23
'0:01.656',-3.15
'0:01.660',-2.73
'0:01.664',-2.39
'0:01.668',-2.58
'0:01.672',-3.08
'0:01.676',-3.69
'0:01.680',-3.98
'0:01.684',-3.35
'0:01.688',-1.16
'0:01.691',1.5
'0:01.695',3.83
'0:01.699',4.98
'0:01.703',5.09
'0:01.707',3.08
'0:01.711',0.26
'0:01.715',-1.9
'0:01.719',-3.62
'0:01.723',-4.39
'0:01.727',-4.24
'0:01.730',-3.85
'0:01.734',-3.09
'0:01.738',-2.08
'0:01.742',-1.47
'0:01.746',-1.29
'0:01.750',-1.17
'0:01.754',-0.59
'0:01.758',-0.4
'0:01.762',-0.21
'0:01.766',0.13
'0:01.770',-0.35
'0:01.773',-0.49
'0:01.777',-0.48
'0:01.781',0.02
'0:01.785',0.48
'0:01.789',0.89
'0:01.793',1.17
'0:01.797',1.57
'0:01.801',2.02
'0:01.805',2.12
'0:01.809',2.22
'0:01.813',2.81
'0:01.816',3.32
'0:01.820',3.83
'0:01.824',4.01
'0:01.828',3.54
'0:01.832',3.06
'0:01.836',2.96
'0:01.840',2.75
'0:01.844',2.82
'0:01.848',2.79
'0:01.852',2.5
'0:01.855',1.97
'0:01.859',0.75
'0:01.863',-0.67
'0:01.867',-1.67
'0:01.871',-1.47
'0:01.875',-0.92
'0:01.879',-0.54
'0:01.883',-0.25
'0:01.887',0.26
'0:01.891',0.79
'0:01.895',0.71
'0:01.898',0.57
'0:01.902',0.45
'0:01.906',0.4
'0:01.910',0.28
'0:01.914',-0.09
'0:01.918',-0.68
'0:01.922',-0.67
'0:01.926',-0.45
'0:01.930',-0.29
'0:01.934',-0.3
'0:01.938',-0.35
'0:01.941',-0.47
'0:01.945',-0.47
'0:01.949',-0.94
'0:01.953',-1.44
'0:01.957',-1.88
'0:01.961',-2.42
'0:01.965',-2.97
'0:01.969',-2.98
'0:01.973',-2.76
'0:01.977',-2.81
'0:01.980',-2.84
'0:01.984',-2.63
'0:01.988',-2.73
'0:01.992',-2.91
'0:01.996',-3.09
'0:02.000',-2.98
'0:02.004',-2.58
'0:02.008',-2.08
'0:02.012',-0.88
'0:02.016',1.05
'0:02.020',2.6
'0:02.023',2.79
'0:02.027',2.43
'0:02.031',0.62
'0:02.035',-1.55
'0:02.039',-3.3
'0:02.043',-4.36
'0:02.047',-4.51
'0:02.051',-4.22
'0:02.055',-3.35
'0:02.059',-2.4
'0:02.063',-1.44
'0:02.066',-0.63
'0:02.070',0.03
'0:02.074',0.37
'0:02.078',0.87
'0:02.082',1.24
'0:02.086',1.54
'0:02.090',1.95
'0:02.094',2
'0:02.098',1.91
'0:02.102',1.75
'0:02.105',1.98
'0:02.109',2.39
'0:02.113',2.67
'0:02.117',2.87
'0:02.121',3.01
'0:02.125',3.62
'0:02.129',4.09
'0:02.133',4.52
'0:02.137',4.78
'0:02.141',4.93
'0:02.145',5.02
'0:02.148',4.87
'0:02.152',4.53
'0:02.156',4.47
'0:02.160',4.83
'0:02.164',4.62
'0:02.168',3.98
'0:02.172',3.31
'0:02.176',2.69
'0:02.180',2.54
'0:02.184',2.39
'0:02.188',1.62
'0:02.191',0.74
'0:02.195',0.44
'0:02.199',0.49
'0:02.203',0.7
'0:02.207',0.38
'0:02.211',-0.16
'0:02.215',-1.05
'0:02.219',-7.77
'0:02.223',-8.2
'0:02.227',-4.57
'0:02.230',-1.77
'0:02.234',-0.02
'0:02.238',1.43
'0:02.242',2.42
'0:02.246',2.88
'0:02.250',2.89
'0:02.254',3.17
'0:02.258',3.07
'0:02.262',2.61
'0:02.266',2.17
'0:02.270',1.72
'0:02.273',1.12
'0:02.277',0.72
'0:02.281',0.27
'0:02.285',-0.23
'0:02.289',-0.79
'0:02.293',-1.24
'0:02.297',-1.61
'0:02.301',-2
'0:02.305',-2.4
'0:02.309',-2.41
'0:02.313',-2.42
'0:02.316',-2.54
'0:02.320',-2.99
'0:02.324',-3.15
'0:02.328',-3.16
'0:02.332',-2.89
'0:02.336',-1.68
'0:02.340',1.03
'0:02.344',4.72
'0:02.348',7.44
'0:02.352',8.48
'0:02.355',6.76
'0:02.359',2.36
'0:02.363',-2.07
'0:02.367',-5.26
'0:02.371',-7.26
'0:02.375',-8.35
'0:02.379',-7.97
'0:02.383',-6.68
'0:02.387',-5.33
'0:02.391',-4.48
'0:02.395',-3.73
'0:02.398',-3.29
'0:02.402',-2.83
'0:02.406',-2.36
'0:02.410',-2.49
'0:02.414',-2.74
'0:02.418',-2.65
'0:02.422',-2.3
'0:02.426',-2.3
'0:02.430',-2.37
'0:02.434',-1.99
'0:02.438',-1.65
'0:02.441',-1.02
'0:02.445',-0.23
'0:02.449',0.29
'0:02.453',0.56
'0:02.457',0.43
'0:02.461',0.38
'0:02.465',0.81
'0:02.469',1.59
'0:02.473',2.31
'0:02.477',2.76
'0:02.480',2.82
'0:02.484',2.55
'0:02.488',2.17
'0:02.492',1.48
'0:02.496',0.8
'0:02.500',0.61
'0:02.504',0.54
'0:02.508',0.51
'0:02.512',0.37
'0:02.516',-0.02
'0:02.520',-0.26
'0:02.523',-0.11
'0:02.527',0.28
'0:02.531',0.17
'0:02.535',-0.35
'0:02.539',-0.49
'0:02.543',0.35
'0:02.547',0.91
'0:02.551',1.08
'0:02.555',1.08
'0:02.559',0.89
'0:02.563',0.9
'0:02.566',0.59
'0:02.570',0.31
'0:02.574',0.71
'0:02.578',1.22
'0:02.582',1.4
'0:02.586',1.51
'0:02.590',1.32
'0:02.594',0.71
'0:02.598',0.18
'0:02.602',-0.24
'0:02.605',-0.9
'0:02.609',-1.57
'0:02.613',-2.6
'0:02.617',-3.72
'0:02.621',-3.65
'0:02.625',-2.6
'0:02.629',-2.19
'0:02.633',-2.52
'0:02.637',-2.96
'0:02.641',-3.11
'0:02.645',-3.42
'0:02.648',-3.65
'0:02.652',-3.39
'0:02.656',-2.24
'0:02.660',-1.04
'0:02.664',0.57
'0:02.668',2.03
'0:02.672',1.85
'0:02.676',0.83
'0:02.680',-1.48
'0:02.684',-4.23
'0:02.688',-5.42
'0:02.691',-5.62
'0:02.695',-5.59
'0:02.699',-5.11
'0:02.703',-4.12
'0:02.707',-2.69
'0:02.711',-1.19
'0:02.715',-0.33
'0:02.719',-0.32
'0:02.723',-0.24
'0:02.727',-0.3
'0:02.730',-0.73
'0:02.734',-0.81
'0:02.738',-0.8
'0:02.742',-0.81
'0:02.746',-0.43
'0:02.750',0.04
'0:02.754',0.4
'0:02.758',0.4
'0:02.762',0.69
'0:02.766',0.72
'0:02.770',0.78
'0:02.773',1.4
'0:02.777',2.19
'0:02.781',3
'0:02.785',3.07
'0:02.789',3.32
'0:02.793',3.58
'0:02.797',3.52
'0:02.801',3.61
'0:02.805',3.59
'0:02.809',3.73
'0:02.813',3.88
'0:02.816',3.49
'0:02.820',3.18
'0:02.824',2.64
'0:02.828',2.6
'0:02.832',2.24
'0:02.836',1.97
'0:02.840',1.66
'0:02.844',1.08
'0:02.848',0.78
'0:02.852',0.82
'0:02.855',0.97
'0:02.859',1.18
'0:02.863',1.47
'0:02.867',1.71
'0:02.871',1.5
'0:02.875',1.5
'0:02.879',1.71
'0:02.883',1.87
'0:02.887',2.13
'0:02.891',2.72
'0:02.895',2.93
'0:02.898',2.94
'0:02.902',3.06
'0:02.906',2.78
'0:02.910',2.3
'0:02.914',1.68
'0:02.918',1.22
'0:02.922',0.6
'0:02.926',-0.09
'0:02.930',-0.5
'0:02.934',-0.73
'0:02.938',-1.23
'0:02.941',-1.62
'0:02.945',-2.17
'0:02.949',-2.26
'0:02.953',-2.19
'0:02.957',-2.08
'0:02.961',-1.94
'0:02.965',-1.95
'0:02.969',-2.06
'0:02.973',-2.23
'0:02.977',-2.44
'0:02.980',-2.56
'0:02.984',-1.93
'0:02.988',0.11
'0:02.992',3.17
'0:02.996',5.88
'0:03.000',7.3
'0:03.004',6.63
'0:03.008',3.7
'0:03.012',0.39
'0:03.016',-2.49
'0:03.020',-4.59
'0:03.023',-5.41
'0:03.027',-5.26
'0:03.031',-4.89
'0:03.035',-4.03
'0:03.039',-3.12
'0:03.043',-3.04
'0:03.047',-3.08
'0:03.051',-3.31
'0:03.055',-2.75
'0:03.059',-1.96
'0:03.063',-1.41
'0:03.066',-1.29
'0:03.070',-1.22
'0:03.074',-0.97
'0:03.078',-0.78
'0:03.082',-0.79
'0:03.086',-1.03
'0:03.090',-0.89
'0:03.094',-0.25
'0:03.098',0.52
'0:03.102',0.99
'0:03.105',1.05
'0:03.109',1.17
'0:03.113',1.47
'0:03.117',2.04
'0:03.121',2.25
'0:03.125',1.55
'0:03.129',1.47
'0:03.133',2.15
'0:03.137',2.62
'0:03.141',2.6
'0:03.145',2.07
'0:03.148',1.01
'0:03.152',0.19
'0:03.156',0.05
'0:03.160',0.06
'0:03.164',-0.22
'0:03.168',-0.8
'0:03.172',-0.81
'0:03.176',-0.39
'0:03.180',0.03
'0:03.184',0.27
'0:03.188',0.1
'0:03.191',-0.41
'0:03.195',-0.86
'0:03.199',-0.72
'0:03.203',-0.45
'0:03.207',-0.1
'0:03.211',0.67
'0:03.215',1.37
'0:03.219',1.65
'0:03.223',1.73
'0:03.227',1.78
'0:03.230',1.67
'0:03.234',1.65
'0:03.238',1.66
'0:03.242',1.66
'0:03.246',1.66
'0:03.250',1.66
'0:03.254',-1.4
'0:03.258',-2.15
'0:03.262',-3.53
'0:03.266',-4.55
'0:03.270',-4.75
'0:03.273',-4.12
'0:03.277',-3.02
'0:03.281',-2.35
'0:03.285',-2.18
'0:03.289',-2.23
'0:03.293',-2.54
'0:03.297',-2.51
'0:03.301',-2.04
'0:03.305',-0.91
'0:03.309',0.77
'0:03.313',3.27
'0:03.316',5.83
'0:03.320',6.83
'0:03.324',7.18
'0:03.328',5.35
'0:03.332',1.56
'0:03.336',-1.99
'0:03.340',-4.06
'0:03.344',-4.79
'0:03.348',-4.53
'0:03.352',-3.64
'0:03.355',-2.71
'0:03.359',-1.99
'0:03.363',-0.99
'0:03.367',-0.57
'0:03.371',-1.06
'0:03.375',-1.43
'0:03.379',-1.33
'0:03.383',-0.4
'0:03.387',0.34
'0:03.391',0.61
'0:03.395',0.99
'0:03.398',0.84
'0:03.402',0.86
'0:03.406',1.45
'0:03.410',2.3
'0:03.414',2.79
'0:03.418',2.7
'0:03.422',2.24
'0:03.426',1.83
'0:03.430',2.33
'0:03.434',2.89
'0:03.438',3.37
'0:03.441',4.26
'0:03.445',4.23
'0:03.449',3.18
'0:03.453',2.32
'0:03.457',2.8
'0:03.461',3.7
'0:03.465',3.7
'0:03.469',3.31
'0:03.473',3.03
'0:03.477',2.65
'0:03.480',1.73
'0:03.484',1.05
'0:03.488',0.39
'0:03.492',-0.54
'0:03.496',-1.03
'0:03.500',-0.91
'0:03.504',-0.95
'0:03.508',-1
'0:03.512',-0.02
'0:03.516',0.83
'0:03.520',0.54
'0:03.523',0.04
'0:03.527',-0.2
'0:03.531',-0.5
'0:03.535',-0.65
'0:03.539',-0.97
'0:03.543',-1.36
'0:03.547',-1.08
'0:03.551',0.13
'0:03.555',1.15
'0:03.559',1.29
'0:03.563',0.76
'0:03.566',0.14
'0:03.570',-0.6
'0:03.574',-1.03
'0:03.578',-1.29
'0:03.582',-1.77
'0:03.586',-2.32
'0:03.590',-3.34
'0:03.594',-4.44
'0:03.598',-4.9
'0:03.602',-4.24
'0:03.605',-3.33
'0:03.609',-2.76
'0:03.613',-2.68
'0:03.617',-2.86
'0:03.621',-3.14
'0:03.625',-3.34
'0:03.629',-3.31
'0:03.633',-3.22
'0:03.637',0.96
'0:03.641',2.28
'0:03.645',2.42
'0:03.648',1.24
'0:03.652',-1.71
'0:03.656',-4.38
'0:03.660',-6.07
'0:03.664',-6.68
'0:03.668',-6.51
'0:03.672',-5.84
'0:03.676',-4.99
'0:03.680',-4.39
'0:03.684',-3.88
'0:03.688',-3.75
'0:03.691',-3.73
'0:03.695',-3.04
'0:03.699',-2.04
'0:03.703',-1.59
'0:03.707',-1.54
'0:03.711',-1.33
'0:03.715',-0.96
'0:03.719',-0.54
'0:03.723',0.03
'0:03.727',0.05
'0:03.730',-0.07
'0:03.734',0.3
'0:03.738',0.71
'0:03.742',1.34
'0:03.746',1.98
'0:03.750',2.84
'0:03.754',3.75
'0:03.758',4.45
'0:03.762',5.13
'0:03.766',5.7
'0:03.770',6.04
'0:03.773',6.06
'0:03.777',5.63
'0:03.781',5.29
'0:03.785',4.9
'0:03.789',4.41
'0:03.793',3.34
'0:03.797',2.57
'0:03.801',1.81
'0:03.805',1.11
'0:03.809',0.24
'0:03.813',-0.37
'0:03.816',-0.47
'0:03.820',-0.6
'0:03.824',-0.66
'0:03.828',-0.64
'0:03.832',-0.63
'0:03.836',-0.34
'0:03.840',0.13
'0:03.844',0.49
'0:03.848',0.72
'0:03.852',1.07
'0:03.855',1.57
'0:03.859',1.94
'0:03.863',1.8
'0:03.867',1.4
'0:03.871',0.6
'0:03.875',0.23
'0:03.879',0.25
'0:03.883',0.45
'0:03.887',0.55
'0:03.891',0.61
'0:03.895',0.25
'0:03.898',-0.44
'0:03.902',-0.95
'0:03.906',-1.48
'0:03.910',-2.07
'0:03.914',-2.47
'0:03.918',-2.58
'0:03.922',-2.36
'0:03.926',-2.03
'0:03.930',-2.12
'0:03.934',-2.47
'0:03.938',-2.16
'0:03.941',-1.74
'0:03.945',-1.56
'0:03.949',-1.71
'0:03.953',-1.84
'0:03.957',-0.99
'0:03.961',1.5
'0:03.965',4.89
'0:03.969',7.53
'0:03.973',8.61
'0:03.977',7.46
'0:03.980',3.93
'0:03.984',0
'0:03.988',-2.93
'0:03.992',-4.69
'0:03.996',-5.96
'0:04.000',-6.61
'0:04.004',-6.41
'0:04.008',-5.44
'0:04.012',-4.61
'0:04.016',-4.14
'0:04.020',-3.36
'0:04.023',-2.48
'0:04.027',-1.69
'0:04.031',-1
'0:04.035',-0.73
'0:04.039',-1.01
'0:04.043',-1.66
'0:04.047',-1.98
'0:04.051',-1.47
'0:04.055',-0.38
'0:04.059',0.82
'0:04.063',0.94
'0:04.066',0.31
'0:04.070',-0.12
'0:04.074',0.33
'0:04.078',1.56
'0:04.082',2.77
'0:04.086',2.98
'0:04.090',2.89
'0:04.094',2.69
'0:04.098',2.51
'0:04.102',2.11
'0:04.105',2.27
'0:04.109',2.58
'0:04.113',2.41
'0:04.117',1.87
'0:04.121',0.88
'0:04.125',0.37
'0:04.129',0.5
'0:04.133',0.61
'0:04.137',0.41
'0:04.141',-0.18
'0:04.145',-0.56
'0:04.148',-0.16
'0:04.152',-0.1
'0:04.156',-0.77
'0:04.160',-1.67
'0:04.164',-2.97
'0:04.168',-3.22
'0:04.172',-1.93
'0:04.176',-0.28
'0:04.180',0.85
'0:04.184',1.15
'0:04.188',1.62
'0:04.191',2.21
'0:04.195',2.11
'0:04.199',1.46
'0:04.203',0.74
'0:04.207',0.6
'0:04.211',0.85
'0:04.215',0.96
'0:04.219',0.75
'0:04.223',-2.54
'0:04.227',-6.95
'0:04.230',-5.39
'0:04.234',-3.61
'0:04.238',-3.1
'0:04.242',-3.83
'0:04.246',-2.36
'0:04.250',-1.28
'0:04.254',-2.12
'0:04.258',-3.01
'0:04.262',-2.3
'0:04.266',-1.15
'0:04.270',-0.17
'0:04.273',0.15
'0:04.277',0.33
'0:04.281',1.18
'0:04.285',2.99
'0:04.289',5.1
'0:04.293',6.25
'0:04.297',6.6
'0:04.301',5.47
'0:04.305',2.32
'0:04.309',-0.33
'0:04.313',-2.13
'0:04.316',-3.11
'0:04.320',-3.16
'0:04.324',-3.42
'0:04.328',-3.2
'0:04.332',-2.02
'0:04.336',-0.79
'0:04.340',-0.51
'0:04.344',-0.72
'0:04.348',-0.51
'0:04.352',0.35
'0:04.355',2.02
'0:04.359',2.62
'0:04.363',2.31
'0:04.367',2.15
'0:04.371',1.65
'0:04.375',1.33
'0:04.379',2.34
'0:04.383',2.88
'0:04.387',2.94
'0:04.391',3.37
'0:04.395',3.28
'0:04.398',2.16
'0:04.402',1.47
'0:04.406',2.21
'0:04.410',3.94
'0:04.414',4.88
'0:04.418',5.16
'0:04.422',5.38
'0:04.426',5.58
'0:04.430',5.98
'0:04.434',6.02
'0:04.438',4.71
'0:04.441',3.27
'0:04.445',2.63
'0:04.449',2.38
'0:04.453',1.88
'0:04.457',1.14
'0:04.461',0.52
'0:04.465',0.11
'0:04.469',-0.59
'0:04.473',-1.37
'0:04.477',-1.77
'0:04.480',-1.63
'0:04.484',-1.45
'0:04.488',-1.03
'0:04.492',-0.52
'0:04.496',0.05
'0:04.500',0.27
'0:04.504',0.21
'0:04.508',0.11
'0:04.512',-0.22
'0:04.516',-0.46
'0:04.520',-0.59
'0:04.523',-0.84
'0:04.527',-1.02
'0:04.531',-1.34
'0:04.535',-1.66
'0:04.539',-2.07
'0:04.543',-2.51
'0:04.547',-2.96
'0:04.551',-3.16
'0:04.555',-3.29
'0:04.559',-3.45
'0:04.563',-3.85
'0:04.566',-3.82
'0:04.570',-3.4
'0:04.574',-3.45
'0:04.578',-3.89
'0:04.582',-4.13
'0:04.586',-4.27
'0:04.590',-5.09
'0:04.594',-5.81
'0:04.598',-5.93
'0:04.602',-5.29
'0:04.605',-3.89
'0:04.609',-2
'0:04.613',-0.13
'0:04.617',0.69
'0:04.621',0.57
'0:04.625',-0.94
'0:04.629',-3.31
'0:04.633',-4.74
'0:04.637',-5.37
'0:04.641',-5.46
'0:04.645',-5.35
'0:04.648',-4.71
'0:04.652',-3.95
'0:04.656',-3.25
'0:04.660',-2.7
'0:04.664',-2.24
'0:04.668',-1.79
'0:04.672',-1.71
'0:04.676',-1.61
'0:04.680',-1.46
'0:04.684',-1.11
'0:04.688',-0.93
'0:04.691',-0.54
'0:04.695',-0.05
'0:04.699',0.85
'0:04.703',1.48
'0:04.707',1.89
'0:04.711',2.89
'0:04.715',3.86
'0:04.719',4.49
'0:04.723',4.99
'0:04.727',5.89
'0:04.730',6.83
'0:04.734',7.64
'0:04.738',8.02
'0:04.742',7.82
'0:04.746',7.12
'0:04.750',6.12
'0:04.754',5.25
'0:04.758',4.61
'0:04.762',3.89
'0:04.766',3.34
'0:04.770',3.11
'0:04.773',2.78
'0:04.777',2.39
'0:04.781',1.77
'0:04.785',1.23
'0:04.789',1.18
'0:04.793',0.83
'0:04.797',0.5
'0:04.801',0.47
'0:04.805',0.37
'0:04.809',0.39
'0:04.813',0.6
'0:04.816',0.5
'0:04.820',0.37
'0:04.824',0.29
'0:04.828',0.52
'0:04.832',0.91
'0:04.836',1.3
'0:04.840',1.63
'0:04.844',1.64
'0:04.848',1.36
'0:04.852',1.06
'0:04.855',1.2
'0:04.859',1.45
'0:04.863',0.63
'0:04.867',0.07
'0:04.871',-0.59
'0:04.875',-1.39
'0:04.879',-2.22
'0:04.883',-3.01
'0:04.887',-3.38
'0:04.891',-3.84
'0:04.895',-4.21
'0:04.898',-3.74
'0:04.902',-3.27
'0:04.906',-3.68
'0:04.910',-3.91
'0:04.914',-4.45
'0:04.918',-4.77
'0:04.922',-4.48
'0:04.926',-3.96
'0:04.930',-2.67
'0:04.934',-0.56
'0:04.938',2.87
'0:04.941',6.81
'0:04.945',9.46
'0:04.949',9.48
'0:04.953',6
'0:04.957',1.71
'0:04.961',-1.8
'0:04.965',-4.35
'0:04.969',-6.15
'0:04.973',-7.2
'0:04.977',-7.3
'0:04.980',-6.87
'0:04.984',-6.31
'0:04.988',-5.46
'0:04.992',-4.52
'0:04.996',-3.95
'0:05.000',-3.8
'0:05.004',-3.77
'0:05.008',-3.67
'0:05.012',-3.42
'0:05.016',-3.01
'0:05.020',-2.32
'0:05.023',-1.75
'0:05.027',-1.41
'0:05.031',-1.26
'0:05.035',-1.21
'0:05.039',-0.68
'0:05.043',0.37
'0:05.047',1.05
'0:05.051',1.29
'0:05.055',1.3
'0:05.059',1.45
'0:05.063',1.93
'0:05.066',2.58
'0:05.070',3.04
'0:05.074',2.85
'0:05.078',2.43
'0:05.082',2.09
'0:05.086',1.89
'0:05.090',1.83
'0:05.094',1.57
'0:05.098',0.94
'0:05.102',0.76
'0:05.105',0.85
'0:05.109',0.99
'0:05.113',1.02
'0:05.117',0.78
'0:05.121',0.47
'0:05.125',0.53
'0:05.129',0.85
'0:05.133',0.81
'0:05.137',0.79
'0:05.141',0.47
'0:05.145',0.45
'0:05.148',0.82
'0:05.152',0.68
'0:05.156',0.47
'0:05.160',0.78
'0:05.164',1.47
'0:05.168',2.1
'0:05.172',2.08
'0:05.176',1.65
'0:05.180',1.3
'0:05.184',1.05
'0:05.188',1.06
'0:05.191',0.73
'0:05.195',0.47
'0:05.199',0.35
'0:05.203',0.08
'0:05.207',-0.91
'0:05.211',-1.95
'0:05.215',-2.5
'0:05.219',-7.92
'0:05.223',-9.52
'0:05.227',-6.4
'0:05.230',-3.83
'0:05.234',-2.21
'0:05.238',-3.27
'0:05.242',-3.18
'0:05.246',-2.52
'0:05.250',-1.97
'0:05.254',-0.06
'0:05.258',2.62
'0:05.262',-3.01
'0:05.266',-17.44
'0:05.270',-20.5
'0:05.273',-12.51
'0:05.277',-6.27
'0:05.281',-1.8
'0:05.285',1
'0:05.289',2.01
'0:05.293',2.04
'0:05.297',2.35
'0:05.301',2.78
'0:05.305',2.96
'0:05.309',2.85
'0:05.313',2.99
'0:05.316',3.13
'0:05.320',3.42
'0:05.324',3.76
'0:05.328',4.08
'0:05.332',4.19
'0:05.336',3.88
'0:05.340',3.5
'0:05.344',3.21
'0:05.348',3.58
'0:05.352',4.5
'0:05.355',4.53
'0:05.359',4.03
'0:05.363',4.43
'0:05.367',4.81
'0:05.371',4.71
'0:05.375',4.74
'0:05.379',4.91
'0:05.383',5.42
'0:05.387',6.38
'0:05.391',7.21
'0:05.395',7.5
'0:05.398',7.38
'0:05.402',6.8
'0:05.406',5.69
'0:05.410',4.55
'0:05.414',3.47
'0:05.418',2.62
'0:05.422',1.81
'0:05.426',1.13
'0:05.430',0.79
'0:05.434',0.6
'0:05.438',0.09
'0:05.441',-0.64
'0:05.445',-1.35
'0:05.449',-1.76
'0:05.453',-1.69
'0:05.457',-1.49
'0:05.461',-1.52
'0:05.465',-1.65
'0:05.469',-1.14
'0:05.473',-0.29
'0:05.477',0.16
'0:05.480',0.34
'0:05.484',0.18
'0:05.488',0.22
'0:05.492',0.4
'0:05.496',0.66
'0:05.500',0.4
'0:05.504',-0.3
'0:05.508',-0.98
'0:05.512',-1.25
'0:05.516',-1.74
'0:05.520',-2.29
'0:05.523',-2.66
'0:05.527',-3.16
'0:05.531',-3.75
'0:05.535',-4.09
'0:05.539',-3.87
'0:05.543',-3.5
'0:05.547',-2.97
'0:05.551',-2.47
'0:05.555',-2.52
'0:05.559',-2.9
'0:05.563',-3.27
'0:05.566',-3.33
'0:05.570',-3.26
'0:05.574',-3.11
'0:05.578',-2.33
'0:05.582',-0.67
'0:05.586',1.36
'0:05.590',2.65
'0:05.594',2.94
'0:05.598',2.42
'0:05.602',-0.05
'0:05.605',-2.34
'0:05.609',-3.75
'0:05.613',-4.41
'0:05.617',-4.55
'0:05.621',-4.22
'0:05.625',-3.79
'0:05.629',-3.7
'0:05.633',-3.5
'0:05.637',-3.07
'0:05.641',-2.23
'0:05.645',-1.56
'0:05.648',-0.96
'0:05.652',-0.09
'0:05.656',0.68
'0:05.660',1.16
'0:05.664',1.39
'0:05.668',1.33
'0:05.672',1.21
'0:05.676',1.49
'0:05.680',1.58
'0:05.684',1.9
'0:05.688',2.5
'0:05.691',2.97
'0:05.695',2.84
'0:05.699',2.46
'0:05.703',2.16
'0:05.707',2.56
'0:05.711',3.33
'0:05.715',3.77
'0:05.719',3.92
'0:05.723',4.01
'0:05.727',3.54
'0:05.730',3.41
'0:05.734',3.25
'0:05.738',2.37
'0:05.742',1.53
'0:05.746',0.9
'0:05.750',0.66
'0:05.754',0.21
'0:05.758',0.47
'0:05.762',0.57
'0:05.766',0.33
'0:05.770',-0.01
'0:05.773',-0.2
'0:05.777',-0.33
'0:05.781',-0.69
'0:05.785',-0.75
'0:05.789',-0.48
'0:05.793',-0.12
'0:05.797',0.18
'0:05.801',0.33
'0:05.805',0.18
'0:05.809',0.24
'0:05.813',0.18
'0:05.816',0.04
'0:05.820',0.26
'0:05.824',0.64
'0:05.828',0.81
'0:05.832',0.78
'0:05.836',0.52
'0:05.840',-0.2
'0:05.844',-0.94
'0:05.848',-1.63
'0:05.852',-2.02
'0:05.855',-2.56
'0:05.859',-3.02
'0:05.863',-3.46
'0:05.867',-3.65
'0:05.871',-3.85
'0:05.875',-3.91
'0:05.879',-3.59
'0:05.883',-3.67
'0:05.887',-4
'0:05.891',-4.27
'0:05.895',-4.55
'0:05.898',-3.8
'0:05.902',-2.23
'0:05.906',0.01
'0:05.910',3.26
'0:05.914',6.65
'0:05.918',9.04
'0:05.922',8.95
'0:05.926',5.55
'0:05.930',1.84
'0:05.934',-1.34
'0:05.938',-3.56
'0:05.941',-5.09
'0:05.945',-6.15
'0:05.949',-6.07
'0:05.953',-5
'0:05.957',-3.86
'0:05.961',-3.46
'0:05.965',-3.42
'0:05.969',-3.03
'0:05.973',-2.91
'0:05.977',-2.4
'0:05.980',-1.66
'0:05.984',-1.16
'0:05.988',-1.04
'0:05.992',-1.33
'0:05.996',-1.3
'0:06.000',-0.81
'0:06.004',0.08
'0:06.008',0.76
'0:06.012',0.83
'0:06.016',0.64
'0:06.020',1.01
'0:06.023',1.86
'0:06.027',2.58
'0:06.031',2.92
'0:06.035',2.45
'0:06.039',2.07
'0:06.043',2.85
'0:06.047',3.81
'0:06.051',4.39
'0:06.055',4.61
'0:06.059',4.27
'0:06.063',3.18
'0:06.066',1.52
'0:06.070',0.46
'0:06.074',0.35
'0:06.078',0.44
'0:06.082',0.57
'0:06.086',1.03
'0:06.090',1.12
'0:06.094',0.94
'0:06.098',0.44
'0:06.102',-0.26
'0:06.105',-0.63
'0:06.109',-0.73
'0:06.113',-1.08
'0:06.117',-0.3
'0:06.121',1.19
'0:06.125',1.28
'0:06.129',0.38
'0:06.133',0.31
'0:06.137',1.17
'0:06.141',2.18
'0:06.145',2.92
'0:06.148',3.14
'0:06.152',2.64
'0:06.156',1.68
'0:06.160',1.24
'0:06.164',1.32
'0:06.168',0.78
'0:06.172',-0.45
'0:06.176',-1.1
'0:06.180',-1.15
'0:06.184',-1.47
'0:06.188',-2.02
'0:06.191',-2.5
'0:06.195',-2.65
'0:06.199',-2.12
'0:06.203',-2
'0:06.207',-2.84
'0:06.211',-3.73
'0:06.215',-3.68
'0:06.219',-3.68
'0:06.223',-3.48
'0:06.227',-9.29
'0:06.230',-7.96
'0:06.234',-2.55
'0:06.238',-1.39
'0:06.242',-8.83
'0:06.246',-10.78
'0:06.250',-8.92
'0:06.254',-6.98
'0:06.258',-5.39
'0:06.262',-4.43
'0:06.266',-11.38
'0:06.270',-22.21
'0:06.273',-24.06
'0:06.277',-18.6
'0:06.281',-22.64
'0:06.285',-19.32
'0:06.289',-7.13
'0:06.293',2.69
'0:06.297',8.68
'0:06.301',10.61
'0:06.305',10.84
'0:06.309',10.7
'0:06.313',10.61
'0:06.316',10.3
'0:06.320',10.17
'0:06.324',10.16
'0:06.328',9.99
'0:06.332',9.37
'0:06.336',8.77
'0:06.340',8.53
'0:06.344',8.41
'0:06.348',8.45
'0:06.352',8.53
'0:06.355',8.49
'0:06.359',8.43
'0:06.363',8.46
'0:06.367',8.16
'0:06.371',7.74
'0:06.375',7.64
'0:06.379',7.18
'0:06.383',6.29
'0:06.387',5.43
'0:06.391',4.37
'0:06.395',3.09
'0:06.398',2.28
'0:06.402',2.13
'0:06.406',1.77
'0:06.410',1.7
'0:06.414',1.63
'0:06.418',1.08
'0:06.422',0.48
'0:06.426',0.41
'0:06.430',0.54
'0:06.434',0.7
'0:06.438',0.79
'0:06.441',0.56
'0:06.445',0.51
'0:06.449',0.59
'0:06.453',0.65
'0:06.457',0.85
'0:06.461',0.93
'0:06.465',0.79
'0:06.469',0.62
'0:06.473',0.71
'0:06.477',0.67
'0:06.480',0.38
'0:06.484',0.09
'0:06.488',-0.54
'0:06.492',-1.19
'0:06.496',-1.32
'0:06.500',-1.26
'0:06.504',-1.33
'0:06.508',-1.4
'0:06.512',-1.36
'0:06.516',-1.55
'0:06.520',-1.56
'0:06.523',-1.63
'0:06.527',-1.7
'0:06.531',-1.64
'0:06.535',-1.63
'0:06.539',-1.53
'0:06.543',-1.41
'0:06.547',-1.51
'0:06.551',-1.05
'0:06.555',0.47
'0:06.559',2.8
'0:06.563',4.99
'0:06.566',5.99
'0:06.570',5.32
'0:06.574',2.81
'0:06.578',-0.38
'0:06.582',-3.1
'0:06.586',-5.09
'0:06.590',-6.14
'0:06.594',-6.25
'0:06.598',-5.32
'0:06.602',-3.91
'0:06.605',-2.91
'0:06.609',-2.08
'0:06.613',-1.38
'0:06.617',-0.97
'0:06.621',-0.69
'0:06.625',-0.58
'0:06.629',-0.53
'0:06.633',-0.58
'0:06.637',-0.59
'0:06.641',-0.25
'0:06.645',0.01
'0:06.648',0.25
'0:06.652',0.32
'0:06.656',0.32
'0:06.660',0.55
'0:06.664',0.69
'0:06.668',1.13
'0:06.672',1.27
'0:06.676',1.42
'0:06.680',2.03
'0:06.684',2.15
'0:06.688',2.39
'0:06.691',3
'0:06.695',3.63
'0:06.699',3.5
'0:06.703',3.15
'0:06.707',2.89
'0:06.711',2.4
'0:06.715',1.78
'0:06.719',1.33
'0:06.723',1.12
'0:06.727',1.11
'0:06.730',0.75
'0:06.734',0.23
'0:06.738',-0.35
'0:06.742',-0.83
'0:06.746',-0.83
'0:06.750',-0.85
'0:06.754',-0.86
'0:06.758',-0.8
'0:06.762',-1.06
'0:06.766',-1.26
'0:06.770',-0.97
'0:06.773',-0.25
'0:06.777',0.23
'0:06.781',0.41
'0:06.785',0.53
'0:06.789',0.34
'0:06.793',0.09
'0:06.797',0.16
'0:06.801',0.27
'0:06.805',0.33
'0:06.809',-0.03
'0:06.813',-0.64
'0:06.816',-1.46
'0:06.820',-1.94
'0:06.824',-1.97
'0:06.828',-2.06
'0:06.832',-2.42
'0:06.836',-2.83
'0:06.840',-3.19
'0:06.844',-3.31
'0:06.848',-2.99
'0:06.852',-2.45
'0:06.855',-2.61
'0:06.859',-3.22
'0:06.863',-3.34
'0:06.867',-3.46
'0:06.871',-3.46
'0:06.875',-2.57
'0:06.879',-0.21
'0:06.883',2.53
'0:06.887',4.44
'0:06.891',5.22
'0:06.895',4.54
'0:06.898',1.82
'0:06.902',-1.53
'0:06.906',-3.98
'0:06.910',-4.55
'0:06.914',-4.41
'0:06.918',-3.85
'0:06.922',-3.3
'0:06.926',-3.12
'0:06.930',-3.37
'0:06.934',-3.47
'0:06.938',-3.22
'0:06.941',-2.64
'0:06.945',-1.44
'0:06.949',-0.38
'0:06.953',0.08
'0:06.957',-0.13
'0:06.961',-0.36
'0:06.965',-0.07
'0:06.969',0.22
'0:06.973',0.31
'0:06.977',0.86
'0:06.980',1.72
'0:06.984',2.19
'0:06.988',1.59
'0:06.992',0.53
'0:06.996',1.35
'0:07.000',3.26
'0:07.004',4.91
'0:07.008',5.54
'0:07.012',6
'0:07.016',6.04
'0:07.020',5.18
'0:07.023',4.39
'0:07.027',3.3
'0:07.031',2.02
'0:07.035',1.75
'0:07.039',1.78
'0:07.043',1.94
'0:07.047',2.32
'0:07.051',2.5
'0:07.055',2.52
'0:07.059',2.02
'0:07.063',1.14
'0:07.066',0.58
'0:07.070',0.51
'0:07.074',1.07
'0:07.078',1.13
'0:07.082',0.56
'0:07.086',0.45
'0:07.090',1.05
'0:07.094',1.4
'0:07.098',1.81
'0:07.102',2.53
'0:07.105',2.83
'0:07.109',2.37
'0:07.113',1.67
'0:07.117',1.04
'0:07.121',0.97
'0:07.125',1.41
'0:07.129',1.73
'0:07.133',1.31
'0:07.137',0.79
'0:07.141',-0.31
'0:07.145',-1.31
'0:07.148',-1.61
'0:07.152',-1.7
'0:07.156',-1.78
'0:07.160',-2.24
'0:07.164',-2.57
'0:07.168',-2.73
'0:07.172',-2.56
'0:07.176',-2.42
'0:07.180',-2.24
'0:07.184',-2.49
'0:07.188',-2.52
'0:07.191',-6.04
'0:07.195',-19.51
'0:07.199',-24.7
'0:07.203',-15.88
'0:07.207',-10.75
'0:07.211',-10.91
'0:07.215',-5.8
'0:07.219',-2.34
'0:07.223',-2.31
'0:07.227',-3.04
'0:07.230',-2.95
'0:07.234',-4.37
'0:07.238',-8.62
'0:07.242',-6.17
'0:07.246',-2.95
'0:07.250',-0.15
'0:07.254',1.74
'0:07.258',2.76
'0:07.262',3.59
'0:07.266',4.76
'0:07.270',5.07
'0:07.273',4.93
'0:07.277',4.76
'0:07.281',4.58
'0:07.285',4.47
'0:07.289',4.27
'0:07.293',4.19
'0:07.297',4.33
'0:07.301',4.35
'0:07.305',4.41
'0:07.309',4.35
'0:07.313',4.17
'0:07.316',3.91
'0:07.320',3.83
'0:07.324',4.05
'0:07.328',4.61
'0:07.332',4.87
'0:07.336',5.02
'0:07.340',5.52
'0:07.344',5.64
'0:07.348',5.22
'0:07.352',4.31
'0:07.355',3.93
'0:07.359',3.53
'0:07.363',2.98
'0:07.367',2.43
'0:07.371',2.1
'0:07.375',1.27
'0:07.379',0.28
'0:07.383',-0.32
'0:07.387',-0.61
'0:07.391',-1.01
'0:07.395',-1.04
'0:07.398',-0.81
'0:07.402',-0.75
'0:07.406',-1.01
'0:07.410',-0.86
'0:07.414',-0.26
'0:07.418',0.14
'0:07.422',0.2
'0:07.426',-0.01
'0:07.430',-0.18
'0:07.434',-0.27
'0:07.438',0.09
'0:07.441',0.3
'0:07.445',0.39
'0:07.449',0.51
'0:07.453',0.35
'0:07.457',0.02
'0:07.461',-0.19
'0:07.465',-0.53
'0:07.469',-0.95
'0:07.473',-1.29
'0:07.477',-1.87
'0:07.480',-2.58
'0:07.484',-3.2
'0:07.488',-3.47
'0:07.492',-3.72
'0:07.496',-3.77
'0:07.500',-3.56
'0:07.504',-3.18
'0:07.508',-2.95
'0:07.512',-2.71
'0:07.516',-2.34
'0:07.520',-2.25
'0:07.523',-1.6
'0:07.527',-0.13
'0:07.531',2.08
'0:07.535',4.83
'0:07.539',7.06
'0:07.543',7.39
'0:07.547',5.01
'0:07.551',1.37
'0:07.555',-2.2
'0:07.559',-4.66
'0:07.563',-5.85
'0:07.566',-6.26
'0:07.570',-6.05
'0:07.574',-5.78
'0:07.578',-5.14
'0:07.582',-4.46
'0:07.586',-3.63
'0:07.590',-3.02
'0:07.594',-2.41
'0:07.598',-1.77
'0:07.602',-1.46
'0:07.605',-1.5
'0:07.609',-1.18
'0:07.613',-0.69
'0:07.617',-0.12
'0:07.621',0.55
'0:07.625',0.5
'0:07.629',0.37
'0:07.633',0.4
'0:07.637',0.37
'0:07.641',0.48
'0:07.645',0.81
'0:07.648',1.1
'0:07.652',0.94
'0:07.656',0.92
'0:07.660',1.42
'0:07.664',1.8
'0:07.668',1.88
'0:07.672',1.8
'0:07.676',2.04
'0:07.680',1.93
'0:07.684',2.09
'0:07.688',2.24
'0:07.691',1.93
'0:07.695',1.58
'0:07.699',1.06
'0:07.703',0.74
'0:07.707',0.58
'0:07.711',0.61
'0:07.715',0.11
'0:07.719',-0.33
'0:07.723',-0.29
'0:07.727',-0.54
'0:07.730',-1.01
'0:07.734',-0.65
'0:07.738',0.15
'0:07.742',0.82
'0:07.746',1.19
'0:07.750',1.44
'0:07.754',1.35
'0:07.758',1.13
'0:07.762',0.79
'0:07.766',0.44
'0:07.770',0.25
'0:07.773',0.08
'0:07.777',0.1
'0:07.781',0.02
'0:07.785',-0.23
'0:07.789',-0.83
'0:07.793',-1.49
'0:07.797',-1.7
'0:07.801',-1.61
'0:07.805',-1.84
'0:07.809',-2.06
'0:07.813',-1.89
'0:07.816',-1.6
'0:07.820',-1.23
'0:07.824',-0.92
'0:07.828',-0.87
'0:07.832',-0.97
'0:07.836',-1.4
'0:07.840',-1.83
'0:07.844',-1.98
'0:07.848',-1.49
'0:07.852',0.15
'0:07.855',2.31
'0:07.859',4.34
'0:07.863',5.69
'0:07.867',5.42
'0:07.871',2.96
'0:07.875',0.15
'0:07.879',-2.32
'0:07.883',-4.22
'0:07.887',-4.86
'0:07.891',-4.43
'0:07.895',-3.28
'0:07.898',-2
'0:07.902',-1.51
'0:07.906',-0.92
'0:07.910',-0.21
'0:07.914',0.17
'0:07.918',0.16
'0:07.922',0.04
'0:07.926',-0.56
'0:07.930',-0.99
'0:07.934',-0.17
'0:07.938',1.14
'0:07.941',2.59
'0:07.945',3.74
'0:07.949',3.67
'0:07.953',3.13
'0:07.957',2.35
'0:07.961',1.6
'0:07.965',1.98
'0:07.969',2.7
'0:07.973',2.53
'0:07.977',2.64
'0:07.980',3.82
'0:07.984',4.08
'0:07.988',3.82
'0:07.992',4.39
'0:07.996',4.87
'0:08.000',4.24
'0:08.004',3.58
'0:08.008',3.42
'0:08.012',3.59
'0:08.016',3.34
'0:08.020',2.13
'0:08.023',1.02
'0:08.027',0.61
'0:08.031',0.8
'0:08.035',1.33
'0:08.039',1.02
'0:08.043',0.69
'0:08.047',0.73
'0:08.051',0.92
'0:08.055',1.02
'0:08.059',0.72
'0:08.063',0.33
'0:08.066',0.17
'0:08.070',0.25
'0:08.074',0.43
'0:08.078',0.5
'0:08.082',0.46
'0:08.086',0.78
'0:08.090',1.1
'0:08.094',0.89
'0:08.098',0.52
'0:08.102',0.46
'0:08.105',-5.52
'0:08.109',-20.95
'0:08.113',-28.36
'0:08.117',-19.47
'0:08.121',-11.24
'0:08.125',-14.74
'0:08.129',-11.77
'0:08.133',-6.79
'0:08.137',-3.02
'0:08.141',-1.22
'0:08.145',-9.93
'0:08.148',-18.05
'0:08.152',-11.94
'0:08.156',-4.38
'0:08.160',-2.02
'0:08.164',-1.98
'0:08.168',1
'0:08.172',3.74
'0:08.176',5.41
'0:08.180',6.59
'0:08.184',7.69
'0:08.188',7.72
'0:08.191',6.92
'0:08.195',4.43
'0:08.199',2.09
'0:08.203',0.58
'0:08.207',-0.09
'0:08.211',-0.17
'0:08.215',0.33
'0:08.219',0.87
'0:08.223',1.66
'0:08.227',2.33
'0:08.230',2.51
'0:08.234',2.53
'0:08.238',2.62
'0:08.242',2.58
'0:08.246',2.7
'0:08.250',2.84
'0:08.254',3
'0:08.258',3.15
'0:08.262',3.34
'0:08.266',3.51
'0:08.270',3.61
'0:08.273',3.63
'0:08.277',3.64
'0:08.281',3.8
'0:08.285',4.04
'0:08.289',4.16
'0:08.293',4.22
'0:08.297',4.15
'0:08.301',4.22
'0:08.305',4.5
'0:08.309',4.87
'0:08.313',5.12
'0:08.316',5.09
'0:08.320',4.9
'0:08.324',4.35
'0:08.328',3.79
'0:08.332',3.25
'0:08.336',3.09
'0:08.340',3.24
'0:08.344',2.7
'0:08.348',1.7
'0:08.352',0.68
'0:08.355',-0.04
'0:08.359',-0.26
'0:08.363',-0.39
'0:08.367',-0.25
'0:08.371',-0.04
'0:08.375',0.18
'0:08.379',0.05
'0:08.383',0.03
'0:08.387',0.09
'0:08.391',0.13
'0:08.395',0.07
'0:08.398',0.06
'0:08.402',0.34
'0:08.406',0.89
'0:08.410',1.31
'0:08.414',1.14
'0:08.418',1.07
'0:08.422',0.91
'0:08.426',0.83
'0:08.430',1.21
'0:08.434',1.39
'0:08.438',0.84
'0:08.441',0.04
'0:08.445',-0.67
'0:08.449',-2.03
'0:08.453',-3.22
'0:08.457',-3.88
'0:08.461',-4.37
'0:08.465',-4.34
'0:08.469',-4.02
'0:08.473',-3.58
'0:08.477',-3.58
'0:08.480',-4.15
'0:08.484',-4.21
'0:08.488',-3.83
'0:08.492',-3.65
'0:08.496',-3.01
'0:08.500',-1.25
'0:08.504',1.93
'0:08.508',5.59
'0:08.512',8.17
'0:08.516',8.45
'0:08.520',5.62
'0:08.523',1.54
'0:08.527',-2.35
'0:08.531',-4.93
'0:08.535',-6.17
'0:08.539',-6.71
'0:08.543',-6.4
'0:08.547',-5.09
'0:08.551',-3.94
'0:08.555',-3.54
'0:08.559',-3.36
'0:08.563',-3.24
'0:08.566',-3.29
'0:08.570',-3.16
'0:08.574',-2.76
'0:08.578',-2.42
'0:08.582',-2.07
'0:08.586',-1.85
'0:08.590',-1.59
'0:08.594',-1.08
'0:08.598',-0.52
'0:08.602',0.23
'0:08.605',1.22
'0:08.609',2.14
'0:08.613',3.06
'0:08.617',4.13
'0:08.621',5.01
'0:08.625',5.34
'0:08.629',4.72
'0:08.633',3.65
'0:08.637',2.7
'0:08.641',2.18
'0:08.645',1.9
'0:08.648',1.81
'0:08.652',1.68
'0:08.656',1.45
'0:08.660',1.37
'0:08.664',0.76
'0:08.668',-0.22
'0:08.672',-0.89
'0:08.676',-1.05
'0:08.680',-1.16
'0:08.684',-1.15
'0:08.688',-0.71
'0:08.691',-0.58
'0:08.695',-0.75
'0:08.699',-0.84
'0:08.703',-0.8
'0:08.707',-0.82
'0:08.711',-0.95
'0:08.715',-1.19
'0:08.719',-1.31
'0:08.723',-1.36
'0:08.727',-0.98
'0:08.730',-0.13
'0:08.734',1.07
'0:08.738',1.94
'0:08.742',1.69
'0:08.746',1.11
'0:08.750',0.64
'0:08.754',-0.03
'0:08.758',-0.88
'0:08.762',-0.95
'0:08.766',-0.16
'0:08.770',0.53
'0:08.773',0.47
'0:08.777',-0.2
'0:08.781',-0.77
'0:08.785',-1.07
'0:08.789',-1.48
'0:08.793',-1.66
'0:08.797',-1.75
'0:08.801',-1.75
'0:08.805',-1.65
'0:08.809',-1.72
'0:08.813',-1.83
'0:08.816',-1.39
'0:08.820',-0.47
'0:08.824',0.76
'0:08.828',2.16
'0:08.832',2.29
'0:08.836',1.36
'0:08.840',0.05
'0:08.844',-1.26
'0:08.848',-3.35
'0:08.852',-5.8
'0:08.855',-5.97
'0:08.859',-4.34
'0:08.863',-2.88
'0:08.867',-2.44
'0:08.871',-1.86
'0:08.875',-0.45
'0:08.879',0.55
'0:08.883',1.1
'0:08.887',1.49
'0:08.891',1.78
'0:08.895',1.66
'0:08.898',1.49
'0:08.902',1.65
'0:08.906',1.45
'0:08.910',0.79
'0:08.914',0.87
'0:08.918',1.65
'0:08.922',2.55
'0:08.926',2.97
'0:08.930',2.42
'0:08.934',1.39
'0:08.938',0.83
'0:08.941',1.67
'0:08.945',3.2
'0:08.949',4.07
'0:08.953',4.33
'0:08.957',4.26
'0:08.961',4.1
'0:08.965',4.31
'0:08.969',4.02
'0:08.973',-0.6
'0:08.977',-1.23
'0:08.980',0.52
'0:08.984',0.8
'0:08.988',-3.29
'0:08.992',-2.69
'0:08.996',-1.13
'0:09.000',-1.01
'0:09.004',-3.53
'0:09.008',-2.59
'0:09.012',-1.3
'0:09.016',-0.4
'0:09.020',-2.98
'0:09.023',-17.11
'0:09.027',-23.75
'0:09.031',-24.67
'0:09.035',-22.41
'0:09.039',-13.25
'0:09.043',-5.72
'0:09.047',-0.82
'0:09.051',2.24
'0:09.055',4.14
'0:09.059',5.18
'0:09.063',6.01
'0:09.066',6.99
'0:09.070',7.06
'0:09.074',6.75
'0:09.078',6.58
'0:09.082',6.03
'0:09.086',5.43
'0:09.090',4.39
'0:09.094',3.88
'0:09.098',3.27
'0:09.102',2.42
'0:09.105',1.57
'0:09.109',1.17
'0:09.113',1
'0:09.117',0.83
'0:09.121',0.43
'0:09.125',0.1
'0:09.129',-0.14
'0:09.133',-0.29
'0:09.137',-0.39
'0:09.141',-0.71
'0:09.145',-0.65
'0:09.148',0.39
'0:09.152',2.1
'0:09.156',2.8
'0:09.160',2.64
'0:09.164',1.48
'0:09.168',-0.81
'0:09.172',-2.71
'0:09.176',-4.23
'0:09.180',-4.87
'0:09.184',-4.8
'0:09.188',-4.3
'0:09.191',-3.13
'0:09.195',-2.34
'0:09.199',-1.88
'0:09.203',-1.17
'0:09.207',-0.24
'0:09.211',0.4
'0:09.215',0.63
'0:09.219',0.69
'0:09.223',0.92
'0:09.227',1.24
'0:09.230',1.53
'0:09.234',1.59
'0:09.238',1.85
'0:09.242',2.14
'0:09.246',2.55
'0:09.250',2.72
'0:09.254',2.69
'0:09.258',2.82
'0:09.262',2.94
'0:09.266',3.29
'0:09.270',3.72
'0:09.273',4.12
'0:09.277',4.36
'0:09.281',4.36
'0:09.285',4.1
'0:09.289',3.97
'0:09.293',3.9
'0:09.297',4.02
'0:09.301',3.86
'0:09.305',3.27
'0:09.309',2.27
'0:09.313',1.4
'0:09.316',0.65
'0:09.320',-0.17
'0:09.324',-0.68
'0:09.328',-1.12
'0:09.332',-1.34
'0:09.336',-1.34
'0:09.340',-1.39
'0:09.344',-1.46
'0:09.348',-1.29
'0:09.352',-1.14
'0:09.355',-1.14
'0:09.359',-1.14
'0:09.363',-1.04
'0:09.367',-0.9
'0:09.371',-0.37
'0:09.375',-0.08
'0:09.379',-0.07
'0:09.383',0.17
'0:09.387',0.35
'0:09.391',0.4
'0:09.395',0.41
'0:09.398',0.15
'0:09.402',-0.34
'0:09.406',-0.94
'0:09.410',-1.16
'0:09.414',-1.36
'0:09.418',-1.67
'0:09.422',-2.19
'0:09.426',-2.68
'0:09.430',-2.97
'0:09.434',-2.9
'0:09.438',-2.59
'0:09.441',-2.67
'0:09.445',-2.99
'0:09.449',-3.55
'0:09.453',-4.25
'0:09.457',-4.5
'0:09.461',-4.28
'0:09.465',-3.22
'0:09.469',-1.25
'0:09.473',1.56
'0:09.477',4.85
'0:09.480',7.32
'0:09.484',8.83
'0:09.488',8.09
'0:09.492',5.07
'0:09.496',1.56
'0:09.500',-1.44
'0:09.504',-3.28
'0:09.508',-4.45
'0:09.512',-4.96
'0:09.516',-5.23
'0:09.520',-4.98
'0:09.523',-3.93
'0:09.527',-3.09
'0:09.531',-2.49
'0:09.535',-2.04
'0:09.539',-1.75
'0:09.543',-1.53
'0:09.547',-1.27
'0:09.551',-0.99
'0:09.555',-0.55
'0:09.559',-0.15
'0:09.563',0.08
'0:09.566',0.05
'0:09.570',-0.19
'0:09.574',0
'0:09.578',0.87
'0:09.582',1.73
'0:09.586',2.36
'0:09.590',2.75
'0:09.594',2.93
'0:09.598',3.19
'0:09.602',3.63
'0:09.605',3.85
'0:09.609',4.14
'0:09.613',4.29
'0:09.617',3.96
'0:09.621',3.68
'0:09.625',3.46
'0:09.629',3.27
'0:09.633',2.61
'0:09.637',1.47
'0:09.641',0.62
'0:09.645',0.34
'0:09.648',0.04
'0:09.652',0.22
'0:09.656',0.49
'0:09.660',0.65
'0:09.664',0.27
'0:09.668',-0.26
'0:09.672',-1.04
'0:09.676',-1.34
'0:09.680',-0.03
'0:09.684',1.58
'0:09.688',2.1
'0:09.691',2.15
'0:09.695',2.09
'0:09.699',2.12
'0:09.703',2.38
'0:09.707',2.57
'0:09.711',2.51
'0:09.715',2.2
'0:09.719',1.57
'0:09.723',1.05
'0:09.727',0.54
'0:09.730',-0.33
'0:09.734',-0.89
'0:09.738',-1.04
'0:09.742',-1.16
'0:09.746',-1.72
'0:09.750',-2.82
'0:09.754',-3.65
'0:09.758',-3.65
'0:09.762',-3.7
'0:09.766',-3.92
'0:09.770',-4.34
'0:09.773',-5.11
'0:09.777',-5.47
'0:09.781',-4.87
'0:09.785',-3.65
'0:09.789',-1.95
'0:09.793',-0.44
'0:09.797',0.58
'0:09.801',0.64
'0:09.805',0.63
'0:09.809',-0.31
'0:09.813',-2.58
'0:09.816',-4.86
'0:09.820',-6.25
'0:09.824',-6.67
'0:09.828',-6.59
'0:09.832',-6.02
'0:09.836',-5.14
'0:09.840',-4.11
'0:09.844',-2.97
'0:09.848',-1.95
'0:09.852',-1.17
'0:09.855',-0.49
'0:09.859',-0.05
'0:09.863',0.4
'0:09.867',0.66
'0:09.871',0.45
'0:09.875',0.43
'0:09.879',0.49
'0:09.883',0.38
'0:09.887',0.16
'0:09.891',0.01
'0:09.895',-0.07
'0:09.898',0.04
'0:09.902',0.3
'0:09.906',1.12
'0:09.910',1.97
'0:09.914',2.62
'0:09.918',2.78
'0:09.922',3.59
'0:09.926',3.8
'0:09.930',3.66
'0:09.934',3.3
'0:09.938',2.87
'0:09.941',2.27
'0:09.945',1.88
'0:09.949',1.52
'0:09.953',1.05
'0:09.957',0.73
'0:09.961',0.27
'0:09.965',-0.4
'0:09.969',-1.02
'0:09.973',-1.46
'0:09.977',-1.75
'0:09.980',-1.73
'0:09.984',-1.34
'0:09.988',-1.05
'0:09.992',-0.73
'0:09.996',-0.34
'0:10.000',0.08
'0:10.004',0.3
'0:10.008',0.51
'0:10.012',0.42
'0:10.016',0.4
'0:10.020',-0.07
'0:10.023',-0.34
'0:10.027',-0.31
'0:10.031',-0.12
'0:10.035',-0.21
'0:10.039',-0.19
'0:10.043',0.14
'0:10.047',0.23
'0:10.051',0.19
'0:10.055',-0.38
'0:10.059',-0.75
'0:10.063',-0.81
'0:10.066',-0.81
'0:10.070',-1.21
'0:10.074',-1.41
'0:10.078',-1.37
'0:10.082',-1.12
'0:10.086',-1.21
'0:10.090',-1.34
'0:10.094',-1.65
'0:10.098',-2.35
'0:10.102',-2.72
'0:10.105',-2.78
'0:10.109',-2.46
'0:10.113',-1.5
'0:10.117',0.61
'0:10.121',2.45
'0:10.125',3.61
'0:10.129',4.3
'0:10.133',2.85
'0:10.137',0.2
'0:10.141',-2.23
'0:10.145',-4.03
'0:10.148',-4.84
'0:10.152',-4.73
'0:10.156',-4.48
'0:10.160',-4.48
'0:10.164',-2.94
'0:10.168',-1.98
'0:10.172',-1.46
'0:10.176',-1.07
'0:10.180',-0.49
'0:10.184',0.17
'0:10.188',0.3
'0:10.191',-0.19
'0:10.195',-0.07
'0:10.199',0.09
'0:10.203',-0.02
'0:10.207',-0.06
'0:10.211',0.37
'0:10.215',0.93
'0:10.219',1.17
'0:10.223',1.32
'0:10.227',1.73
'0:10.230',2.09
'0:10.234',2.3
'0:10.238',2.44
'0:10.242',2.63
'0:10.246',2.93
'0:10.250',3.39
'0:10.254',4.09
'0:10.258',4.29
'0:10.262',3.91
'0:10.266',3.37
'0:10.270',2.61
'0:10.273',1.93
'0:10.277',1.47
'0:10.281',1.1
'0:10.285',0.3
'0:10.289',-0.47
'0:10.293',-0.95
'0:10.297',-1.04
'0:10.301',-0.87
'0:10.305',-0.41
'0:10.309',-0.12
'0:10.313',-0.28
'0:10.316',-0.51
'0:10.320',-0.65
'0:10.324',-0.49
'0:10.328',0.13
'0:10.332',0.68
'0:10.336',0.64
'0:10.340',0.62
'0:10.344',0.96
'0:10.348',1.41
'0:10.352',1.92
'0:10.355',2.43
'0:10.359',2.66
'0:10.363',2.41
'0:10.367',1.86
'0:10.371',1.07
'0:10.375',0.01
'0:10.379',-0.99
'0:10.383',-2.02
'0:10.387',-2.8
'0:10.391',-3.04
'0:10.395',-2.78
'0:10.398',-2.27
'0:10.402',-2.17
'0:10.406',-2.33
'0:10.410',-2.41
'0:10.414',-2.53
'0:10.418',-2.7
'0:10.422',-2.83
'0:10.426',-2.82
'0:10.430',-2.63
'0:10.434',-1.63
'0:10.438',-0.04
'0:10.441',2.17
'0:10.445',4.86
'0:10.449',6.97
'0:10.453',7.96
'0:10.457',6.91
'0:10.461',3.77
'0:10.465',0.35
'0:10.469',-2.62
'0:10.473',-4.08
'0:10.477',-4.48
'0:10.480',-4.4
'0:10.484',-3.94
'0:10.488',-3.73
'0:10.492',-3.68
'0:10.496',-3.45
'0:10.500',-2.75
'0:10.504',-2.25
'0:10.508',-1.9
'0:10.512',-1.43
'0:10.516',-1.29
'0:10.520',-1.32
'0:10.523',-0.93
'0:10.527',-0.64
'0:10.531',-0.68
'0:10.535',0
'0:10.539',1.17
'0:10.543',2.05
'0:10.547',2.39
'0:10.551',2.2
'0:10.555',2.27
'0:10.559',2.48
'0:10.563',2.39
'0:10.566',2
'0:10.570',1.76
'0:10.574',2.33
'0:10.578',3.23
'0:10.582',3.39
'0:10.586',3.34
'0:10.590',3.53
'0:10.594',3.56
'0:10.598',3.12
'0:10.602',2.83
'0:10.605',2.63
'0:10.609',2.02
'0:10.613',1.17
'0:10.617',0.74
'0:10.621',0.76
'0:10.625',0.66
'0:10.629',0.51
'0:10.633',0.08
'0:10.637',0
'0:10.641',0.39
'0:10.645',0.83
'0:10.648',1.15
'0:10.652',1.15
'0:10.656',0.78
'0:10.660',0.49
'0:10.664',0.63
'0:10.668',0.88
'0:10.672',1.05
'0:10.676',1.24
'0:10.680',1.42
'0:10.684',1.24
'0:10.688',0.73
'0:10.691',0.3
'0:10.695',-0.51
'0:10.699',-1.72
'0:10.703',-2.56
'0:10.707',-2.94
'0:10.711',-2.82
'0:10.715',-2.85
'0:10.719',-3.11
'0:10.723',-3.31
'0:10.727',-3.52
'0:10.730',-3.63
'0:10.734',-3.68
'0:10.738',-3.97
'0:10.742',-4.48
'0:10.746',-4.92
'0:10.750',-4.87
'0:10.754',-4.51
'0:10.758',-3.63
'0:10.762',-2.19
'0:10.766',-0.38
'0:10.770',0.87
'0:10.773',1.36
'0:10.777',0.53
'0:10.781',-1.87
'0:10.785',-4.01
'0:10.789',-5.3
'0:10.793',-5.89
'0:10.797',-5.96
'0:10.801',-5.67
'0:10.805',-4.97
'0:10.809',-3.94
'0:10.813',-2.94
'0:10.816',-1.97
'0:10.820',-1.2
'0:10.824',-0.94
'0:10.828',-1.06
'0:10.832',-1.31
'0:10.836',-1.24
'0:10.840',-0.93
'0:10.844',-0.58
'0:10.848',-0.12
'0:10.852',0.43
'0:10.855',0.76
'0:10.859',0.86
'0:10.863',1.07
'0:10.867',1.32
'0:10.871',1.44
'0:10.875',1.54
'0:10.879',1.65
'0:10.883',1.93
'0:10.887',2.31
'0:10.891',2.76
'0:10.895',3.12
'0:10.898',3.3
'0:10.902',3.32
'0:10.906',3.25
'0:10.910',3.02
'0:10.914',2.78
'0:10.918',2.78
'0:10.922',1.73
'0:10.926',1.1
'0:10.930',0.49
'0:10.934',0.13
'0:10.938',-0.33
'0:10.941',-0.57
'0:10.945',-0.34
'0:10.949',-0.22
'0:10.953',-0.27
'0:10.957',-0.32
'0:10.961',-0.46
'0:10.965',-0.44
'0:10.969',-0.29
'0:10.973',-0.19
'0:10.977',0.08
'0:10.980',0.49
'0:10.984',0.65
'0:10.988',0.49
'0:10.992',0.36
'0:10.996',0.25
'0:11.000',0.42
'0:11.004',0.51
'0:11.008',0.41
'0:11.012',0.49
'0:11.016',0.49
'0:11.020',0
'0:11.023',-0.48
'0:11.027',-0.68
'0:11.031',-1.12
'0:11.035',-1.63
'0:11.039',-1.99
'0:11.043',-2.02
'0:11.047',-1.75
'0:11.051',-1.76
'0:11.055',-1.8
'0:11.059',-1.92
'0:11.063',-2.24
'0:11.066',-2.72
'0:11.070',-2.87
'0:11.074',-2.68
'0:11.078',-2.09
'0:11.082',-0.65
'0:11.086',1.65
'0:11.090',3.75
'0:11.094',4.34
'0:11.098',4.05
'0:11.102',1.81
'0:11.105',-1.06
'0:11.109',-3.18
'0:11.113',-4.16
'0:11.117',-4.28
'0:11.121',-3.85
'0:11.125',-3.17
'0:11.129',-2.27
'0:11.133',-1.53
'0:11.137',-0.92
'0:11.141',-0.4
'0:11.145',0.03
'0:11.148',0.49
'0:11.152',1.02
'0:11.156',1.26
'0:11.160',1.07
'0:11.164',1.19
'0:11.168',1.27
'0:11.172',1.1
'0:11.176',1.23
'0:11.180',1.7
'0:11.184',2.06
'0:11.188',2.34
'0:11.191',2.74
'0:11.195',3.02
'0:11.199',3.27
'0:11.203',3.52
'0:11.207',3.97
'0:11.211',4.17
'0:11.215',3.97
'0:11.219',3.9
'0:11.223',4.3
'0:11.227',4.8
'0:11.230',4.72
'0:11.234',4.19
'0:11.238',3.59
'0:11.242',2.89
'0:11.246',2.51
'0:11.250',2.49
'0:11.254',2.19
'0:11.258',1.71
'0:11.262',1.45
'0:11.266',1.35
'0:11.270',1.07
'0:11.273',1.02
'0:11.277',1.38
'0:11.281',1.44
'0:11.285',1.41
'0:11.289',1.55
'0:11.293',1.61
'0:11.297',1.61
'0:11.301',1.61
'0:11.305',1.42
'0:11.309',1.05
'0:11.313',1.09
'0:11.316',1.24
'0:11.320',1.23
'0:11.324',1.15
'0:11.328',1.22
'0:11.332',1.07
'0:11.336',0.56
'0:11.340',-0.5
'0:11.344',-1.26
'0:11.348',-1.55
'0:11.352',-1.89
'0:11.355',-2.38
'0:11.359',-2.89
'0:11.363',-3.52
'0:11.367',-3.75
'0:11.371',-3.84
'0:11.375',-2.98
'0:11.379',-2.82
'0:11.383',-3.45
'0:11.387',-3.56
'0:11.391',-3.81
'0:11.395',-3.99
'0:11.398',-3.63
'0:11.402',-2.87
'0:11.406',-0.59
'0:11.410',2.26
'0:11.414',4.56
'0:11.418',5.7
'0:11.422',4.84
'0:11.426',2.54
'0:11.430',-0.14
'0:11.434',-3.25
'0:11.438',-5.68
'0:11.441',-6.5
'0:11.445',-6.07
'0:11.449',-5.17
'0:11.453',-4.59
'0:11.457',-4.4
'0:11.461',-3.99
'0:11.465',-3.35
'0:11.469',-2.02
'0:11.473',-0.95
'0:11.477',-0.71
'0:11.480',-1.05
'0:11.484',-1.04
'0:11.488',-0.68
'0:11.492',-0.17
'0:11.496',0.15
'0:11.500',-0.02
'0:11.504',-0.19
'0:11.508',-0.22
'0:11.512',0.61
'0:11.516',1.15
'0:11.520',1.58
'0:11.523',1.63
'0:11.527',1.71
'0:11.531',1.9
'0:11.535',2.39
'0:11.539',2.62
'0:11.543',2.47
'0:11.547',2.53
'0:11.551',2.1
'0:11.555',1.93
'0:11.559',2.01
'0:11.563',1.7
'0:11.566',1.02
'0:11.570',0.68
'0:11.574',-0.03
'0:11.578',-0.92
'0:11.582',-1.2
'0:11.586',-0.82
'0:11.590',-0.34
'0:11.594',-0.07
'0:11.598',-0.04
'0:11.602',-0.21
'0:11.605',-0.35
'0:11.609',-0.44
'0:11.613',-0.48
'0:11.617',-0.38
'0:11.621',0.17
'0:11.625',0.63
'0:11.629',0.65
'0:11.633',0.9
'0:11.637',1.85
'0:11.641',2.4
'0:11.645',2.14
'0:11.648',1.86
'0:11.652',1.63
'0:11.656',1.32
'0:11.660',0.61
'0:11.664',-0.36
'0:11.668',-1.31
'0:11.672',-2.02
'0:11.676',-2.4
'0:11.680',-2.76
'0:11.684',-3.33
'0:11.688',-3.48
'0:11.691',-3.19
'0:11.695',-2.94
'0:11.699',-2.82
'0:11.703',-3.27
'0:11.707',-4
'0:11.711',-4.5
'0:11.715',-4.65
'0:11.719',-4.22
'0:11.723',-2.99
'0:11.727',-0.58
'0:11.730',2.75
'0:11.734',5.4
'0:11.738',6.89
'0:11.742',7.1
'0:11.746',4.84
'0:11.750',1.34
'0:11.754',-2.01
'0:11.758',-4.31
'0:11.762',-5.62
'0:11.766',-6.02
'0:11.770',-5.6
'0:11.773',-4.92
'0:11.777',-3.95
'0:11.781',-2.89
'0:11.785',-2.24
'0:11.789',-1.97
'0:11.793',-1.94
'0:11.797',-1.82
'0:11.801',-1.6
'0:11.805',-1.02
'0:11.809',-0.49
'0:11.813',-0.36
'0:11.816',-0.45
'0:11.820',-0.38
'0:11.824',0.15
'0:11.828',0.81
'0:11.832',1.21
'0:11.836',1.24
'0:11.840',1.05
'0:11.844',1.1
'0:11.848',1.58
'0:11.852',2.12
'0:11.855',2.47
'0:11.859',2.75
'0:11.863',3.03
'0:11.867',3.14
'0:11.871',3.14
'0:11.875',3
'0:11.879',2.71
'0:11.883',2.44
'0:11.887',2.49
'0:11.891',2.61
'0:11.895',2.46
'0:11.898',2.04
'0:11.902',1.63
'0:11.906',1.25
'0:11.910',0.87
'0:11.914',0.73
'0:11.918',0.84
'0:11.922',1.12
'0:11.926',1.44
'0:11.930',1.63
'0:11.934',1.68
'0:11.938',1.87
'0:11.941',2.29
'0:11.945',2.39
'0:11.949',2.34
'0:11.953',2.32
'0:11.957',2.44
'0:11.961',2.71
'0:11.965',2.78
'0:11.969',2.44
'0:11.973',2.15
'0:11.977',2.04
'0:11.980',1.77
'0:11.984',1.18
'0:11.988',0.43
'0:11.992',-0.21
'0:11.996',-0.76
'0:12.000',-1.27
'0:12.004',-1.69
'0:12.008',-1.83
'0:12.012',-1.88
'0:12.016',-1.97
'0:12.020',-2
'0:12.023',-2.02
'0:12.027',-2.31
'0:12.031',-2.74
'0:12.035',-2.75
'0:12.039',-2.19
'0:12.043',-1.44
'0:12.047',-0.21
'0:12.051',1.82
'0:12.055',3.7
'0:12.059',4.41
'0:12.063',4.31
'0:12.066',2.31
'0:12.070',-0.41
'0:12.074',-2.72
'0:12.078',-4.06
'0:12.082',-4.6
'0:12.086',-4.7
'0:12.090',-4.36
'0:12.094',-3.72
'0:12.098',-3.02
'0:12.102',-2.58
'0:12.105',-2.17
'0:12.109',-1.65
'0:12.113',-1.09
'0:12.117',-0.61
'0:12.121',-0.61
'0:12.125',-0.71
'0:12.129',-0.73
'0:12.133',-0.68
'0:12.137',-0.43
'0:12.141',-0.07
'0:12.145',0.1
'0:12.148',0.33
'0:12.152',0.66
'0:12.156',0.89
'0:12.160',1.21
'0:12.164',1.52
'0:12.168',1.92
'0:12.172',2.32
'0:12.176',2.49
'0:12.180',2.55
'0:12.184',2.74
'0:12.188',3.08
'0:12.191',3.34
'0:12.195',3.49
'0:12.199',3.58
'0:12.203',3.32
'0:12.207',2.78
'0:12.211',2.21
'0:12.215',1.78
'0:12.219',1.54
'0:12.223',1.39
'0:12.227',1.22
'0:12.230',1.12
'0:12.234',1.1
'0:12.238',0.91
'0:12.242',0.6
'0:12.246',0.58
'0:12.250',0.56
'0:12.254',0.59
'0:12.258',0.48
'0:12.262',0.12
'0:12.266',-0.11
'0:12.270',0.17
'0:12.273',0.27
'0:12.277',0.34
'0:12.281',0.42
'0:12.285',0.35
'0:12.289',0.18
'0:12.293',0.1
'0:12.297',0.1
'0:12.301',0.01
'0:12.305',-0.24
'0:12.309',-0.75
'0:12.313',-1.27
'0:12.316',-1.66
'0:12.320',-2.01
'0:12.324',-2.69
'0:12.328',-3.24
'0:12.332',-3.35
'0:12.336',-3.1
'0:12.340',-2.92
'0:12.344',-2.93
'0:12.348',-2.92
'0:12.352',-3.04
'0:12.355',-3.12
'0:12.359',-3.24
'0:12.363',-2.96
'0:12.367',-1.87
'0:12.371',0.17
'0:12.375',2.37
'0:12.379',3.12
'0:12.383',2.84
'0:12.387',1.03
'0:12.391',-2.01
'0:12.395',-4.23
'0:12.398',-5.21
'0:12.402',-5.55
'0:12.406',-5.11
'0:12.410',-3.99
'0:12.414',-2.89
'0:12.418',-1.88
'0:12.422',-1.06
'0:12.426',-0.58
'0:12.430',-0.41
'0:12.434',-0.24
'0:12.438',-0.17
'0:12.441',-0.05
'0:12.445',0.03
'0:12.449',0.11
'0:12.453',0.18
'0:12.457',0.11
'0:12.461',0.03
'0:12.465',0.07
'0:12.469',0.2
'0:12.473',0.47
'0:12.477',0.54
'0:12.480',0.78
'0:12.484',1.24
'0:12.488',1.81
'0:12.492',2.39
'0:12.496',2.87
'0:12.500',3.34
'0:12.504',3.65
'0:12.508',3.73
'0:12.512',3.66
'0:12.516',3.48
'0:12.520',3.36
'0:12.523',3.08
'0:12.527',2.96
'0:12.531',2.8
'0:12.535',2.46
'0:12.539',2.02
'0:12.543',1.48
'0:12.547',0.71
'0:12.551',0.33
'0:12.555',0.3
'0:12.559',0.15
'0:12.563',-0.12
'0:12.566',-0.25
'0:12.570',-0.38
'0:12.574',-0.38
'0:12.578',-0.34
'0:12.582',-0.37
'0:12.586',-0.46
'0:12.590',-0.38
'0:12.594',-0.31
'0:12.598',-0.29
'0:12.602',-0.09
'0:12.605',0.22
'0:12.609',0.41
'0:12.613',0.42
'0:12.617',0.34
'0:12.621',0.1
'0:12.625',-0.41
'0:12.629',-0.75
'0:12.633',-1.22
'0:12.637',-1.65
'0:12.641',-1.79
'0:12.645',-1.73
'0:12.648',-1.61
'0:12.652',-1.95
'0:12.656',-2.34
'0:12.660',-2.55
'0:12.664',-2.49
'0:12.668',-2.38
'0:12.672',-2.42
'0:12.676',-2.82
'0:12.680',-3.28
'0:12.684',-3.16
'0:12.688',-2.38
'0:12.691',-1.13
'0:12.695',0.59
'0:12.699',2.78
'0:12.703',4.19
'0:12.707',4.66
'0:12.711',3.26
'0:12.715',0.3
'0:12.719',-1.96
'0:12.723',-3.28
'0:12.727',-3.75
'0:12.730',-3.84
'0:12.734',-3.46
'0:12.738',-2.78
'0:12.742',-2.09
'0:12.746',-1.65
'0:12.750',-1.43
'0:12.754',-1.04
'0:12.758',-0.61
'0:12.762',-0.17
'0:12.766',0.05
'0:12.770',0.28
'0:12.773',0.62
'0:12.777',1
'0:12.781',1.48
'0:12.785',1.3
'0:12.789',1.05
'0:12.793',1
'0:12.797',1.06
'0:12.801',1.29
'0:12.805',1.75
'0:12.809',1.98
'0:12.813',2.03
'0:12.816',2.12
'0:12.820',2.56
'0:12.824',3.09
'0:12.828',3.37
'0:12.832',3.41
'0:12.836',3.65
'0:12.840',3.91
'0:12.844',3.75
'0:12.848',3.2
'0:12.852',2.49
'0:12.855',1.98
'0:12.859',1.68
'0:12.863',1.37
'0:12.867',0.98
'0:12.871',0.66
'0:12.875',0.47
'0:12.879',0.08
'0:12.883',-0.34
'0:12.887',-0.34
'0:12.891',-0.26
'0:12.895',-0.24
'0:12.898',-0.11
'0:12.902',-0.02
'0:12.906',-0.06
'0:12.910',-0.19
'0:12.914',-0.34
'0:12.918',-0.32
'0:12.922',-0.26
'0:12.926',-0.28
'0:12.930',-0.24
'0:12.934',-0.09
'0:12.938',0.16
'0:12.941',0.09
'0:12.945',-0.26
'0:12.949',-0.7
'0:12.953',-1.25
'0:12.957',-1.92
'0:12.961',-2.28
'0:12.965',-2.27
'0:12.969',-2.38
'0:12.973',-2.73
'0:12.977',-2.92
'0:12.980',-2.95
'0:12.984',-3.02
'0:12.988',-3.23
'0:12.992',-3.33
'0:12.996',-3.23
'0:13.000',-3.23
'0:13.004',-3.43
'0:13.008',-3.55
'0:13.012',-3.21
'0:13.016',-2.45
'0:13.020',-0.81
'0:13.023',1.97
'0:13.027',4.68
'0:13.031',6.36
'0:13.035',6.29
'0:13.039',3.5
'0:13.043',-0.27
'0:13.047',-3.31
'0:13.051',-5.11
'0:13.055',-5.35
'0:13.059',-4.96
'0:13.063',-4.41
'0:13.066',-3.89
'0:13.070',-3.36
'0:13.074',-2.87
'0:13.078',-2.46
'0:13.082',-2.11
'0:13.086',-1.83
'0:13.090',-1.6
'0:13.094',-1.34
'0:13.098',-0.84
'0:13.102',-0.2
'0:13.105',0.08
'0:13.109',0.32
'0:13.113',0.48
'0:13.117',0.49
'0:13.121',0.36
'0:13.125',0.59
'0:13.129',0.87
'0:13.133',0.98
'0:13.137',1.42
'0:13.141',2.18
'0:13.145',2.95
'0:13.148',3.66
'0:13.152',4.07
'0:13.156',4.09
'0:13.160',3.84
'0:13.164',3.48
'0:13.168',3.46
'0:13.172',3.77
'0:13.176',3.8
'0:13.180',3.29
'0:13.184',2.56
'0:13.188',2.34
'0:13.191',2.34
'0:13.195',2.3
'0:13.199',1.85
'0:13.203',1.42
'0:13.207',1.24
'0:13.211',0.86
'0:13.215',0.57
'0:13.219',0.61
'0:13.223',0.81
'0:13.227',1.03
'0:13.230',1.31
'0:13.234',1.29
'0:13.238',1.14
'0:13.242',1.12
'0:13.246',1.05
'0:13.250',0.71
'0:13.254',0.32
'0:13.258',0.2
'0:13.262',0.17
'0:13.266',0.17
'0:13.270',0.09
'0:13.273',-0.24
'0:13.277',-0.93
'0:13.281',-1.63
'0:13.285',-2.22
'0:13.289',-2.02
'0:13.293',-1.82
'0:13.297',-1.98
'0:13.301',-2.44
'0:13.305',-2.92
'0:13.309',-3.1
'0:13.313',-3.24
'0:13.316',-3.43
'0:13.320',-3.68
'0:13.324',-3.82
'0:13.328',-3.23
'0:13.332',-2.43
'0:13.336',-1.23
'0:13.340',0.47
'0:13.344',1.91
'0:13.348',2.85
'0:13.352',2.57
'0:13.355',-0.24
'0:13.359',-3.27
'0:13.363',-5.3
'0:13.367',-6.01
'0:13.371',-5.48
'0:13.375',-4.67
'0:13.379',-3.96
'0:13.383',-3.29
'0:13.387',-2.73
'0:13.391',-2.1
'0:13.395',-1.53
'0:13.398',-1.09
'0:13.402',-0.81
'0:13.406',-0.76
'0:13.410',-0.72
'0:13.414',-0.54
'0:13.418',-0.24
'0:13.422',0.2
'0:13.426',0.56
'0:13.430',0.81
'0:13.434',1
'0:13.438',0.86
'0:13.441',0.86
'0:13.445',1.14
'0:13.449',1.68
'0:13.453',2.25
'0:13.457',2.49
'0:13.461',2.86
'0:13.465',3.27
'0:13.469',3.72
'0:13.473',4.17
'0:13.477',4.48
'0:13.480',4.59
'0:13.484',4.53
'0:13.488',4.21
'0:13.492',3.78
'0:13.496',3.21
'0:13.500',2.64
'0:13.504',2
'0:13.508',1.34
'0:13.512',0.57
'0:13.516',0.02
'0:13.520',-0.32
'0:13.523',-0.64
'0:13.527',-0.98
'0:13.531',-1.39
'0:13.535',-1.73
'0:13.539',-1.73
'0:13.543',-1.29
'0:13.547',-0.8
'0:13.551',-0.9
'0:13.555',-1.2
'0:13.559',-1.39
'0:13.563',-1.24
'0:13.566',-1.14
'0:13.570',-0.97
'0:13.574',-0.86
'0:13.578',-0.76
'0:13.582',-0.65
'0:13.586',-0.61
'0:13.590',-0.63
'0:13.594',-0.82
'0:13.598',-1
'0:13.602',-1.4
'0:13.605',-2.04
'0:13.609',-2.51
'0:13.613',-2.87
'0:13.617',-3.07
'0:13.621',-3.29
'0:13.625',-3.31
'0:13.629',-3.04
'0:13.633',-2.87
'0:13.637',-2.95
'0:13.641',-2.92
'0:13.645',-2.92
'0:13.648',-2.9
'0:13.652',-2.85
'0:13.656',-2.48
'0:13.660',-1.64
'0:13.664',-0.22
'0:13.668',1.85
'0:13.672',2.98
'0:13.676',2.82
'0:13.680',1.28
'0:13.684',-1.28
'0:13.688',-3.25
'0:13.691',-4.19
'0:13.695',-4.43
'0:13.699',-4.18
'0:13.703',-3.5
'0:13.707',-2.69
'0:13.711',-1.79
'0:13.715',-1.06
'0:13.719',-0.38
'0:13.723',-0.09
'0:13.727',0.03
'0:13.730',0.14
'0:13.734',0.33
'0:13.738',0.76
'0:13.742',1.03
'0:13.746',1.24
'0:13.750',1.34
'0:13.754',1.46
'0:13.758',1.59
'0:13.762',1.91
'0:13.766',2.07
'0:13.770',2.25
'0:13.773',2.66
'0:13.777',3.09
'0:13.781',3.55
'0:13.785',3.76
'0:13.789',4
'0:13.793',4.12
'0:13.797',4.32
'0:13.801',4.48
'0:13.805',4.44
'0:13.809',4.33
'0:13.813',3.89
'0:13.816',3.4
'0:13.820',2.99
'0:13.824',2.55
'0:13.828',2.11
'0:13.832',1.65
'0:13.836',1.22
'0:13.840',0.73
'0:13.844',0.52
'0:13.848',0.52
'0:13.852',0.54
'0:13.855',0.56
'0:13.859',0.51
'0:13.863',0.23
'0:13.867',-0.07
'0:13.871',-0.11
'0:13.875',-0.06
'0:13.879',0.05
'0:13.883',0.23
'0:13.887',0.35
'0:13.891',0.25
'0:13.895',0.27
'0:13.898',0.32
'0:13.902',0.33
'0:13.906',0.32
'0:13.910',0.25
'0:13.914',0.22
'0:13.918',-0.1
'0:13.922',-0.41
'0:13.926',-0.66
'0:13.930',-1.27
'0:13.934',-1.84
'0:13.938',-2.24
'0:13.941',-2.58
'0:13.945',-2.86
'0:13.949',-3.04
'0:13.953',-2.98
'0:13.957',-2.77
'0:13.961',-2.63
'0:13.965',-2.53
'0:13.969',-2.6
'0:13.973',-3.02
'0:13.977',-3.44
'0:13.980',-3.55
'0:13.984',-2.94
'0:13.988',-1.26
'0:13.992',1.34
'0:13.996',4.21
'0:14.000',6.17
'0:14.004',6.66
'0:14.008',4.56
'0:14.012',1.37
'0:14.016',-1.57
'0:14.020',-3.72
'0:14.023',-4.92
'0:14.027',-5.25
'0:14.031',-4.8
'0:14.035',-4.12
'0:14.039',-3.47
'0:14.043',-3.07
'0:14.047',-2.75
'0:14.051',-2.29
'0:14.055',-1.84
'0:14.059',-1.45
'0:14.063',-1.21
'0:14.066',-1.02
'0:14.070',-0.72
'0:14.074',-0.45
'0:14.078',-0.24
'0:14.082',-0.13
'0:14.086',-0.07
'0:14.090',0.09
'0:14.094',0.52
'0:14.098',1.03
'0:14.102',1.37
'0:14.105',1.78
'0:14.109',2.2
'0:14.113',2.55
'0:14.117',2.8
'0:14.121',3.01
'0:14.125',3.02
'0:14.129',3.01
'0:14.133',3.12
'0:14.137',3.14
'0:14.141',2.9
'0:14.145',2.73
'0:14.148',2.25
'0:14.152',1.53
'0:14.156',1.02
'0:14.160',0.96
'0:14.164',0.93
'0:14.168',0.66
'0:14.172',0.43
'0:14.176',0.29
'0:14.180',0.18
'0:14.184',0.11
'0:14.188',0.11
'0:14.191',0.16
'0:14.195',0.28
'0:14.199',0.36
'0:14.203',0.4
'0:14.207',0.49
'0:14.211',0.71
'0:14.215',0.96
'0:14.219',1.26
'0:14.223',1.59
'0:14.227',1.61
'0:14.230',1.44
'0:14.234',1.32
'0:14.238',1.16
'0:14.242',0.88
'0:14.246',0.48
'0:14.250',0.12
'0:14.254',-0.4
'0:14.258',-1.1
'0:14.262',-1.64
'0:14.266',-2.05
'0:14.270',-2.22
'0:14.273',-2.21
'0:14.277',-2.02
'0:14.281',-1.93
'0:14.285',-2.02
'0:14.289',-2.28
'0:14.293',-2.77
'0:14.297',-2.92
'0:14.301',-2.88
'0:14.305',-2.69
'0:14.309',-1.9
'0:14.313',-0.29
'0:14.316',2.1
'0:14.320',4.24
'0:14.324',5.29
'0:14.328',4.61
'0:14.332',1.87
'0:14.336',-0.89
'0:14.340',-2.98
'0:14.344',-4.02
'0:14.348',-4.31
'0:14.352',-3.76
'0:14.355',-3.09
'0:14.359',-2.43
'0:14.363',-1.96
'0:14.367',-1.77
'0:14.371',-1.41
'0:14.375',-1.03
'0:14.379',-0.63
'0:14.383',-0.42
'0:14.387',-0.04
'0:14.391',0.55
'0:14.395',0.93
'0:14.398',0.88
'0:14.402',0.61
'0:14.406',0.51
'0:14.410',0.51
'0:14.414',0.64
'0:14.418',0.94
'0:14.422',1.25
'0:14.426',1.92
'0:14.430',2.95
'0:14.434',3.87
'0:14.438',4.25
'0:14.441',4.47
'0:14.445',4.66
'0:14.449',4.8
'0:14.453',4.53
'0:14.457',4.09
'0:14.461',3.8
'0:14.465',3.73
'0:14.469',3.42
'0:14.473',2.8
'0:14.477',2.01
'0:14.480',1.26
'0:14.484',1.16
'0:14.488',1.43
'0:14.492',1.11
'0:14.496',0.49
'0:14.500',0
'0:14.504',-0.24
'0:14.508',-0.12
'0:14.512',-0.12
'0:14.516',-0.28
'0:14.520',-0.49
'0:14.523',-0.6
'0:14.527',-0.3
'0:14.531',0.05
'0:14.535',0.18
'0:14.539',0.2
'0:14.543',0.37
'0:14.547',0.61
'0:14.551',0.72
'0:14.555',0.63
'0:14.559',0.05
'0:14.563',-0.73
'0:14.566',-1.25
'0:14.570',-1.71
'0:14.574',-2.08
'0:14.578',-2.46
'0:14.582',-2.78
'0:14.586',-3.22
'0:14.590',-3.5
'0:14.594',-3.35
'0:14.598',-3.23
'0:14.602',-3.16
'0:14.605',-3.47
'0:14.609',-4.05
'0:14.613',-4.37
'0:14.617',-4.26
'0:14.621',-3.69
'0:14.625',-3.2
'0:14.629',-2.56
'0:14.633',-1.5
'0:14.637',0.15
'0:14.641',1.55
'0:14.645',1.8
'0:14.648',1.17
'0:14.652',-1.29
'0:14.656',-4.04
'0:14.660',-5.68
'0:14.664',-6.31
'0:14.668',-6.35
'0:14.672',-5.99
'0:14.676',-5.26
'0:14.680',-4.31
'0:14.684',-3.46
'0:14.688',-2.9
'0:14.691',-2.4
'0:14.695',-1.89
'0:14.699',-1.37
'0:14.703',-0.75
'0:14.707',-0.18
'0:14.711',0.1
'0:14.715',0.02
'0:14.719',-0.09
'0:14.723',0.01
'0:14.727',0.21
'0:14.730',0.75
'0:14.734',1.3
'0:14.738',1.68
'0:14.742',2.01
'0:14.746',2.37
'0:14.750',2.91
'0:14.754',3.45
'0:14.758',3.95
'0:14.762',4.34
'0:14.766',4.69
'0:14.770',4.99
'0:14.773',5
'0:14.777',4.84
'0:14.781',4.45
'0:14.785',4.04
'0:14.789',3.67
'0:14.793',3.33
'0:14.797',2.88
'0:14.801',2.32
'0:14.805',1.63
'0:14.809',0.99
'0:14.813',0.68
'0:14.816',0.6
'0:14.820',0.5
'0:14.824',0.38
'0:14.828',0.3
'0:14.832',0.3
'0:14.836',0.25
'0:14.840',0.22
'0:14.844',0.18
'0:14.848',0.17
'0:14.852',0.16
'0:14.855',0.1
'0:14.859',0.35
'0:14.863',0.62
'0:14.867',0.79
'0:14.871',0.83
'0:14.875',0.87
'0:14.879',0.95
'0:14.883',0.84
'0:14.887',0.5
'0:14.891',0.14
'0:14.895',-0.38
'0:14.898',-0.94
'0:14.902',-1.18
'0:14.906',-1.47
'0:14.910',-2.01
'0:14.914',-2.54
'0:14.918',-2.86
'0:14.922',-3.04
'0:14.926',-2.99
'0:14.930',-2.8
'0:14.934',-2.65
'0:14.938',-2.57
'0:14.941',-2.83
'0:14.945',-3.01
'0:14.949',-3.3
'0:14.953',-3.45
'0:14.957',-2.81
'0:14.961',-1.23
'0:14.965',1.29
'0:14.969',3.5
'0:14.973',4.65
'0:14.977',4.58
'0:14.980',2.29
'0:14.984',-0.76
'0:14.988',-3.2
'0:14.992',-4.62
'0:14.996',-5.07
'0:15.000',-4.83
'0:15.004',-4.35
'0:15.008',-3.82
'0:15.012',-3.07
'0:15.016',-2.34
'0:15.020',-1.77
'0:15.023',-1.45
'0:15.027',-1.1
'0:15.031',-0.68
'0:15.035',-0.41
'0:15.039',-0.29
'0:15.043',-0.31
'0:15.047',-0.23
'0:15.051',-0.03
'0:15.055',0.33
'0:15.059',0.52
'0:15.063',0.56
'0:15.066',0.71
'0:15.070',1.1
'0:15.074',1.62
'0:15.078',1.88
'0:15.082',2.15
'0:15.086',2.6
'0:15.090',3.11
'0:15.094',3.34
'0:15.098',3.27
'0:15.102',3.09
'0:15.105',2.86
'0:15.109',2.63
'0:15.113',2.5
'0:15.117',2.23
'0:15.121',1.74
'0:15.125',1.29
'0:15.129',1.07
'0:15.133',0.85
'0:15.137',0.6
'0:15.141',0.46
'0:15.145',0.19
'0:15.148',-0.14
'0:15.152',-0.35
'0:15.156',-0.43
'0:15.160',-0.25
'0:15.164',0.13
'0:15.168',0.12
'0:15.172',-0.11
'0:15.176',-0.28
'0:15.180',-0.28
'0:15.184',-0.03
'0:15.188',0.39
'0:15.191',0.87
'0:15.195',1
'0:15.199',0.89
'0:15.203',0.73
'0:15.207',0.67
'0:15.211',0.62
'0:15.215',0.6
'0:15.219',0.11
'0:15.223',-0.33
'0:15.227',-0.86
'0:15.230',-1.34
'0:15.234',-2.24
'0:15.238',-2.79
'0:15.242',-3.05
'0:15.246',-3.19
'0:15.250',-3.01
'0:15.254',-2.85
'0:15.258',-2.82
'0:15.262',-2.85
'0:15.266',-3.2
'0:15.270',-3.65
'0:15.273',-3.74
'0:15.277',-3.26
'0:15.281',-2.33
'0:15.285',-0.72
'0:15.289',1.92
'0:15.293',4.81
'0:15.297',6.69
'0:15.301',7.08
'0:15.305',5.19
'0:15.309',1.79
'0:15.313',-1.6
'0:15.316',-3.94
'0:15.320',-4.98
'0:15.324',-5.07
'0:15.328',-4.66
'0:15.332',-4.33
'0:15.336',-3.9
'0:15.340',-3.34
'0:15.344',-2.84
'0:15.348',-2.17
'0:15.352',-1.38
'0:15.355',-0.99
'0:15.359',-0.57
'0:15.363',-0.04
'0:15.367',0.51
'0:15.371',0.88
'0:15.375',1.1
'0:15.379',1.13
'0:15.383',0.92
'0:15.387',0.76
'0:15.391',0.6
'0:15.395',0.75
'0:15.398',1.64
'0:15.402',2.51
'0:15.406',2.69
'0:15.410',2.54
'0:15.414',2.65
'0:15.418',3.16
'0:15.422',3.65
'0:15.426',3.61
'0:15.430',3.58
'0:15.434',3.42
'0:15.438',3.45
'0:15.441',3.47
'0:15.445',3.43
'0:15.449',3.06
'0:15.453',2.72
'0:15.457',2.25
'0:15.461',1.97
'0:15.465',1.51
'0:15.469',0.97
'0:15.473',0.61
'0:15.477',0.4
'0:15.480',0.58
'0:15.484',1.07
'0:15.488',1.41
'0:15.492',1.36
'0:15.496',1.11
'0:15.500',1.14
'0:15.504',1.48
'0:15.508',1.75
'0:15.512',1.64
'0:15.516',1.34
'0:15.520',1.16
'0:15.523',1.16
'0:15.527',1.4
'0:15.531',1.45
'0:15.535',1.26
'0:15.539',1.22
'0:15.543',1.13
'0:15.547',0.56
'0:15.551',-0.13
'0:15.555',-0.72
'0:15.559',-1.25
'0:15.563',-1.49
'0:15.566',-1.79
'0:15.570',-2.23
'0:15.574',-2.73
'0:15.578',-2.7
'0:15.582',-2.43
'0:15.586',-2.5
'0:15.590',-2.97
'0:15.594',-3.3
'0:15.598',-3.3
'0:15.602',-2.9
'0:15.605',-1.97
'0:15.609',-0.35
'0:15.613',1.74
'0:15.617',3.12
'0:15.621',2.2
'0:15.625',-0.69
'0:15.629',-3.26
'0:15.633',-4.83
'0:15.637',-5.39
'0:15.641',-5.19
'0:15.645',-4.51
'0:15.648',-3.74
'0:15.652',-2.95
'0:15.656',-2.32
'0:15.660',-1.73
'0:15.664',-1.27
'0:15.668',-0.96
'0:15.672',-0.61
'0:15.676',-0.38
'0:15.680',-0.28
'0:15.684',-0.13
'0:15.688',0.12
'0:15.691',0.5
'0:15.695',0.71
'0:15.699',0.58
'0:15.703',0.47
'0:15.707',0.52
'0:15.711',0.75
'0:15.715',1.1
'0:15.719',1.63
'0:15.723',2.17
'0:15.727',2.69
'0:15.730',3.18
'0:15.734',3.68
'0:15.738',4.08
'0:15.742',4.06
'0:15.746',3.89
'0:15.750',3.64
'0:15.754',3.35
'0:15.758',2.78
'0:15.762',2.24
'0:15.766',1.71
'0:15.770',1.22
'0:15.773',0.83
'0:15.777',0.65
'0:15.781',0.41
'0:15.785',-0.49
'0:15.789',-1.14
'0:15.793',-1.45
'0:15.797',-1.41
'0:15.801',-1.36
'0:15.805',-1.36
'0:15.809',-1.41
'0:15.813',-1.46
'0:15.816',-1.34
'0:15.820',-1.21
'0:15.824',-1.12
'0:15.828',-1.06
'0:15.832',-0.79
'0:15.836',-0.85
'0:15.840',-0.87
'0:15.844',-0.73
'0:15.848',-0.75
'0:15.852',-0.6
'0:15.855',-0.56
'0:15.859',-0.84
'0:15.863',-1.03
'0:15.867',-1.05
'0:15.871',-1.12
'0:15.875',-1.59
'0:15.879',-2.18
'0:15.883',-2.57
'0:15.887',-2.9
'0:15.891',-2.9
'0:15.895',-2.77
'0:15.898',-2.74
'0:15.902',-2.45
'0:15.906',-2.47
'0:15.910',-2.65
'0:15.914',-2.93
'0:15.918',-3.24
'0:15.922',-3.12
'0:15.926',-2.61
'0:15.930',-1.62
'0:15.934',0.01
'0:15.938',2.03
'0:15.941',3.44
'0:15.945',3.94
'0:15.949',2.93
'0:15.953',0.14
'0:15.957',-2.31
'0:15.961',-3.88
'0:15.965',-4.31
'0:15.969',-4.22
'0:15.973',-3.77
'0:15.977',-3.23
'0:15.980',-2.4
'0:15.984',-1.54
'0:15.988',-0.75
'0:15.992',-0.22
'0:15.996',0.04
'0:16.000',0.16
'0:16.004',0.15
'0:16.008',0.2
'0:16.012',0.42
'0:16.016',0.88
'0:16.020',1.5
'0:16.023',1.58
'0:16.027',1.67
'0:16.031',2.02
'0:16.035',2.3
'0:16.039',2.28
'0:16.043',2.21
'0:16.047',2.63
'0:16.051',3.59
'0:16.055',4.08
'0:16.059',4.2
'0:16.063',4.29
'0:16.066',4.19
'0:16.070',4.04
'0:16.074',3.74
'0:16.078',3.53
'0:16.082',3.41
'0:16.086',3.16
'0:16.090',2.7
'0:16.094',2.22
'0:16.098',1.45
'0:16.102',1.02
'0:16.105',0.9
'0:16.109',0.82
'0:16.113',0.55
'0:16.117',-0.06
'0:16.121',-0.62
'0:16.125',-0.8
'0:16.129',-0.7
'0:16.133',-0.72
'0:16.137',-0.39
'0:16.141',-0.33
'0:16.145',-0.22
'0:16.148',-0.35
'0:16.152',-0.5
'0:16.156',-0.64
'0:16.160',-0.63
'0:16.164',-0.53
'0:16.168',-0.25
'0:16.172',0.02
'0:16.176',0.47
'0:16.180',0.47
'0:16.184',0.03
'0:16.188',-0.12
'0:16.191',0.05
'0:16.195',0.03
'0:16.199',-0.07
'0:16.203',-0.51
'0:16.207',-1.2
'0:16.211',-1.84
'0:16.215',-2.05
'0:16.219',-2.38
'0:16.223',-2.72
'0:16.227',-3.09
'0:16.230',-3.26
'0:16.234',-3.03
'0:16.238',-3.03
'0:16.242',-3.42
'0:16.246',-3.79
'0:16.250',-4.18
'0:16.254',-4.45
'0:16.258',-3.63
'0:16.262',-1.48
'0:16.266',1.62
'0:16.270',4.74
'0:16.273',6.92
'0:16.277',7.22
'0:16.281',4.92
'0:16.285',1.72
'0:16.289',-1.33
'0:16.293',-3.53
'0:16.297',-4.7
'0:16.301',-4.86
'0:16.305',-4.46
'0:16.309',-4
'0:16.313',-3.5
'0:16.316',-2.99
'0:16.320',-2.64
'0:16.324',-2.5
'0:16.328',-2.07
'0:16.332',-1.33
'0:16.336',-0.66
'0:16.340',-0.18
'0:16.344',0.26
'0:16.348',0.42
'0:16.352',0.4
'0:16.355',0.53
'0:16.359',0.82
'0:16.363',1.23
'0:16.367',1.53
'0:16.371',1.79
'0:16.375',1.86
'0:16.379',1.78
'0:16.383',1.93
'0:16.387',2.33
'0:16.391',2.84
'0:16.395',3.21
'0:16.398',3.69
'0:16.402',3.86
'0:16.406',3.49
'0:16.410',2.8
'0:16.414',2.17
'0:16.418',1.81
'0:16.422',1.94
'0:16.426',2.05
'0:16.430',1.93
'0:16.434',1.43
'0:16.438',0.74
'0:16.441',0.43
'0:16.445',0.27
'0:16.449',0.09
'0:16.453',0.05
'0:16.457',0.1
'0:16.461',-0.06
'0:16.465',-0.28
'0:16.469',-0.23
'0:16.473',0.12
'0:16.477',0.7
'0:16.480',1.14
'0:16.484',1.35
'0:16.488',1.31
'0:16.492',1.18
'0:16.496',1
'0:16.500',1.21
'0:16.504',1.59
'0:16.508',1.75
'0:16.512',1.67
'0:16.516',1.43
'0:16.520',0.82
'0:16.523',-0.08
'0:16.527',-1.02
'0:16.531',-1.29
'0:16.535',-1.12
'0:16.539',-1.19
'0:16.543',-1.17
'0:16.547',-1.39
'0:16.551',-2.05
'0:16.555',-2.46
'0:16.559',-2.28
'0:16.563',-2.29
'0:16.566',-2.38
'0:16.570',-2.94
'0:16.574',-3.29
'0:16.578',-2.89
'0:16.582',-1.75
'0:16.586',-0.14
'0:16.590',1.85
'0:16.594',3.5
'0:16.598',4.54
'0:16.602',4.17
'0:16.605',1.74
'0:16.609',-0.99
'0:16.613',-3.07
'0:16.617',-4.65
'0:16.621',-5.16
'0:16.625',-4.74
'0:16.629',-3.65
'0:16.633',-2.34
'0:16.637',-1.55
'0:16.641',-1.25
'0:16.645',-0.9
'0:16.648',-0.52
'0:16.652',-0.07
'0:16.656',-0.03
'0:16.660',-0.05
'0:16.664',-0.12
'0:16.668',-0.27
'0:16.672',0.11
'0:16.676',0.95
'0:16.680',1.15
'0:16.684',1.01
'0:16.688',1.03
'0:16.691',1.3
'0:16.695',1.81
'0:16.699',2.46
'0:16.703',2.99
'0:16.707',3.2
'0:16.711',3.38
'0:16.715',3.5
'0:16.719',3.5
'0:16.723',3.34
'0:16.727',3.5
'0:16.730',3.81
'0:16.734',3.78
'0:16.738',3.52
'0:16.742',3.36
'0:16.746',3
'0:16.750',2.46
'0:16.754',1.72
'0:16.758',1.09
'0:16.762',0.87
'0:16.766',0.82
'0:16.770',0.5
'0:16.773',0.04
'0:16.777',-0.19
'0:16.781',-0.1
'0:16.785',0.11
'0:16.789',0.22
'0:16.793',0.14
'0:16.797',-0.1
'0:16.801',-0.22
'0:16.805',-0.16
'0:16.809',-0.27
'0:16.813',-0.36
'0:16.816',-0.37
'0:16.820',-0.2
'0:16.824',0.06
'0:16.828',0.09
'0:16.832',-0.03
'0:16.836',-0.25
'0:16.840',-0.4
'0:16.844',-0.69
'0:16.848',-1.32
'0:16.852',-2.13
'0:16.855',-2.93
'0:16.859',-3.58
'0:16.863',-4.06
'0:16.867',-4.27
'0:16.871',-4.38
'0:16.875',-4.31
'0:16.879',-4.3
'0:16.883',-4.49
'0:16.887',-4.66
'0:16.891',-4.62
'0:16.895',-4.56
'0:16.898',-4.57
'0:16.902',-4.24
'0:16.906',-3.37
'0:16.910',-1.72
'0:16.914',0.13
'0:16.918',0.71
'0:16.922',0.3
'0:16.926',-1.44
'0:16.930',-3.95
'0:16.934',-5.63
'0:16.938',-6.32
'0:16.941',-6.31
'0:16.945',-5.78
'0:16.949',-4.99
'0:16.953',-4.13
'0:16.957',-3.21
'0:16.961',-2.4
'0:16.965',-1.77
'0:16.969',-1.14
'0:16.973',-0.6
'0:16.977',-0.23
'0:16.980',-0.13
'0:16.984',0.01
'0:16.988',0.26
'0:16.992',0.64
'0:16.996',0.95
'0:17.000',1.25
'0:17.004',1.72
'0:17.008',2.11
'0:17.012',2.35
'0:17.016',2.33
'0:17.020',2.36
'0:17.023',2.87
'0:17.027',3.44
'0:17.031',4.05
'0:17.035',4.47
'0:17.039',4.79
'0:17.043',5.1
'0:17.047',5.17
'0:17.051',5.12
'0:17.055',4.63
'0:17.059',4.1
'0:17.063',3.59
'0:17.066',3.22
'0:17.070',2.68
'0:17.074',2.01
'0:17.078',1.34
'0:17.082',0.94
'0:17.086',0.52
'0:17.090',0.25
'0:17.094',0.27
'0:17.098',0.27
'0:17.102',0.38
'0:17.105',0.41
'0:17.109',0.09
'0:17.113',-0.09
'0:17.117',-0.08
'0:17.121',-0.04
'0:17.125',-0.06
'0:17.129',-0.08
'0:17.133',0.18
'0:17.137',0.27
'0:17.141',0.1
'0:17.145',0.01
'0:17.148',0.39
'0:17.152',0.64
'0:17.156',0.8
'0:17.160',0.9
'0:17.164',0.74
'0:17.168',0.28
'0:17.172',-0.45
'0:17.176',-1.23
'0:17.180',-1.85
'0:17.184',-2.17
'0:17.188',-2.45
'0:17.191',-2.73
'0:17.195',-2.81
'0:17.199',-2.81
'0:17.203',-2.92
'0:17.207',-3
'0:17.211',-2.86
'0:17.215',-2.58
'0:17.219',-2.69
'0:17.223',-3.02
'0:17.227',-3.18
'0:17.230',-2.98
'0:17.234',-2.41
'0:17.238',-0.89
'0:17.242',1.53
'0:17.246',3.87
'0:17.250',5.63
'0:17.254',5.67
'0:17.258',3.15
'0:17.262',0.09
'0:17.266',-2.19
'0:17.270',-3.59
'0:17.273',-4.33
'0:17.277',-4.74
'0:17.281',-4.27
'0:17.285',-3.54
'0:17.289',-2.88
'0:17.293',-2.18
'0:17.297',-1.68
'0:17.301',-1.35
'0:17.305',-1.14
'0:17.309',-0.91
'0:17.313',-0.34
'0:17.316',-0.15
'0:17.320',-0.26
'0:17.324',-0.36
'0:17.328',0
'0:17.332',0.25
'0:17.336',0.29
'0:17.340',0.9
'0:17.344',1.68
'0:17.348',2.37
'0:17.352',2.42
'0:17.355',2.25
'0:17.359',2.4
'0:17.363',2.64
'0:17.367',2.84
'0:17.371',3.09
'0:17.375',3.31
'0:17.379',3.33
'0:17.383',3.01
'0:17.387',2.54
'0:17.391',2.22
'0:17.395',2.07
'0:17.398',2.08
'0:17.402',1.59
'0:17.406',1
'0:17.410',0.31
'0:17.414',-0.28
'0:17.418',-0.53
'0:17.422',-0.6
'0:17.426',-0.58
'0:17.430',-0.56
'0:17.434',-0.45
'0:17.438',-0.29
'0:17.441',-0.23
'0:17.445',0.12
'0:17.449',0.46
'0:17.453',0.56
'0:17.457',0.54
'0:17.461',0.66
'0:17.465',1.09
'0:17.469',1.33
'0:17.473',1.47
'0:17.477',1.57
'0:17.480',1.57
'0:17.484',1.38
'0:17.488',1.24
'0:17.492',0.89
'0:17.496',0.46
'0:17.500',-0.34
'0:17.504',-1.14
'0:17.508',-1.56
'0:17.512',-1.68
'0:17.516',-1.68
'0:17.520',-1.83
'0:17.523',-2.14
'0:17.527',-2.37
'0:17.531',-2.5
'0:17.535',-2.49
'0:17.539',-2.49
'0:17.543',-2.56
'0:17.547',-2.91
'0:17.551',-3.24
'0:17.555',-3.44
'0:17.559',-3.49
'0:17.563',-3.07
'0:17.566',-1.76
'0:17.570',0.94
'0:17.574',4.19
'0:17.578',6.67
'0:17.582',7.76
'0:17.586',5.97
'0:17.590',2.35
'0:17.594',-1.24
'0:17.598',-3.78
'0:17.602',-5.03
'0:17.605',-5.51
'0:17.609',-5.37
'0:17.613',-4.55
'0:17.617',-3.46
'0:17.621',-2.77
'0:17.625',-2.65
'0:17.629',-2.2
'0:17.633',-1.53
'0:17.637',-1.03
'0:17.641',-0.63
'0:17.645',-0.25
'0:17.648',0.19
'0:17.652',0.43
'0:17.656',0.52
'0:17.660',0.8
'0:17.664',0.98
'0:17.668',0.8
'0:17.672',0.78
'0:17.676',1.3
'0:17.680',1.92
'0:17.684',2.4
'0:17.688',2.46
'0:17.691',2.49
'0:17.695',2.83
'0:17.699',3.49
'0:17.703',4.01
'0:17.707',4.29
'0:17.711',4.22
'0:17.715',4.13
'0:17.719',4.06
'0:17.723',3.66
'0:17.727',3.14
'0:17.730',2.49
'0:17.734',1.9
'0:17.738',1.31
'0:17.742',0.81
'0:17.746',0.43
'0:17.750',0.6
'0:17.754',0.95
'0:17.758',1.15
'0:17.762',1.06
'0:17.766',0.81
'0:17.770',0.7
'0:17.773',0.95
'0:17.777',1.16
'0:17.781',1.23
'0:17.785',1.25
'0:17.789',1.31
'0:17.793',1.21
'0:17.797',1.04
'0:17.801',0.99
'0:17.805',1.18
'0:17.809',1.26
'0:17.813',0.87
'0:17.816',0.23
'0:17.820',-0.05
'0:17.824',-0.13
'0:17.828',-0.4
'0:17.832',-0.61
'0:17.836',-0.77
'0:17.840',-1.11
'0:17.844',-2.05
'0:17.848',-2.82
'0:17.852',-2.98
'0:17.855',-2.79
'0:17.859',-2.63
'0:17.863',-2.35
'0:17.867',-2.22
'0:17.871',-2.55
'0:17.875',-3.2
'0:17.879',-3.45
'0:17.883',-3.47
'0:17.887',-2.87
'0:17.891',-1.22
'0:17.895',1.41
'0:17.898',2.94
'0:17.902',3.17
'0:17.906',2.02
'0:17.910',-0.78
'0:17.914',-3.13
'0:17.918',-4.51
'0:17.922',-5.22
'0:17.926',-5.4
'0:17.930',-4.94
'0:17.934',-4.21
'0:17.938',-3.46
'0:17.941',-2.58
'0:17.945',-1.7
'0:17.949',-1.2
'0:17.953',-0.82
'0:17.957',-0.64
'0:17.961',-0.5
'0:17.965',-0.38
'0:17.969',-0.12
'0:17.973',0.33
'0:17.977',0.74
'0:17.980',1.03
'0:17.984',1.17
'0:17.988',1.11
'0:17.992',1.13
'0:17.996',1.48
'0:18.000',1.97
'0:18.004',2.44
'0:18.008',2.79
'0:18.012',3.14
'0:18.016',3.37
'0:18.020',3.6
'0:18.023',3.7
'0:18.027',3.63
'0:18.031',3.66
'0:18.035',3.55
'0:18.039',3.37
'0:18.043',2.91
'0:18.047',2.48
'0:18.051',1.97
'0:18.055',1.41
'0:18.059',0.89
'0:18.063',0.31
'0:18.066',-0.27
'0:18.070',-0.79
'0:18.074',-1.25
'0:18.078',-1.41
'0:18.082',-1.27
'0:18.086',-1.31
'0:18.090',-1.46
'0:18.094',-1.45
'0:18.098',-1.37
'0:18.102',-1.28
'0:18.105',-1.08
'0:18.109',-0.97
'0:18.113',-0.91
'0:18.117',-0.84
'0:18.121',-0.83
'0:18.125',-0.69
'0:18.129',-0.49
'0:18.133',-0.19
'0:18.137',0.06
'0:18.141',0.21
'0:18.145',0.18
'0:18.148',0.02
'0:18.152',-0.44
'0:18.156',-0.99
'0:18.160',-1.47
'0:18.164',-2.04
'0:18.168',-2.43
'0:18.172',-2.59
'0:18.176',-2.47
'0:18.180',-2.43
'0:18.184',-2.54
'0:18.188',-2.74
'0:18.191',-2.85
'0:18.195',-2.85
'0:18.199',-2.73
'0:18.203',-2.7
'0:18.207',-2.8
'0:18.211',-2.84
'0:18.215',-2.43
'0:18.219',-1.19
'0:18.223',0.93
'0:18.227',3
'0:18.230',3.82
'0:18.234',3.59
'0:18.238',1.5
'0:18.242',-1
'0:18.246',-2.85
'0:18.250',-3.9
'0:18.254',-4.31
'0:18.258',-4.01
'0:18.262',-3.46
'0:18.266',-2.88
'0:18.270',-2.16
'0:18.273',-1.67
'0:18.277',-1.08
'0:18.281',-0.54
'0:18.285',-0.1
'0:18.289',0.26
'0:18.293',0.55
'0:18.297',0.55
'0:18.301',0.71
'0:18.305',0.96
'0:18.309',1.03
'0:18.313',1.08
'0:18.316',1.23
'0:18.320',1.44
'0:18.324',1.89
'0:18.328',2.2
'0:18.332',2.16
'0:18.336',2.51
'0:18.340',3.11
'0:18.344',3.58
'0:18.348',3.85
'0:18.352',4
'0:18.355',4.25
'0:18.359',4.16
'0:18.363',3.87
'0:18.367',3.52
'0:18.371',2.97
'0:18.375',2.3
'0:18.379',2.06
'0:18.383',1.86
'0:18.387',1.79
'0:18.391',1.45
'0:18.395',0.78
'0:18.398',0.25
'0:18.402',0.02
'0:18.406',-0.31
'0:18.410',-0.46
'0:18.414',-0.46
'0:18.418',-0.51
'0:18.422',-0.68
'0:18.426',-0.58
'0:18.430',-0.47
'0:18.434',-0.24
'0:18.438',0.1
'0:18.441',0.45
'0:18.445',0.63
'0:18.449',0.39
'0:18.453',0.45
'0:18.457',0.38
'0:18.461',0.73
'0:18.465',0.86
'0:18.469',0.95
'0:18.473',1.07
'0:18.477',0.74
'0:18.480',0.01
'0:18.484',-0.85
'0:18.488',-1.63
'0:18.492',-2.24
'0:18.496',-2.55
'0:18.500',-2.72
'0:18.504',-3.04
'0:18.508',-3.37
'0:18.512',-3.41
'0:18.516',-3.38
'0:18.520',-3.32
'0:18.523',-3.23
'0:18.527',-3.05
'0:18.531',-3.1
'0:18.535',-3.25
'0:18.539',-3.31
'0:18.543',-3.19
'0:18.547',-2.56
'0:18.551',-0.92
'0:18.555',1.76
'0:18.559',4.56
'0:18.563',6.56
'0:18.566',7.11
'0:18.570',4.98
'0:18.574',1.61
'0:18.578',-1.47
'0:18.582',-3.55
'0:18.586',-4.57
'0:18.590',-4.95
'0:18.594',-4.91
'0:18.598',-4.61
'0:18.602',-4.06
'0:18.605',-3.24
'0:18.609',-2.5
'0:18.613',-2
'0:18.617',-1.59
'0:18.621',-1.02
'0:18.625',-0.39
'0:18.629',-0.27
'0:18.633',-0.58
'0:18.637',-0.82
'0:18.641',-0.72
'0:18.645',-0.34
'0:18.648',0.22
'0:18.652',1.02
'0:18.656',1.85
'0:18.660',2.46
'0:18.664',2.75
'0:18.668',2.71
'0:18.672',2.69
'0:18.676',2.75
'0:18.680',2.89
'0:18.684',3.06
'0:18.688',3.32
'0:18.691',3.46
'0:18.695',3.55
'0:18.699',3.43
'0:18.703',3.18
'0:18.707',2.88
'0:18.711',2.2
'0:18.715',1.54
'0:18.719',1.3
'0:18.723',1.16
'0:18.727',0.84
'0:18.730',0.34
'0:18.734',-0.26
'0:18.738',-0.49
'0:18.742',-0.1
'0:18.746',0.33
'0:18.750',0.51
'0:18.754',0.35
'0:18.758',0.26
'0:18.762',0.54
'0:18.766',0.67
'0:18.770',0.5
'0:18.773',0.15
'0:18.777',-0.09
'0:18.781',0.29
'0:18.785',0.77
'0:18.789',1.01
'0:18.793',1.03
'0:18.797',0.87
'0:18.801',0.89
'0:18.805',0.94
'0:18.809',0.52
'0:18.813',-0.15
'0:18.816',-0.72
'0:18.820',-1.37
'0:18.824',-1.81
'0:18.828',-1.87
'0:18.832',-1.85
'0:18.836',-1.85
'0:18.840',-1.95
'0:18.844',-2.37
'0:18.848',-2.67
'0:18.852',-2.63
'0:18.855',-2.63
'0:18.859',-2.84
'0:18.863',-3.39
'0:18.867',-3.8
'0:18.871',-3.41
'0:18.875',-2.28
'0:18.879',-0.36
'0:18.883',2.08
'0:18.887',3.85
'0:18.891',4.31
'0:18.895',3.07
'0:18.898',0.09
'0:18.902',-2.44
'0:18.906',-3.8
'0:18.910',-4.29
'0:18.914',-4.42
'0:18.918',-4.12
'0:18.922',-3.43
'0:18.926',-2.67
'0:18.930',-2.14
'0:18.934',-1.76
'0:18.938',-1.48
'0:18.941',-0.87
'0:18.945',-0.2
'0:18.949',0
'0:18.953',-0.06
'0:18.957',0.05
'0:18.961',0.43
'0:18.965',0.51
'0:18.969',0.52
'0:18.973',0.92
'0:18.977',1.55
'0:18.980',1.93
'0:18.984',2.24
'0:18.988',2.5
'0:18.992',2.67
'0:18.996',2.93
'0:19.000',3.27
'0:19.004',3.56
'0:19.008',3.81
'0:19.012',4.05
'0:19.016',4.24
'0:19.020',4.24
'0:19.023',4.53
'0:19.027',4.68
'0:19.031',4.46
'0:19.035',4.08
'0:19.039',3.49
'0:19.043',2.59
'0:19.047',1.53
'0:19.051',0.78
'0:19.055',0.37
'0:19.059',-0.09
'0:19.063',-0.51
'0:19.066',-0.9
'0:19.070',-1.2
'0:19.074',-1.18
'0:19.078',-1
'0:19.082',-1.03
'0:19.086',-0.97
'0:19.090',-0.99
'0:19.094',-1
'0:19.098',-1.02
'0:19.102',-1.24
'0:19.105',-1.4
'0:19.109',-1.35
'0:19.113',-1.07
'0:19.117',-0.64
'0:19.121',-0.25
'0:19.125',-0.24
'0:19.129',-0.35
'0:19.133',-0.55
'0:19.137',-0.69
'0:19.141',-0.91
'0:19.145',-1.56
'0:19.148',-2.5
'0:19.152',-3.24
'0:19.156',-3.41
'0:19.160',-3.41
'0:19.164',-3.46
'0:19.168',-3.36
'0:19.172',-3.18
'0:19.176',-2.96
'0:19.180',-3.03
'0:19.184',-3.05
'0:19.188',-2.9
'0:19.191',-2.86
'0:19.195',-2.82
'0:19.199',-2.69
'0:19.203',-2.26
'0:19.207',-0.8
'0:19.211',1.58
'0:19.215',3.15
'0:19.219',3.5
'0:19.223',2.75
'0:19.227',-0.12
'0:19.230',-2.53
'0:19.234',-3.95
'0:19.238',-4.57
'0:19.242',-4.68
'0:19.246',-4.18
'0:19.250',-3.21
'0:19.254',-2.32
'0:19.258',-1.43
'0:19.262',-0.78
'0:19.266',-0.34
'0:19.270',0.01
'0:19.273',0.03
'0:19.277',0.09
'0:19.281',0.29
'0:19.285',0.52
'0:19.289',0.93
'0:19.293',1.3
'0:19.297',1.4
'0:19.301',1.27
'0:19.305',1.34
'0:19.309',1.81
'0:19.313',2.62
'0:19.316',3.1
'0:19.320',3.23
'0:19.324',3.18
'0:19.328',3.58
'0:19.332',3.85
'0:19.336',4.07
'0:19.340',4.33
'0:19.344',4.33
'0:19.348',3.96
'0:19.352',3.72
'0:19.355',3.09
'0:19.359',2.48
'0:19.363',2.16
'0:19.367',1.94
'0:19.371',1.61
'0:19.375',1.26
'0:19.379',1.15
'0:19.383',0.94
'0:19.387',0.88
'0:19.391',0.79
'0:19.395',0.21
'0:19.398',-0.35
'0:19.402',-0.69
'0:19.406',-0.55
'0:19.410',-0.14
'0:19.414',0.31
'0:19.418',0.52
'0:19.422',0.62
'0:19.426',0.43
'0:19.430',0.16
'0:19.434',-0.02
'0:19.438',0
'0:19.441',0.22
'0:19.445',0.53
'0:19.449',0.72
'0:19.453',0.89
'0:19.457',0.93
'0:19.461',0.77
'0:19.465',0.66
'0:19.469',0.56
'0:19.473',0.19
'0:19.477',-0.33
'0:19.480',-0.96
'0:19.484',-1.53
'0:19.488',-2.12
'0:19.492',-2.5
'0:19.496',-2.55
'0:19.500',-2.65
'0:19.504',-2.73
'0:19.508',-2.73
'0:19.512',-2.69
'0:19.516',-2.58
'0:19.520',-2.6
'0:19.523',-2.75
'0:19.527',-2.89
