'0:00.000',-347.9640248
'0:00.004',-622.143959
'0:00.008',-914.3697063
'0:00.012',-1115.493204
'0:00.016',-1225.514451
'0:00.020',-1356.201065
'0:00.023',-1490.671479
'0:00.027',-1521.669529
'0:00.031',-1431.440463
'0:00.035',-1219.838752
'0:00.039',-949.8792095
'0:00.043',-687.6327968
'0:00.047',-340.6874873
'0:00.051',144.3665046
'0:00.055',649.3582094
'0:00.059',839.1303082
'0:00.063',715.8657624
'0:00.066',440.9581745
'0:00.070',362.8081614
'0:00.074',348.6916786
'0:00.078',251.9137294
'0:00.082',156.3000262
'0:00.086',-32.01676514
'0:00.090',-459.7316413
'0:00.094',31.43464214
'0:00.098',425.5319149
'0:00.102',558.9836132
'0:00.105',759.3794569
'0:00.109',887.8831097
'0:00.113',815.6998574
'0:00.117',557.0917135
'0:00.121',225.281602
'0:00.125',9.31396804
'0:00.129',-121.2271153
'0:00.133',-406.9039788
'0:00.137',-659.8364234
'0:00.141',-759.0883954
'0:00.145',-691.4165963
'0:00.148',-539.9190849
'0:00.152',-566.2601508
'0:00.156',-604.0981459
'0:00.160',-587.7987019
'0:00.164',-701.3126874
'0:00.168',-952.0621707
'0:00.172',-1017.114416
'0:00.176',-1202.229531
'0:00.180',-1439.735716
'0:00.184',-1501.731816
'0:00.188',-1176.179527
'0:00.191',196.4665134
'0:00.195',1869.779084
'0:00.199',2024.04168
'0:00.203',944.7856332
'0:00.207',210.7285269
'0:00.211',-108.56594
'0:00.215',-918.5900981
'0:00.219',-1504.787962
'0:00.223',-1265.389877
'0:00.227',-661.7283232
'0:00.230',-108.2748785
'0:00.234',1124.079518
'0:00.238',2999.097709
'0:00.242',3688.476875
'0:00.246',2498.762989
'0:00.250',-133.0151061
'0:00.254',-1174.287627
'0:00.258',-1305.992956
'0:00.262',-1029.193469
'0:00.266',-359.1698926
'0:00.270',136.5078441
'0:00.273',-17.31815933
'0:00.277',-450.1266118
'0:00.281',-565.9690893
'0:00.285',-308.8162529
'0:00.289',-214.803388
'0:00.293',-441.3947667
'0:00.297',-704.0777716
'0:00.301',-730.709899
'0:00.305',-547.4866839
'0:00.309',-521.5822103
'0:00.313',-620.5431208
'0:00.316',-825.1593562
'0:00.320',-1004.30771
'0:00.324',-1074.162471
'0:00.328',-889.7750095
'0:00.332',-828.6520942
'0:00.336',-1014.640394
'0:00.340',-1102.540967
'0:00.344',-1028.174753
'0:00.348',-748.3191198
'0:00.352',-656.6347469
'0:00.355',-782.2277847
'0:00.359',-977.9666444
'0:00.363',-1100.066944
'0:00.367',-1134.848794
'0:00.371',-1201.93847
'0:00.375',-1159.880083
'0:00.379',-1050.004366
'0:00.383',-935.3261344
'0:00.387',-647.9029019
'0:00.391',-346.5087173
'0:00.395',-67.8173298
'0:00.398',233.5768548
'0:00.402',390.1679425
'0:00.406',294.8453008
'0:00.410',182.9321536
'0:00.414',-11.7879908
'0:00.418',-234.4500393
'0:00.422',-152.2251652
'0:00.426',-115.2603545
'0:00.430',-114.969293
'0:00.434',-189.3355066
'0:00.438',-319.2944669
'0:00.441',-386.2386122
'0:00.445',-416.9456006
'0:00.449',-491.8939372
'0:00.453',-577.6115493
'0:00.457',-809.4420351
'0:00.461',-1120.58678
'0:00.465',-1104.869459
'0:00.469',-1228.134005
'0:00.473',-1658.905027
'0:00.477',-2276.828594
'0:00.480',-2669.470559
'0:00.484',-2435.893704
'0:00.488',-1773.001135
'0:00.492',-974.7649678
'0:00.496',-404.8665483
'0:00.500',-95.32264167
'0:00.504',154.4081264
'0:00.508',446.0517507
'0:00.512',530.8961784
'0:00.516',361.6439154
'0:00.520',-293.2444626
'0:00.523',-1085.222808
'0:00.527',-1748.6975
'0:00.531',-1015.222517
'0:00.535',523.1830486
'0:00.539',1751.171523
'0:00.543',1597.49105
'0:00.547',219.0237797
'0:00.551',-119.626277
'0:00.555',-707.8615712
'0:00.559',-944.2035102
'0:00.563',222.8075792
'0:00.566',720.813808
'0:00.570',973.3096603
'0:00.574',1287.947143
'0:00.578',1623.977646
'0:00.582',1540.879588
'0:00.586',1408.446605
'0:00.590',1565.183223
'0:00.594',1368.862241
'0:00.598',828.3610327
'0:00.602',393.2240883
'0:00.605',159.938295
'0:00.609',304.7413919
'0:00.613',432.0807987
'0:00.617',588.9629479
'0:00.621',1007.072794
'0:00.625',1201.93847
'0:00.629',905.6378613
'0:00.633',484.9084612
'0:00.637',-12.22458305
'0:00.641',-68.1083913
'0:00.645',225.5726635
'0:00.648',578.9213261
'0:00.652',570.9171348
'0:00.656',331.2279885
'0:00.660',245.8014378
'0:00.664',457.6942108
'0:00.668',512.8503653
'0:00.672',471.3741014
'0:00.676',433.9726984
'0:00.680',364.5545304
'0:00.684',364.4089996
'0:00.688',438.7752132
'0:00.691',393.951742
'0:00.695',239.2525541
'0:00.699',103.326833
'0:00.703',55.7382775
'0:00.707',42.78604069
'0:00.711',-39.29330267
'0:00.715',-137.0899671
'0:00.719',-62.72375353
'0:00.723',28.37849638
'0:00.727',85.86314288
'0:00.730',203.4519894
'0:00.734',318.2757517
'0:00.738',472.3928166
'0:00.742',634.5140728
'0:00.746',673.0797218
'0:00.750',764.1819717
'0:00.754',708.8802864
'0:00.758',660.1274849
'0:00.762',786.5937073
'0:00.766',968.2160841
'0:00.770',1034.287045
'0:00.773',944.0579795
'0:00.777',1014.058271
'0:00.781',914.3697063
'0:00.785',836.2196932
'0:00.789',646.3020636
'0:00.793',390.0224117
'0:00.797',194.2835521
'0:00.801',88.33716564
'0:00.805',-51.37235498
'0:00.809',-181.6223768
'0:00.813',-310.9992141
'0:00.816',-335.3028495
'0:00.820',-298.6291003
'0:00.824',-252.4958524
'0:00.828',-86.44526588
'0:00.832',-58.06676951
'0:00.836',-146.5494659
'0:00.840',-337.34028
'0:00.844',-532.0604244
'0:00.848',-849.8995838
'0:00.852',-1418.488227
'0:00.855',-1760.33996
'0:00.859',-1644.06089
'0:00.863',-816.1364496
'0:00.867',672.2065372
'0:00.871',1551.06674
'0:00.875',1697.761737
'0:00.879',1428.675379
'0:00.883',770.4397939
'0:00.887',91.82990366
'0:00.891',41.62179469
'0:00.895',721.1048695
'0:00.898',1828.593882
'0:00.902',2043.688331
'0:00.906',1256.949093
'0:00.910',996.8856419
'0:00.914',1090.316384
'0:00.918',806.8224816
'0:00.922',557.6738365
'0:00.926',607.7364147
'0:00.930',565.6780278
'0:00.934',656.6347469
'0:00.938',726.4895072
'0:00.941',742.0612976
'0:00.945',954.827255
'0:00.949',901.4174695
'0:00.953',670.3146375
'0:00.957',215.5310417
'0:00.961',-44.09581745
'0:00.965',-22.55726635
'0:00.969',164.013156
'0:00.973',119.626277
'0:00.977',98.52431819
'0:00.980',136.0712519
'0:00.984',163.7220945
'0:00.988',209.2732194
'0:00.992',161.102541
'0:00.996',92.84861891
'0:01.000',41.62179469
'0:01.004',61.55950752
'0:01.008',106.3829787
'0:01.012',126.9028146
'0:01.016',154.8447187
'0:01.020',148.1503042
'0:01.023',61.26844602
'0:01.027',38.42011817
'0:01.031',72.61984457
'0:01.035',146.2584044
'0:01.039',222.8075792
'0:01.043',224.4084175
'0:01.047',268.3587042
'0:01.051',248.7120529
'0:01.055',267.0489274
'0:01.059',280.5832873
'0:01.063',323.3693279
'0:01.066',174.0547778
'0:01.070',95.61370318
'0:01.074',-126.0296301
'0:01.078',-26.34106587
'0:01.082',128.2125913
'0:01.086',17.17262858
'0:01.090',256.7162441
'0:01.094',-367.3196146
'0:01.098',-447.3615275
'0:01.102',-67.5262683
'0:01.105',604.2436767
'0:01.109',951.334517
'0:01.113',1021.62587
'0:01.117',1018.715255
'0:01.121',704.3688331
'0:01.125',278.400326
'0:01.129',-19.06452833
'0:01.133',-59.23101551
'0:01.137',-21.97514335
'0:01.141',-27.94190412
'0:01.145',-24.74022761
'0:01.148',13.67989056
'0:01.152',35.50950316
'0:01.156',-22.26620485
'0:01.160',-53.26425474
'0:01.164',-97.21454143
'0:01.168',-127.3394068
'0:01.172',-157.609803
'0:01.176',-123.5556073
'0:01.180',44.67794045
'0:01.184',48.89833222
'0:01.188',-195.5933289
'0:01.191',-916.5526676
'0:01.195',-1979.218209
'0:01.199',-2255.581104
'0:01.203',-1286.637366
'0:01.207',144.0754431
'0:01.211',254.3877521
'0:01.215',-2061.734144
'0:01.219',-3461.157843
'0:01.223',-2969.700498
'0:01.227',-1755.682976
'0:01.230',-470.7919784
'0:01.234',1846.930756
'0:01.238',3907.064063
'0:01.242',3886.835288
'0:01.246',1755.537445
'0:01.250',-905.9289228
'0:01.254',-1762.23186
'0:01.258',-1331.89743
'0:01.262',-462.2056641
'0:01.266',679.1920133
'0:01.270',1676.514247
'0:01.273',2456.41354
'0:01.277',2422.213814
'0:01.281',1695.578776
'0:01.285',1247.780656
'0:01.289',1683.499723
'0:01.293',305.3235149
'0:01.297',-657.9445237
'0:01.301',-558.6925517
'0:01.305',-307.9430684
'0:01.309',-493.4947755
'0:01.313',-395.4070495
'0:01.316',36.23715691
'0:01.320',49.77151672
'0:01.324',-397.0078878
'0:01.328',-614.8674215
'0:01.332',-584.8880869
'0:01.336',-444.4509125
'0:01.340',-621.561836
'0:01.344',-997.6132957
'0:01.348',-1066.158279
'0:01.352',-793.8702448
'0:01.355',-533.6612626
'0:01.359',-579.2123876
'0:01.363',-852.8101988
'0:01.367',-981.1683209
'0:01.371',-749.6288966
'0:01.375',-527.4034404
'0:01.379',-452.309573
'0:01.383',-464.0975638
'0:01.387',-670.023576
'0:01.391',-677.8822365
'0:01.395',-481.5612539
'0:01.398',-418.5464389
'0:01.402',-604.8257997
'0:01.406',-653.8696627
'0:01.410',-400.5006258
'0:01.414',39.29330267
'0:01.418',355.6771546
'0:01.422',153.2438804
'0:01.426',65.63436854
'0:01.430',252.2047909
'0:01.434',410.6877783
'0:01.438',320.1676514
'0:01.441',90.2290654
'0:01.445',-112.7863318
'0:01.449',-278.1092645
'0:01.453',-510.8129348
'0:01.457',-691.1255348
'0:01.461',-956.7191548
'0:01.465',-1298.716419
'0:01.469',-1565.474285
'0:01.473',-1670.838548
'0:01.477',-1691.649446
'0:01.480',-1728.468725
'0:01.484',-1643.624298
'0:01.488',-1404.517275
'0:01.492',-983.0602206
'0:01.496',-541.2288617
'0:01.500',-280.5832873
'0:01.504',-252.4958524
'0:01.508',-464.0975638
'0:01.512',-866.3445586
'0:01.516',-1143.726169
'0:01.520',-1458.654714
'0:01.523',-1726.867887
'0:01.527',-1761.067614
'0:01.531',-1328.11363
'0:01.535',-323.3693279
'0:01.539',1212.271153
'0:01.543',2337.805978
'0:01.547',1513.083214
'0:01.551',-72.61984457
'0:01.555',-1725.849172
'0:01.559',-1507.116454
'0:01.563',-9.31396804
'0:01.566',689.2336351
'0:01.570',605.4079227
'0:01.574',286.1134558
'0:01.578',499.8981285
'0:01.582',1319.527316
'0:01.586',2115.14393
'0:01.590',2010.50732
'0:01.594',1309.049102
'0:01.598',232.9947318
'0:01.602',-499.8981285
'0:01.605',-594.0565241
'0:01.609',142.7656664
'0:01.613',1067.759118
'0:01.617',1204.703554
'0:01.621',336.9036878
'0:01.625',-404.2844253
'0:01.629',-245.8014378
'0:01.633',-113.6595163
'0:01.637',27.65084262
'0:01.641',-126.0296301
'0:01.645',-340.833018
'0:01.648',-173.4726548
'0:01.652',70.43688331
'0:01.656',280.0011643
'0:01.660',143.7843816
'0:01.664',-91.53884216
'0:01.668',30.85251914
'0:01.672',280.0011643
'0:01.676',430.4799604
'0:01.680',123.1190151
'0:01.684',-367.6106761
'0:01.688',-656.6347469
'0:01.691',-821.0844952
'0:01.695',-683.8489973
'0:01.699',-813.2258346
'0:01.703',-986.2618971
'0:01.707',-925.8666356
'0:01.711',-721.8325232
'0:01.715',-372.4131909
'0:01.719',-278.8369182
'0:01.723',-258.1715517
'0:01.727',-27.94190412
'0:01.730',378.0888902
'0:01.734',713.9738627
'0:01.738',842.9141078
'0:01.742',728.0903455
'0:01.746',580.5221643
'0:01.750',622.143959
'0:01.754',717.3210699
'0:01.758',697.8199494
'0:01.762',555.7819367
'0:01.766',481.5612539
'0:01.770',631.3123963
'0:01.773',738.277498
'0:01.777',914.8062986
'0:01.781',825.3048869
'0:01.785',660.7096079
'0:01.789',528.8587479
'0:01.793',431.4986757
'0:01.797',119.3352155
'0:01.801',-309.8349681
'0:01.805',-646.8841866
'0:01.809',-754.1403499
'0:01.813',-691.7076578
'0:01.816',-474.8668394
'0:01.820',-182.6410921
'0:01.824',319.2944669
'0:01.828',782.8099077
'0:01.832',971.4177606
'0:01.836',1019.151847
'0:01.840',1002.997933
'0:01.844',880.6065722
'0:01.848',368.9204529
'0:01.852',-700.0029106
'0:01.855',-2439.386442
'0:01.859',-4000.349274
'0:01.863',-4267.25267
'0:01.867',-2975.95832
'0:01.871',-980.1496056
'0:01.875',435.8645982
'0:01.879',-428.0059377
'0:01.883',-1855.226009
'0:01.887',-2730.884536
'0:01.891',-1805.308962
'0:01.895',-376.4880519
'0:01.898',570.0439503
'0:01.902',1943.854236
'0:01.906',2878.598248
'0:01.910',2753.296272
'0:01.914',2233.46043
'0:01.918',2012.108158
'0:01.922',1972.232733
'0:01.926',1728.759787
'0:01.930',1349.943243
'0:01.934',1230.025904
'0:01.938',1401.461129
'0:01.941',1548.738248
'0:01.945',1531.711151
'0:01.949',1455.453037
'0:01.953',1922.606747
'0:01.957',1989.696423
'0:01.961',1641.732398
'0:01.965',1141.106616
'0:01.969',451.72745
'0:01.973',-86.44526588
'0:01.977',-137.3810286
'0:01.980',52.68213173
'0:01.984',79.16872835
'0:01.988',-221.788864
'0:01.992',-670.605699
'0:01.996',-794.88896
'0:02.000',-496.4053905
'0:02.004',6.11229153
'0:02.008',491.3118142
'0:02.012',795.7621445
'0:02.016',1040.544867
'0:02.020',1146.782315
'0:02.023',1076.345432
'0:02.027',825.5959484
'0:02.031',352.7665396
'0:02.035',-75.38492884
'0:02.039',-351.8933551
'0:02.043',-462.4967256
'0:02.047',-529.1498094
'0:02.051',-633.9319498
'0:02.055',-527.2579096
'0:02.059',-300.2299386
'0:02.063',-26.05000437
'0:02.066',260.3545129
'0:02.070',314.4919522
'0:02.074',500.4802515
'0:02.078',825.5959484
'0:02.082',1037.052129
'0:02.086',1083.039846
'0:02.090',922.3738976
'0:02.094',877.6959572
'0:02.098',949.4426172
'0:02.102',1019.73397
'0:02.105',957.155747
'0:02.109',599.4411619
'0:02.113',128.5036528
'0:02.117',-219.6059027
'0:02.121',-492.1849987
'0:02.125',-730.709899
'0:02.129',-811.3339349
'0:02.133',-791.6872835
'0:02.137',-688.9425736
'0:02.141',-542.8296999
'0:02.145',-408.7958786
'0:02.148',-384.7833047
'0:02.152',-492.4760602
'0:02.156',-475.1579009
'0:02.160',-601.3330617
'0:02.164',-784.1196845
'0:02.168',-1123.060803
'0:02.172',-1371.045202
'0:02.176',-1401.461129
'0:02.180',-1509.881538
'0:02.184',-1960.881334
'0:02.188',-2162.004832
'0:02.191',-2397.182525
'0:02.195',-1861.19277
'0:02.199',-137.3810286
'0:02.203',2626.830049
'0:02.207',3598.102279
'0:02.211',3805.192537
'0:02.215',-539.0459004
'0:02.219',-3056.291294
'0:02.223',-2391.506825
'0:02.227',-1155.077568
'0:02.230',-324.3880432
'0:02.234',88.33716564
'0:02.238',383.473528
'0:02.242',420.7294001
'0:02.246',381.145036
'0:02.250',563.6405973
'0:02.254',715.8657624
'0:02.258',437.4654365
'0:02.262',-305.9056379
'0:02.266',-870.7104811
'0:02.270',-1342.666705
'0:02.273',-1201.501877
'0:02.277',-523.1830486
'0:02.281',-359.4609541
'0:02.285',-679.0464825
'0:02.289',-671.4788835
'0:02.293',-177.2564543
'0:02.297',-19.79218209
'0:02.301',-114.38717
'0:02.305',-263.2651279
'0:02.309',-232.5581395
'0:02.313',-288.0053555
'0:02.316',25.46788136
'0:02.320',-75.09386733
'0:02.324',-577.0294263
'0:02.328',-791.6872835
'0:02.332',-894.4319935
'0:02.336',-667.9861455
'0:02.340',-728.8179992
'0:02.344',-1031.37643
'0:02.348',-1298.279827
'0:02.352',-1390.691853
'0:02.355',-1119.568065
'0:02.359',-991.5010042
'0:02.363',-1126.262479
'0:02.367',-1191.460256
'0:02.371',-928.9227814
'0:02.375',-534.6799779
'0:02.379',-321.4774282
'0:02.383',-448.9623658
'0:02.387',-593.4744011
'0:02.391',-548.5053992
'0:02.395',-370.5212912
'0:02.398',-409.6690631
'0:02.402',-612.9755217
'0:02.406',-691.1255348
'0:02.410',-394.8249265
'0:02.414',180.7491923
'0:02.418',497.860698
'0:02.422',453.9104113
'0:02.426',251.6226679
'0:02.430',28.23296563
'0:02.434',-150.3332654
'0:02.438',-233.2857933
'0:02.441',-311.5813371
'0:02.445',-269.2318887
'0:02.449',-10.9148063
'0:02.453',300.2299386
'0:02.457',405.0120791
'0:02.461',360.9162616
'0:02.465',30.27039613
'0:02.469',-223.3897022
'0:02.473',-415.6358239
'0:02.477',-526.0936636
'0:02.480',-624.472451
'0:02.484',-852.082545
'0:02.488',-1101.23119
'0:02.492',-1173.996565
'0:02.496',-1015.368047
'0:02.500',-753.1216346
'0:02.504',-503.5363972
'0:02.508',-384.055651
'0:02.512',-305.6145764
'0:02.516',-180.0215386
'0:02.520',-459.5861106
'0:02.523',-1550.339087
'0:02.527',-3022.52816
'0:02.531',-3645.836365
'0:02.535',-2592.630323
'0:02.539',-1023.226708
'0:02.543',-818.6104724
'0:02.547',-1821.753937
'0:02.551',-2802.340134
'0:02.555',-2810.198795
'0:02.559',-2368.221905
'0:02.563',-309.1073144
'0:02.566',2448.55488
'0:02.570',2964.897983
'0:02.574',2328.637541
'0:02.578',2086.328841
'0:02.582',2122.129406
'0:02.586',2697.703525
'0:02.590',3353.610618
'0:02.594',3678.435253
'0:02.598',3325.377652
'0:02.602',923.2470821
'0:02.605',-507.4657275
'0:02.609',-671.769945
'0:02.613',202.5788049
'0:02.617',881.4797567
'0:02.621',720.231685
'0:02.625',-65.92543004
'0:02.629',-223.3897022
'0:02.633',25.46788136
'0:02.637',143.3477894
'0:02.641',115.9880083
'0:02.645',350.0014553
'0:02.648',541.8109847
'0:02.652',22.84832785
'0:02.656',-702.9135256
'0:02.660',-741.7702361
'0:02.664',-66.9441453
'0:02.668',47.00643246
'0:02.672',34.63631865
'0:02.676',312.0179294
'0:02.680',-163.7220945
'0:02.684',-672.4975987
'0:02.688',-337.1947493
'0:02.691',89.9380039
'0:02.695',7.71312978
'0:02.699',-207.9634427
'0:02.703',-187.7346683
'0:02.707',-57.04805425
'0:02.711',-58.06676951
'0:02.715',-112.7863318
'0:02.719',-34.92738016
'0:02.723',214.5123265
'0:02.727',411.2699013
'0:02.730',276.9450185
'0:02.734',204.1796432
'0:02.738',393.5151498
'0:02.742',174.49137
'0:02.746',-200.9779666
'0:02.750',-264.2838432
'0:02.754',-247.1112146
'0:02.758',-132.2874523
'0:02.762',84.26230462
'0:02.766',277.23608
'0:02.770',335.7394417
'0:02.773',288.0053555
'0:02.777',186.4248916
'0:02.781',180.1670693
'0:02.785',244.0550688
'0:02.789',142.1835434
'0:02.793',-99.83409494
'0:02.797',-310.9992141
'0:02.801',-414.0349856
'0:02.805',-423.3489536
'0:02.809',-405.3031406
'0:02.813',-435.8645982
'0:02.816',-451.4363885
'0:02.820',-423.2034229
'0:02.824',-374.5961522
'0:02.828',-265.1570277
'0:02.832',-249.7307681
'0:02.836',-201.8511512
'0:02.840',-31.43464214
'0:02.844',162.1212562
'0:02.848',253.0779754
'0:02.852',313.1821754
'0:02.855',333.847542
'0:02.859',157.3187415
'0:02.863',-124.4287918
'0:02.867',-681.083913
'0:02.871',-1028.902407
'0:02.875',-866.3445586
'0:02.879',-190.2086911
'0:02.883',447.652589
'0:02.887',433.9726984
'0:02.891',599.4411619
'0:02.895',779.4627005
'0:02.898',1085.222808
'0:02.902',1462.147452
'0:02.906',1322.728993
'0:02.910',1045.347382
'0:02.914',-2.03743051
'0:02.918',-396.7168263
'0:02.922',-113.0773933
'0:02.926',452.309573
'0:02.930',578.4847338
'0:02.934',221.206741
'0:02.938',-251.6226679
'0:02.941',-400.7916873
'0:02.945',-385.0743662
'0:02.949',-232.849201
'0:02.953',314.4919522
'0:02.957',714.8470472
'0:02.961',548.7964607
'0:02.965',329.0450272
'0:02.969',577.9026108
'0:02.973',728.381407
'0:02.977',368.6293914
'0:02.980',266.4668044
'0:02.984',223.0986407
'0:02.988',124.1377303
'0:02.992',116.5701313
'0:02.996',295.2818931
'0:03.000',313.4732369
'0:03.004',354.9495008
'0:03.008',364.4089996
'0:03.012',224.117356
'0:03.016',-44.09581745
'0:03.020',-276.7994877
'0:03.023',-467.0081788
'0:03.027',-471.6651629
'0:03.031',-370.8123527
'0:03.035',-249.7307681
'0:03.039',-223.6807638
'0:03.043',-66.50755305
'0:03.047',298.0469773
'0:03.051',731.0009605
'0:03.055',1083.039846
'0:03.059',852.082545
'0:03.063',857.1761213
'0:03.066',804.9305818
'0:03.070',703.7867101
'0:03.074',753.1216346
'0:03.078',989.7546352
'0:03.082',1233.518642
'0:03.086',1231.626743
'0:03.090',1061.501295
'0:03.094',675.262683
'0:03.098',69.41816806
'0:03.102',-111.7676165
'0:03.105',-153.5349419
'0:03.109',-75.38492884
'0:03.113',121.2271153
'0:03.117',339.5232413
'0:03.121',406.1763251
'0:03.125',452.7461653
'0:03.129',9.60502954
'0:03.133',-199.0860669
'0:03.137',-263.5561894
'0:03.141',-533.9523241
'0:03.145',-786.3026458
'0:03.148',-975.4926216
'0:03.152',-960.648485
'0:03.156',-868.2364584
'0:03.160',-739.2962133
'0:03.164',-597.2582007
'0:03.168',-485.3450534
'0:03.172',-410.2511861
'0:03.176',-664.6389382
'0:03.180',-1672.730448
'0:03.184',-3074.046046
'0:03.188',-3923.217976
'0:03.191',-2971.301336
'0:03.195',-841.604331
'0:03.199',2653.462177
'0:03.203',3574.089705
'0:03.207',2315.685304
'0:03.211',-114.2416393
'0:03.215',-3415.170125
'0:03.219',-4574.031493
'0:03.223',-4716.651628
'0:03.227',-2635.998486
'0:03.230',1130.773933
'0:03.234',3169.223157
'0:03.238',3629.682452
'0:03.242',3086.707221
'0:03.246',2255.581104
'0:03.250',1403.935152
'0:03.254',449.5444888
'0:03.258',76.11258259
'0:03.262',379.9807899
'0:03.266',995.1392729
'0:03.270',1576.971214
'0:03.273',1504.787962
'0:03.277',1208.487353
'0:03.281',898.3613238
'0:03.285',508.921035
'0:03.289',164.013156
'0:03.293',91.24778066
'0:03.297',-409.9601246
'0:03.301',-941.5839567
'0:03.305',-1142.998516
'0:03.309',-764.9096254
'0:03.313',-424.2221381
'0:03.316',-420.7294001
'0:03.320',-546.6134994
'0:03.324',-814.2445499
'0:03.328',-980.5861979
'0:03.332',-1009.546817
'0:03.336',-802.4565591
'0:03.340',-529.8774631
'0:03.344',-251.6226679
'0:03.348',-205.0528277
'0:03.352',-348.4006171
'0:03.355',-571.2081963
'0:03.359',-730.4188375
'0:03.363',-739.5872748
'0:03.367',-730.4188375
'0:03.371',-751.2297348
'0:03.375',-762.2900719
'0:03.379',-677.8822365
'0:03.383',-396.7168263
'0:03.387',-205.6349507
'0:03.391',-506.1559508
'0:03.395',-257.2983671
'0:03.398',188.8989143
'0:03.402',471.3741014
'0:03.406',591.1459091
'0:03.410',669.2959222
'0:03.414',433.9726984
'0:03.418',29.83380388
'0:03.422',-42.93157144
'0:03.426',-46.56984021
'0:03.430',-315.5106674
'0:03.434',-721.1048695
'0:03.438',-1117.676165
'0:03.441',-1310.64994
'0:03.445',-1319.236255
'0:03.449',-1315.161394
'0:03.453',-1277.468929
'0:03.457',-1271.065576
'0:03.461',-1227.551882
'0:03.465',-1199.027855
'0:03.469',-1116.220857
'0:03.473',-928.9227814
'0:03.477',-801.8744361
'0:03.480',-562.7674128
'0:03.484',-273.743342
'0:03.488',-76.98576709
'0:03.492',86.15420438
'0:03.496',235.4687546
'0:03.500',314.4919522
'0:03.504',304.4503304
'0:03.508',281.6020025
'0:03.512',182.9321536
'0:03.516',-517.5073493
'0:03.520',-1604.767587
'0:03.523',-1966.848095
'0:03.527',-1004.889833
'0:03.531',119.3352155
'0:03.535',430.4799604
'0:03.539',211.7472422
'0:03.543',352.4754781
'0:03.547',680.3562593
'0:03.551',1133.830078
'0:03.555',1494.164217
'0:03.559',1367.552464
'0:03.563',1181.273103
'0:03.566',972.8730681
'0:03.570',751.5207963
'0:03.574',664.3478767
'0:03.578',816.7185726
'0:03.582',922.9560206
'0:03.586',547.9232762
'0:03.590',-125.4475071
'0:03.594',59.23101551
'0:03.598',843.2051693
'0:03.602',902.1451233
'0:03.605',542.5386384
'0:03.609',-148.7324272
'0:03.613',-482.1433769
'0:03.617',-244.6371918
'0:03.621',24.59469686
'0:03.625',349.2738016
'0:03.629',468.7545478
'0:03.633',322.3506127
'0:03.637',472.2472859
'0:03.641',579.2123876
'0:03.645',884.9724947
'0:03.648',585.4702099
'0:03.652',-17.31815933
'0:03.656',-168.9612015
'0:03.660',-255.9885904
'0:03.664',-392.6419653
'0:03.668',-353.3486626
'0:03.672',-381.8726897
'0:03.676',-436.3011904
'0:03.680',-310.1260296
'0:03.684',-209.8553424
'0:03.688',16.29944407
'0:03.691',197.1941671
'0:03.695',124.7198533
'0:03.699',50.79023198
'0:03.703',229.7930553
'0:03.707',407.1950403
'0:03.711',339.5232413
'0:03.715',137.3810286
'0:03.719',327.444189
'0:03.723',182.9321536
'0:03.727',243.9095381
'0:03.730',317.6936287
'0:03.734',483.0165614
'0:03.738',561.457636
'0:03.742',572.8090346
'0:03.746',645.5744099
'0:03.750',721.8325232
'0:03.754',759.0883954
'0:03.758',608.9006607
'0:03.762',683.8489973
'0:03.766',699.7118491
'0:03.770',619.0878133
'0:03.773',839.4213697
'0:03.777',827.4878482
'0:03.781',775.9699625
'0:03.785',629.7115581
'0:03.789',423.0578921
'0:03.793',285.6768635
'0:03.797',68.54498356
'0:03.801',-154.4081264
'0:03.805',-430.9165527
'0:03.809',-592.7467474
'0:03.813',-456.5299648
'0:03.816',-364.4089996
'0:03.820',-177.8385773
'0:03.824',-117.1522543
'0:03.828',-95.32264167
'0:03.832',-194.2835521
'0:03.836',-483.0165614
'0:03.840',-710.0445324
'0:03.844',-788.485607
'0:03.848',-854.9931601
'0:03.852',-871.1470734
'0:03.855',-1040.544867
'0:03.859',-1492.417848
'0:03.863',-2338.388101
'0:03.867',-3056.873417
'0:03.871',-3074.046046
'0:03.875',-2312.192566
'0:03.879',-1240.79518
'0:03.883',-4.65698402
'0:03.887',1019.442908
'0:03.891',958.0289315
'0:03.895',-107.983817
'0:03.898',-949.1515557
'0:03.902',-607.7364147
'0:03.906',1439.735716
'0:03.910',2279.011555
'0:03.914',2680.967488
'0:03.918',3459.848066
'0:03.922',3276.770382
'0:03.926',2541.549029
'0:03.930',2126.495328
'0:03.934',1634.164799
'0:03.938',1226.824228
'0:03.941',1120.877841
'0:03.945',701.0216259
'0:03.949',641.2084874
'0:03.953',1270.192392
'0:03.957',1752.772361
'0:03.961',1265.389877
'0:03.965',667.4040225
'0:03.969',264.1383124
'0:03.973',169.3977938
'0:03.977',-59.95866927
'0:03.980',-803.4752743
'0:03.984',-1359.402742
'0:03.988',-1152.458014
'0:03.992',-533.3702011
'0:03.996',-45.1145327
'0:04.000',263.2651279
'0:04.004',372.4131909
'0:04.008',199.6681899
'0:04.012',-37.83799517
'0:04.016',-52.68213173
'0:04.020',130.6866141
'0:04.023',385.9475507
'0:04.027',380.8539744
'0:04.031',203.4519894
'0:04.035',0.8731845
'0:04.039',-114.969293
'0:04.043',-104.491079
'0:04.047',-77.71342085
'0:04.051',-152.9528189
'0:04.055',-180.0215386
'0:04.059',-112.4952703
'0:04.063',-239.2525541
'0:04.066',-175.655616
'0:04.070',259.1902669
'0:04.074',632.3311116
'0:04.078',752.1029194
'0:04.082',907.0931688
'0:04.086',988.1537969
'0:04.090',906.8021073
'0:04.094',721.1048695
'0:04.098',505.8648893
'0:04.102',472.2472859
'0:04.105',438.1930902
'0:04.109',374.8872137
'0:04.113',405.3031406
'0:04.117',368.6293914
'0:04.121',297.0282621
'0:04.125',136.0712519
'0:04.129',-70.43688331
'0:04.133',-173.4726548
'0:04.137',-307.2154146
'0:04.141',-292.0802166
'0:04.145',-322.6416742
'0:04.148',-581.3953488
'0:04.152',-801.4378438
'0:04.156',-801.4378438
'0:04.160',-618.069098
'0:04.164',-535.2621009
'0:04.168',-624.472451
'0:04.172',-736.6766598
'0:04.176',-751.8118579
'0:04.180',-677.8822365
'0:04.184',-661.4372617
'0:04.188',-913.2054603
'0:04.191',-1392.00163
'0:04.195',-1927.991385
'0:04.199',-2650.842623
'0:04.203',-2945.251332
'0:04.207',-1749.861746
'0:04.211',373.5774369
'0:04.215',2378.84565
'0:04.219',1977.035248
'0:04.223',829.3797479
'0:04.227',414.4715778
'0:04.230',402.3925255
'0:04.234',428.7335914
'0:04.238',567.4243968
'0:04.242',278.1092645
'0:04.246',86.15420438
'0:04.250',281.6020025
'0:04.254',651.9777629
'0:04.258',1749.861746
'0:04.262',3102.570073
'0:04.266',2098.407894
'0:04.270',-38.12905667
'0:04.273',-466.5715866
'0:04.277',-606.426638
'0:04.281',-435.8645982
'0:04.285',246.2380301
'0:04.289',450.4176733
'0:04.293',29.83380388
'0:04.297',-161.684664
'0:04.301',184.2419303
'0:04.305',443.577728
'0:04.309',677.8822365
'0:04.313',372.4131909
'0:04.316',-40.31201793
'0:04.320',68.3994528
'0:04.324',348.6916786
'0:04.328',366.7374916
'0:04.332',161.3936025
'0:04.336',6.83994528
'0:04.340',-31.72570364
'0:04.344',34.34525715
'0:04.348',-5.53016852
'0:04.352',-24.74022761
'0:04.355',-124.1377303
'0:04.359',-160.2293565
'0:04.363',-14.40754431
'0:04.367',133.3061676
'0:04.371',52.68213173
'0:04.375',8.44078354
'0:04.379',43.80475594
'0:04.383',40.02095643
'0:04.387',31.43464214
'0:04.391',-47.58855546
'0:04.395',-306.3422301
'0:04.398',-543.4118229
'0:04.402',-625.636697
'0:04.406',-531.1872399
'0:04.410',-476.4676776
'0:04.414',-281.0198795
'0:04.418',-52.10000873
'0:04.422',249.0031144
'0:04.426',668.1316762
'0:04.430',972.2909451
'0:04.434',1057.280903
'0:04.438',1066.594872
'0:04.441',926.4487586
'0:04.445',688.3604506
'0:04.449',381.2905667
'0:04.453',130.6866141
'0:04.457',185.5517071
'0:04.461',55.1561545
'0:04.465',-577.6115493
'0:04.469',-1314.142678
'0:04.473',-1771.98242
'0:04.477',-2151.235556
'0:04.480',-2361.236429
'0:04.484',-2297.639491
'0:04.488',-2009.197543
'0:04.492',-1180.69098
'0:04.496',-385.0743662
'0:04.500',-78.00448235
'0:04.504',342.7249178
'0:04.508',844.2238845
'0:04.512',1337.573129
'0:04.516',1667.782402
'0:04.520',1869.488023
'0:04.523',1764.705882
'0:04.527',1479.465611
'0:04.531',1258.404401
'0:04.535',960.9395465
'0:04.539',426.6961609
'0:04.543',-166.7782402
'0:04.547',-814.5356114
'0:04.551',-1401.170067
'0:04.555',-1559.798585
'0:04.559',-899.2345083
'0:04.563',328.4629042
'0:04.566',1236.429258
'0:04.570',1015.95017
'0:04.574',140.8737666
'0:04.578',-113.6595163
'0:04.582',1212.707745
'0:04.586',2982.652735
'0:04.590',1100.649067
'0:04.594',-2479.407399
'0:04.598',-2276.828594
'0:04.602',267.7765812
'0:04.605',2404.604593
'0:04.609',3294.816195
'0:04.613',4174.258521
'0:04.617',4087.813255
'0:04.621',1861.629362
'0:04.625',-199.9592514
'0:04.629',-831.8537707
'0:04.633',-184.8240533
'0:04.637',90.2290654
'0:04.641',-734.4936985
'0:04.645',-1650.900835
'0:04.648',-1617.719824
'0:04.652',-1084.495154
'0:04.656',-887.8831097
'0:04.660',-1106.761359
'0:04.664',-1505.079023
'0:04.668',-1435.224263
'0:04.672',-986.1163664
'0:04.676',-733.9115755
'0:04.680',-695.9280496
'0:04.684',-785.4294613
'0:04.688',-688.3604506
'0:04.691',-455.5112495
'0:04.695',-404.2844253
'0:04.699',-609.4827837
'0:04.703',-937.2180342
'0:04.707',-1086.823646
'0:04.711',-1013.476148
'0:04.715',-960.5029543
'0:04.719',-1104.723928
'0:04.723',-1326.803854
'0:04.727',-1413.103589
'0:04.730',-1169.921704
'0:04.734',-778.4439852
'0:04.738',-574.8464651
'0:04.742',-505.8648893
'0:04.746',-526.0936636
'0:04.750',-463.3699101
'0:04.754',-331.51905
'0:04.758',-282.9117793
'0:04.762',-280.5832873
'0:04.766',35.94609541
'0:04.770',533.9523241
'0:04.773',987.8627354
'0:04.777',994.1205577
'0:04.781',965.3054691
'0:04.785',1006.19961
'0:04.789',913.2054603
'0:04.793',680.7928515
'0:04.797',144.6575661
'0:04.801',-463.0788486
'0:04.805',-979.8585441
'0:04.809',-1254.766132
'0:04.813',-1128.590971
'0:04.816',-1148.092092
'0:04.820',-1289.839043
'0:04.824',-1170.649358
'0:04.828',-736.6766598
'0:04.832',-459.7316413
'0:04.836',-481.5612539
'0:04.840',-512.1227115
'0:04.844',-520.7090258
'0:04.848',-502.9542742
'0:04.852',-283.2028408
'0:04.855',-40.60307943
'0:04.859',149.4600809
'0:04.863',105.073202
'0:04.867',-314.4919522
'0:04.871',-1097.883983
'0:04.875',-2070.61152
'0:04.879',-2740.635096
'0:04.883',-2943.359432
'0:04.887',-2653.753238
'0:04.891',-1271.211107
'0:04.895',181.0402538
'0:04.898',1154.786506
'0:04.902',1273.68513
'0:04.906',298.3380388
'0:04.910',21.68408185
'0:04.914',253.2235061
'0:04.918',320.8953052
'0:04.922',-60.24973077
'0:04.926',-319.2944669
'0:04.930',-189.3355066
'0:04.934',481.4157231
'0:04.938',1781.587449
'0:04.941',2842.506622
'0:04.945',1909.945572
'0:04.949',521.2911488
'0:04.953',-373.2863754
'0:04.957',-1133.539017
'0:04.961',-1517.449137
'0:04.965',-1138.632593
'0:04.969',-303.4316151
'0:04.973',-157.02768
'0:04.977',-411.2699013
'0:04.980',-164.3042175
'0:04.984',402.9746485
'0:04.988',585.4702099
'0:04.992',421.7481154
'0:04.996',307.5064761
'0:05.000',152.5162267
'0:05.004',229.7930553
'0:05.008',576.5928341
'0:05.012',644.9922869
'0:05.016',322.0595512
'0:05.020',308.8162529
'0:05.023',473.5570626
'0:05.027',508.921035
'0:05.031',425.2408534
'0:05.035',236.3419391
'0:05.039',201.8511512
'0:05.043',301.8307768
'0:05.047',274.0344035
'0:05.051',210.1464039
'0:05.055',153.5349419
'0:05.059',37.11034142
'0:05.063',91.53884216
'0:05.066',192.3916524
'0:05.070',283.4939023
'0:05.074',367.3196146
'0:05.078',439.0662747
'0:05.082',402.3925255
'0:05.086',471.6651629
'0:05.090',785.7205228
'0:05.094',762.5811334
'0:05.098',375.4693367
'0:05.102',369.5025759
'0:05.105',341.415141
'0:05.109',420.7294001
'0:05.113',491.3118142
'0:05.117',612.1023372
'0:05.121',788.485607
'0:05.125',1020.752685
'0:05.129',1165.26472
'0:05.133',1011.147656
'0:05.137',634.2230113
'0:05.141',313.1821754
'0:05.145',197.7762901
'0:05.148',104.7821405
'0:05.152',11.93352155
'0:05.156',-18.48240533
'0:05.160',-96.05029543
'0:05.164',-224.9905405
'0:05.168',-405.8852636
'0:05.172',-557.0917135
'0:05.176',-651.5411707
'0:05.180',-777.1342085
'0:05.184',-830.6895247
'0:05.188',-836.2196932
'0:05.191',-841.022208
'0:05.195',-689.2336351
'0:05.199',-555.4908752
'0:05.203',-664.9299997
'0:05.207',-1448.613092
'0:05.211',-2984.544634
'0:05.215',-3900.66071
'0:05.219',-3412.11398
'0:05.223',-2041.50537
'0:05.227',-460.3137643
'0:05.230',925.1389819
'0:05.234',1420.962249
'0:05.238',1454.870914
'0:05.242',-477.3408621
'0:05.246',-131.1232063
'0:05.250',1735.017609
'0:05.254',1177.925896
'0:05.258',552.5802602
'0:05.262',1627.906977
'0:05.266',3163.256396
'0:05.270',3355.502518
'0:05.273',3570.596967
'0:05.277',3990.889775
'0:05.281',3103.443258
'0:05.285',1533.020927
'0:05.289',322.6416742
'0:05.293',-495.0956137
'0:05.297',-257.8804902
'0:05.301',427.4238147
'0:05.305',493.785837
'0:05.309',5.82123003
'0:05.313',-353.0576011
'0:05.316',-595.0752394
'0:05.320',-952.3532322
'0:05.324',-1357.801904
'0:05.328',-1385.889338
'0:05.332',-1153.47673
'0:05.336',-812.4981809
'0:05.340',-620.5431208
'0:05.344',-743.3710743
'0:05.348',-921.6462439
'0:05.352',-871.0015426
'0:05.355',-724.5976075
'0:05.359',-737.2587828
'0:05.363',-863.4339436
'0:05.367',-900.8353465
'0:05.371',-715.8657624
'0:05.375',-557.382775
'0:05.379',-593.4744011
'0:05.383',-699.4207876
'0:05.387',-790.0864453
'0:05.391',-662.6015077
'0:05.395',-420.1472771
'0:05.398',-185.8427686
'0:05.402',-78.00448235
'0:05.406',-224.699479
'0:05.410',-423.2034229
'0:05.414',-600.3143464
'0:05.418',-663.620223
'0:05.422',-663.0381
'0:05.426',-557.382775
'0:05.430',-551.7070757
'0:05.434',-562.7674128
'0:05.438',-563.9316588
'0:05.441',-552.8713217
'0:05.445',-651.9777629
'0:05.449',-653.4330704
'0:05.453',-495.9687982
'0:05.457',-289.8972553
'0:05.461',-122.2458305
'0:05.465',-65.34330704
'0:05.469',-132.2874523
'0:05.473',-263.5561894
'0:05.477',-475.7400239
'0:05.480',-566.8422738
'0:05.484',-619.0878133
'0:05.488',-671.187822
'0:05.492',-589.2540094
'0:05.496',-698.6931339
'0:05.500',-904.619146
'0:05.504',-908.4029455
'0:05.508',-720.5227465
'0:05.512',-472.9749396
'0:05.516',-307.2154146
'0:05.520',-278.6913875
'0:05.523',-293.6810548
'0:05.527',-283.2028408
'0:05.531',-103.326833
'0:05.535',448.9623658
'0:05.539',1094.682306
'0:05.543',1121.896557
'0:05.547',173.1815933
'0:05.551',-1184.183718
'0:05.555',-1656.576535
'0:05.559',-1072.270571
'0:05.563',-113.6595163
'0:05.566',-58.93995401
'0:05.570',127.3394068
'0:05.574',377.5067672
'0:05.578',592.7467474
'0:05.582',1279.65189
'0:05.586',1307.884856
'0:05.590',969.6713916
'0:05.594',861.2509823
'0:05.598',882.2074104
'0:05.602',869.5462351
'0:05.605',875.2219344
'0:05.609',770.8763862
'0:05.613',535.2621009
'0:05.617',18.19134383
'0:05.621',-302.4128999
'0:05.625',-2.32849201
'0:05.629',535.8442239
'0:05.633',799.9825363
'0:05.637',659.2543004
'0:05.641',217.13188
'0:05.645',57.04805425
'0:05.648',165.177402
'0:05.652',268.9408272
'0:05.656',154.4081264
'0:05.660',-65.92543004
'0:05.664',-194.7201444
'0:05.668',79.16872835
'0:05.672',177.8385773
'0:05.676',210.7285269
'0:05.680',94.74051867
'0:05.684',175.073493
'0:05.688',367.9017376
'0:05.691',488.8377914
'0:05.695',409.3780016
'0:05.699',200.9779666
'0:05.703',-75.38492884
'0:05.707',-205.3438892
'0:05.711',-116.5701313
'0:05.715',-52.39107023
'0:05.719',20.37430509
'0:05.723',106.0919172
'0:05.727',195.5933289
'0:05.730',348.4006171
'0:05.734',384.055651
'0:05.738',292.0802166
'0:05.742',205.6349507
'0:05.746',259.7723899
'0:05.750',434.7003522
'0:05.754',445.1785662
'0:05.758',450.1266118
'0:05.762',345.7810635
'0:05.766',330.354804
'0:05.770',626.3643508
'0:05.773',844.2238845
'0:05.777',962.5403848
'0:05.781',1140.524493
'0:05.785',1185.347964
'0:05.789',1042.727828
'0:05.793',939.6920569
'0:05.797',798.3816981
'0:05.801',406.1763251
'0:05.805',-13.38882906
'0:05.809',-250.6039526
'0:05.813',-319.5855284
'0:05.816',-217.13188
'0:05.820',-379.9807899
'0:05.824',-717.3210699
'0:05.828',-1563.727916
'0:05.832',-2261.547865
'0:05.836',-2588.992054
'0:05.840',-2585.353785
'0:05.844',-2293.273569
'0:05.848',-1747.678785
'0:05.852',-1068.341241
'0:05.855',-403.9933638
'0:05.859',245.5103763
'0:05.863',907.529761
'0:05.867',1591.233228
'0:05.871',2090.840295
'0:05.875',2035.829671
'0:05.879',1574.642722
'0:05.883',901.708531
'0:05.887',158.6285182
'0:05.891',-736.9677213
'0:05.895',-1710.131851
'0:05.898',-1789.44611
'0:05.902',-1172.832319
'0:05.906',-596.5305469
'0:05.910',-234.7411008
'0:05.914',-214.221265
'0:05.918',-131.7053293
'0:05.922',519.9813721
'0:05.926',1420.380126
'0:05.930',-689.2336351
'0:05.934',-3252.757808
'0:05.938',-2451.319964
'0:05.941',1094.100183
'0:05.945',2523.066624
'0:05.949',2177.722153
'0:05.953',1916.348925
'0:05.957',1875.454784
'0:05.961',1399.132637
'0:05.965',636.1149111
'0:05.969',694.0361498
'0:05.973',1316.907763
'0:05.977',1208.196292
'0:05.980',508.921035
'0:05.984',-44.38687895
'0:05.988',117.879908
'0:05.992',793.8702448
'0:05.996',977.9666444
'0:06.000',412.1430858
'0:06.004',-122.8279536
'0:06.008',268.0676427
'0:06.012',1190.44154
'0:06.016',1423.290741
'0:06.020',1221.876182
'0:06.023',870.7104811
'0:06.027',934.8895422
'0:06.031',1436.53404
'0:06.035',1606.659487
'0:06.039',945.3677562
'0:06.043',59.95866927
'0:06.047',-368.3383299
'0:06.051',-244.6371918
'0:06.055',35.50950316
'0:06.059',112.4952703
'0:06.063',-44.8234712
'0:06.066',-233.5768548
'0:06.070',-230.9573013
'0:06.074',-244.0550688
'0:06.078',-376.4880519
'0:06.082',-521.0000873
'0:06.086',-574.4098728
'0:06.090',-337.34028
'0:06.094',-340.6874873
'0:06.098',-122.2458305
'0:06.102',-323.0782664
'0:06.105',-658.9632389
'0:06.109',-41.33073318
'0:06.113',489.1288529
'0:06.117',892.8311552
'0:06.121',1052.914981
'0:06.125',1234.391827
'0:06.129',1108.216666
'0:06.133',915.6794831
'0:06.137',646.3020636
'0:06.141',341.997264
'0:06.145',126.9028146
'0:06.148',10.9148063
'0:06.152',-9.02290654
'0:06.156',-37.83799517
'0:06.160',-103.908956
'0:06.164',-212.9114882
'0:06.168',-355.6771546
'0:06.172',-372.7042524
'0:06.176',-461.1869488
'0:06.180',-588.6718864
'0:06.184',-814.5356114
'0:06.188',-862.2696976
'0:06.191',-673.516314
'0:06.195',-517.7984108
'0:06.199',-534.2433856
'0:06.203',-610.2104375
'0:06.207',-628.2562506
'0:06.211',-594.9297087
'0:06.215',-576.3017726
'0:06.219',-748.3191198
'0:06.223',-900.2532235
'0:06.227',-853.6833833
'0:06.230',-714.2649242
'0:06.234',-363.2447536
'0:06.238',-91.53884216
'0:06.242',567.1333353
'0:06.246',855.8663446
'0:06.250',941.8750182
'0:06.254',900.1076928
'0:06.258',1060.773641
'0:06.262',1154.786506
'0:06.266',473.5570626
'0:06.270',-363.8268766
'0:06.273',-662.6015077
'0:06.277',-420.7294001
'0:06.281',328.026312
'0:06.285',1282.271444
'0:06.289',2348.866315
'0:06.293',2685.624472
'0:06.297',1258.840993
'0:06.301',-99.39750269
'0:06.305',-740.7515208
'0:06.309',-949.8792095
'0:06.313',-570.3350118
'0:06.316',-9.89609104
'0:06.320',220.9156795
'0:06.324',439.3573362
'0:06.328',720.231685
'0:06.332',599.7322234
'0:06.336',309.8349681
'0:06.340',194.2835521
'0:06.344',284.5126175
'0:06.348',108.56594
'0:06.352',358.7333004
'0:06.355',788.9221993
'0:06.359',874.6398114
'0:06.363',630.7302733
'0:06.367',234.8866316
'0:06.371',71.89219082
'0:06.375',7.42206828
'0:06.379',-227.610094
'0:06.383',-287.5687633
'0:06.387',-62.72375353
'0:06.391',187.2980761
'0:06.395',376.1969904
'0:06.398',405.8852636
'0:06.402',322.7872049
'0:06.406',345.1989405
'0:06.410',419.4196234
'0:06.414',543.1207614
'0:06.418',697.0922956
'0:06.422',640.6263644
'0:06.426',441.3947667
'0:06.430',298.3380388
'0:06.434',183.5142766
'0:06.438',195.0112059
'0:06.441',184.8240533
'0:06.445',85.57208138
'0:06.449',252.2047909
'0:06.453',526.6757866
'0:06.457',650.6679862
'0:06.461',471.9562244
'0:06.465',201.9966819
'0:06.469',-27.06871962
'0:06.473',-393.951742
'0:06.477',-695.4914573
'0:06.480',-529.1498094
'0:06.484',-251.9137294
'0:06.488',-247.8388684
'0:06.492',-464.3886253
'0:06.496',-498.5883517
'0:06.500',-345.7810635
'0:06.504',-179.7304771
'0:06.508',-13.67989056
'0:06.512',150.6243269
'0:06.516',297.7559158
'0:06.520',410.3967168
'0:06.523',537.4450621
'0:06.527',1316.034578
'0:06.531',2035.102017
'0:06.535',2058.241406
'0:06.539',1933.376022
'0:06.543',1913.147248
'0:06.547',1565.474285
'0:06.551',684.8677126
'0:06.555',-465.1162791
'0:06.559',-1130.046279
'0:06.563',-1600.256134
'0:06.566',-2259.364904
'0:06.570',-3208.370929
'0:06.574',-4419.041243
'0:06.578',-4303.489827
'0:06.582',-4419.914428
'0:06.586',-2914.398812
'0:06.590',-679.0464825
'0:06.594',574.7009343
'0:06.598',-377.0701749
'0:06.602',-2965.480106
'0:06.605',-3910.556801
'0:06.609',-1949.238874
'0:06.613',309.1073144
'0:06.617',460.8958873
'0:06.621',1211.980091
'0:06.625',3325.377652
'0:06.629',3323.776814
'0:06.633',1080.129231
'0:06.637',136.0712519
'0:06.641',664.6389382
'0:06.645',-166.1961172
'0:06.648',-446.3428122
'0:06.652',280.0011643
'0:06.656',1401.75219
'0:06.660',1987.367931
'0:06.664',1860.028524
'0:06.668',1617.719824
'0:06.672',560.875513
'0:06.676',-234.4500393
'0:06.680',-745.2629741
'0:06.684',-1102.249905
'0:06.688',-1522.251652
'0:06.691',-1778.094711
'0:06.695',-1796.431586
'0:06.699',-2047.181069
'0:06.703',-3259.306692
'0:06.707',-4396.192916
'0:06.711',-4802.22371
'0:06.715',3146.374829
'0:06.719',3347.934919
'0:06.723',1339.75609
'0:06.727',-379.9807899
'0:06.730',-1284.454405
'0:06.734',-2026.079111
'0:06.738',-1671.420671
'0:06.742',-1047.239282
'0:06.746',-608.3185377
'0:06.750',-1071.833979
'0:06.754',-1552.667579
'0:06.758',-1447.012254
'0:06.762',-689.2336351
'0:06.766',-96.05029543
'0:06.770',-271.1237885
'0:06.773',-873.6210961
'0:06.777',-1162.936228
'0:06.781',-762.8721949
'0:06.785',-267.3399889
'0:06.789',-294.5542393
'0:06.793',-726.635038
'0:06.797',-965.5965306
'0:06.801',-700.2939721
'0:06.805',-282.1841255
'0:06.809',-255.4064674
'0:06.813',-617.7780365
'0:06.816',-855.5752831
'0:06.820',-685.1587741
'0:06.824',-313.9098292
'0:06.828',-209.5642809
'0:06.832',-484.0352767
'0:06.836',-721.1048695
'0:06.840',-605.6989842
'0:06.844',-311.7268679
'0:06.848',-196.6120441
'0:06.852',-413.4528626
'0:06.855',-627.965189
'0:06.859',-551.1249527
'0:06.863',-298.3380388
'0:06.867',-184.2419303
'0:06.871',-322.7872049
'0:06.875',-512.1227115
'0:06.879',-490.7296912
'0:06.883',-286.6955788
'0:06.887',-168.9612015
'0:06.891',-290.7704398
'0:06.895',-451.72745
'0:06.898',-489.4199144
'0:06.902',-359.7520156
'0:06.906',-245.5103763
'0:06.910',-285.6768635
'0:06.914',-406.4673866
'0:06.918',-349.5648631
'0:06.922',-67.8173298
'0:06.926',117.4433158
'0:06.930',115.9880083
'0:06.934',-91.82990366
'0:06.938',-167.505894
'0:06.941',-256.2796519
'0:06.945',-201.2690282
'0:06.949',-258.4626132
'0:06.953',-355.9682161
'0:06.957',-386.2386122
'0:06.961',-377.3612364
'0:06.965',-419.8562156
'0:06.969',-660.1274849
'0:06.973',-1113.310242
'0:06.977',-3515.877405
'0:06.980',-543.8484152
'0:06.984',3442.820968
'0:06.988',3375.731292
'0:06.992',1478.010304
'0:06.996',3016.124807
'0:07.000',3869.66266
'0:07.004',3306.167593
'0:07.008',3370.055593
'0:07.012',2445.062142
'0:07.016',1471.024828
'0:07.020',568.443112
'0:07.023',385.3654277
'0:07.027',908.9850685
'0:07.031',1117.385103
'0:07.035',1172.395727
'0:07.039',631.7489886
'0:07.043',-105.8008557
'0:07.047',-542.2475769
'0:07.051',-92.26649591
'0:07.055',328.026312
'0:07.059',72.32878307
'0:07.063',-1182.873941
'0:07.066',-1876.182437
'0:07.070',-1816.951422
'0:07.074',-1666.181564
'0:07.078',-1733.125709
'0:07.082',-2081.962919
'0:07.086',-2315.103181
'0:07.090',-2250.196467
'0:07.094',-2031.027156
'0:07.098',-2038.303694
'0:07.102',-2606.892336
'0:07.105',-3131.967285
'0:07.109',-3091.364205
'0:07.113',-2695.811625
'0:07.117',-2356.724976
'0:07.121',-2227.784731
'0:07.125',-1946.619321
'0:07.129',-1400.442413
'0:07.133',-711.0632477
'0:07.137',-328.1718427
'0:07.141',-608.6095992
'0:07.145',-1284.454405
'0:07.148',-1365.369503
'0:07.152',-1189.277294
'0:07.156',-1365.078441
'0:07.160',-1663.562011
'0:07.164',-1845.038857
'0:07.168',-1694.560061
'0:07.172',-1429.548564
'0:07.176',-1576.24356
'0:07.180',-1963.355357
'0:07.184',-2325.144803
'0:07.188',-2588.2644
'0:07.191',-2976.249381
'0:07.195',-3169.223157
'0:07.199',-2838.431761
'0:07.203',-3278.080158
'0:07.207',-3675.233577
'0:07.211',-3319.11983
'0:07.215',-2660.01106
'0:07.219',-2182.233606
'0:07.223',-1569.985738
'0:07.227',-1019.151847
'0:07.230',-786.3026458
'0:07.234',-603.5160229
'0:07.238',-401.8104025
'0:07.242',-404.8665483
'0:07.246',-555.4908752
'0:07.250',-555.7819367
'0:07.254',-370.0846989
'0:07.258',150.0422039
'0:07.262',990.6278197
'0:07.266',1814.477399
'0:07.270',2296.620776
'0:07.273',2121.547283
'0:07.277',2020.985534
'0:07.281',1960.881334
'0:07.285',1791.046948
'0:07.289',1364.78738
'0:07.293',1175.015281
'0:07.297',1459.964491
'0:07.301',1748.406438
'0:07.305',1698.634922
'0:07.309',1512.064499
'0:07.313',1499.112262
'0:07.316',1661.087988
'0:07.320',1984.893908
'0:07.324',2867.828972
'0:07.328',3727.042524
'0:07.332',3866.606514
'0:07.336',3916.523561
'0:07.340',3029.077044
'0:07.344',1284.017813
'0:07.348',262.2464127
'0:07.352',222.0799255
'0:07.355',925.8666356
'0:07.359',737.695375
'0:07.363',-654.4517857
'0:07.367',-1391.273976
'0:07.371',-1591.087697
'0:07.375',-1280.670606
'0:07.379',-626.0732893
'0:07.383',-45.4055942
'0:07.387',146.5494659
'0:07.391',-37.11034142
'0:07.395',-469.4822016
'0:07.398',-763.8909102
'0:07.402',-564.6593125
'0:07.406',-216.549757
'0:07.410',-15.71732107
'0:07.414',-201.8511512
'0:07.418',-532.6425474
'0:07.422',-686.4685508
'0:07.426',-741.7702361
'0:07.430',-849.0263993
'0:07.434',-1266.408592
'0:07.438',-1762.959513
'0:07.441',-1932.066246
'0:07.445',-1883.750036
'0:07.449',-1828.011759
'0:07.453',-1761.649737
'0:07.457',-1568.3849
'0:07.461',-1108.653258
'0:07.465',-744.2442588
'0:07.469',-541.5199232
'0:07.473',-638.0068108
'0:07.477',-664.3478767
'0:07.480',-350.8746398
'0:07.484',368.1927991
'0:07.488',1099.775883
'0:07.492',1718.281573
'0:07.496',2199.551765
'0:07.500',2613.877812
'0:07.504',2581.715516
'0:07.508',2048.054254
'0:07.512',1342.957767
'0:07.516',749.3378351
'0:07.520',584.8880869
'0:07.523',829.0886864
'0:07.527',1032.395145
'0:07.531',870.1283581
'0:07.535',424.8042611
'0:07.539',41.62179469
'0:07.543',-118.1709695
'0:07.547',-223.0986407
'0:07.551',-148.1503042
'0:07.555',-336.9036878
'0:07.559',-484.6173997
'0:07.563',-559.5657362
'0:07.566',-553.890037
'0:07.570',-362.2260384
'0:07.574',-238.6704311
'0:07.578',-304.4503304
'0:07.582',-583.2872486
'0:07.586',-1215.181768
'0:07.590',-1870.7978
'0:07.594',-2528.742323
'0:07.598',-3792.531362
'0:07.602',-4361.993189
'0:07.605',-4442.326164
'0:07.609',-4442.471694
'0:07.613',-4363.302966
'0:07.617',-294.8453008
'0:07.621',2725.208837
'0:07.625',3042.029281
'0:07.629',3947.521611
'0:07.633',4146.171086
'0:07.637',1599.674011
'0:07.641',-1620.339378
'0:07.645',-2195.476904
'0:07.648',-429.6067759
'0:07.652',1312.832902
'0:07.656',1175.597404
'0:07.660',2419.012137
'0:07.664',3864.278022
'0:07.668',3711.616265
'0:07.672',1876.182437
'0:07.676',-1155.368629
'0:07.680',-1732.543586
'0:07.684',-1560.235178
'0:07.688',-898.6523853
'0:07.691',74.51174433
'0:07.695',423.0578921
'0:07.699',87.17291964
'0:07.703',-169.1067323
'0:07.707',-941.0018337
'0:07.711',-938.5278109
'0:07.715',-313.1821754
'0:07.719',41.62179469
'0:07.723',-125.4475071
'0:07.727',-266.1757429
'0:07.730',-19.50112059
'0:07.734',370.0846989
'0:07.738',630.1481503
'0:07.742',526.3847251
'0:07.746',271.1237885
'0:07.750',-86.88185814
'0:07.754',-195.3022674
'0:07.758',-113.6595163
'0:07.762',-242.4542306
'0:07.766',-580.0855721
'0:07.770',-714.2649242
'0:07.773',-607.7364147
'0:07.777',-213.9302035
'0:07.781',111.476555
'0:07.785',147.5681812
'0:07.789',75.38492884
'0:07.793',25.75894286
'0:07.797',169.1067323
'0:07.801',127.6304683
'0:07.805',-205.7804814
'0:07.809',-443.577728
'0:07.813',-391.62325
'0:07.816',-15.57179032
'0:07.820',199.0860669
'0:07.824',159.7927642
'0:07.828',167.505894
'0:07.832',341.997264
'0:07.836',461.4780103
'0:07.840',357.1324621
'0:07.844',179.7304771
'0:07.848',-2.61955351
'0:07.852',-193.1193061
'0:07.855',-517.5073493
'0:07.859',-429.8978374
'0:07.863',557.964898
'0:07.867',192.8282446
'0:07.871',-174.49137
'0:07.875',-515.0333265
'0:07.879',-969.3803301
'0:07.883',-1325.494077
'0:07.887',-769.8576709
'0:07.891',-322.6416742
'0:07.895',-207.9634427
'0:07.898',-102.5991792
'0:07.902',-175.655616
'0:07.906',-669.5869837
'0:07.910',-903.3093693
'0:07.914',-1286.055243
'0:07.918',-1653.083797
'0:07.922',-2087.92968
'0:07.926',-2175.539191
'0:07.930',-2112.378846
'0:07.934',-1824.519021
'0:07.938',-1268.300492
'0:07.941',-958.7565853
'0:07.945',-839.7124312
'0:07.949',-1202.520593
'0:07.953',-1959.571557
'0:07.957',-1885.641936
'0:07.961',-1364.496318
'0:07.965',-1185.347964
'0:07.969',-706.6973251
'0:07.973',6.40335303
'0:07.977',892.5400937
'0:07.980',1054.806881
'0:07.984',-615.3040137
'0:07.988',-2492.214105
'0:07.992',-2794.772535
'0:07.996',-2043.39727
'0:08.000',-2079.197835
'0:08.004',-1764.414821
'0:08.008',-56.46593125
'0:08.012',1268.00943
'0:08.016',2100.299793
'0:08.020',2860.261373
'0:08.023',3743.77856
'0:08.027',3898.477748
'0:08.031',3967.168263
'0:08.035',3755.857613
'0:08.039',3346.33408
'0:08.043',3088.599121
'0:08.047',2792.589574
'0:08.051',2133.189743
'0:08.055',1868.469308
'0:08.059',1747.387723
'0:08.063',1674.040225
'0:08.066',1895.392496
'0:08.070',2108.158454
'0:08.074',2058.96906
'0:08.078',2039.904532
'0:08.082',1961.463457
'0:08.086',1823.209244
'0:08.090',1609.861164
'0:08.094',1048.84012
'0:08.098',195.8843904
'0:08.102',-529.1498094
'0:08.105',-932.7065809
'0:08.109',-1170.212766
'0:08.113',-1457.781529
'0:08.117',-1699.362575
'0:08.121',-1787.845272
'0:08.125',-1728.032133
'0:08.129',-1575.079314
'0:08.133',-1447.885438
'0:08.137',-1284.017813
'0:08.141',-1078.819455
'0:08.145',-726.9260995
'0:08.148',-283.4939023
'0:08.152',-3.92933027
'0:08.156',111.1854935
'0:08.160',179.7304771
'0:08.164',374.0140292
'0:08.168',517.5073493
'0:08.172',691.7076578
'0:08.176',953.3719475
'0:08.180',1226.824228
'0:08.184',1529.528189
'0:08.188',1957.970719
'0:08.191',2290.654015
'0:08.195',2440.550688
'0:08.199',2468.783654
'0:08.203',2397.328055
'0:08.207',2271.152895
'0:08.211',1630.672061
'0:08.215',599.7322234
'0:08.219',-160.2293565
'0:08.223',-458.4218645
'0:08.227',-422.6212999
'0:08.230',-310.4170911
'0:08.234',-214.9489187
'0:08.238',-425.5319149
'0:08.242',-883.8082487
'0:08.246',-1326.803854
'0:08.250',-1470.297174
'0:08.254',-1440.899962
'0:08.258',-1318.799662
'0:08.262',-1280.961667
'0:08.266',-1331.460838
'0:08.270',-1458.945775
'0:08.273',-1580.02736
'0:08.277',-1769.217336
'0:08.281',-2059.260122
'0:08.285',-2386.267718
'0:08.289',-2758.098786
'0:08.293',-3627.790552
'0:08.297',-4125.505719
'0:08.301',-3005.06447
'0:08.305',-833.7456705
'0:08.309',830.9805862
'0:08.313',-27.06871962
'0:08.316',-569.7528888
'0:08.320',-915.6794831
'0:08.324',-739.2962133
'0:08.328',-361.6439154
'0:08.332',-283.4939023
'0:08.336',-337.6313415
'0:08.340',22.26620485
'0:08.344',626.9464738
'0:08.348',1990.278546
'0:08.352',3365.544139
'0:08.355',3800.098961
'0:08.359',2219.78054
'0:08.363',869.1096429
'0:08.367',160.520418
'0:08.371',31.14358064
'0:08.375',645.5744099
'0:08.379',1452.979014
'0:08.383',1199.318916
'0:08.387',543.4118229
'0:08.391',482.4344384
'0:08.395',870.4194196
'0:08.398',1694.851122
'0:08.402',2004.103967
'0:08.406',1342.666705
'0:08.410',836.947347
'0:08.414',580.0855721
'0:08.418',567.5699275
'0:08.422',622.2894898
'0:08.426',662.3104462
'0:08.430',640.6263644
'0:08.434',757.9241494
'0:08.438',955.8459703
'0:08.441',851.2093605
'0:08.445',364.4089996
'0:08.449',59.95866927
'0:08.453',-73.20196758
'0:08.457',-330.0637425
'0:08.461',-643.1003871
'0:08.465',-1073.725878
'0:08.469',-1189.277294
'0:08.473',-1108.216666
'0:08.477',-958.319993
'0:08.480',-868.2364584
'0:08.484',-941.8750182
'0:08.488',-1040.253806
'0:08.492',-1029.775592
'0:08.496',-725.6163227
'0:08.500',-379.3986669
'0:08.504',-82.07934337
'0:08.508',288.0053555
'0:08.512',615.3040137
'0:08.516',1084.931746
'0:08.520',1438.425939
'0:08.523',1431.440463
'0:08.527',1166.428966
'0:08.531',857.4671828
'0:08.535',712.0819629
'0:08.539',856.5939983
'0:08.543',922.6649591
'0:08.547',1020.607154
'0:08.551',835.9286317
'0:08.555',96.63241843
'0:08.559',-488.6922607
'0:08.563',-1251.564456
'0:08.566',-1642.314521
'0:08.570',-2144.977734
'0:08.574',-2521.174724
'0:08.578',-2799.283989
'0:08.582',-2878.889309
'0:08.586',-2865.937073
'0:08.590',-2802.049073
'0:08.594',-2600.052391
'0:08.598',-2474.168292
'0:08.602',-2365.020229
'0:08.605',-2166.370754
'0:08.609',-1808.510638
'0:08.613',-1348.924528
'0:08.617',-1006.781733
'0:08.621',-930.8146811
'0:08.625',-1180.69098
'0:08.629',-1717.990511
'0:08.633',-2590.883954
'0:08.637',-2934.627587
'0:08.641',-2233.46043
'0:08.645',-1388.508892
'0:08.648',-428.0059377
'0:08.652',1013.767209
'0:08.656',3283.755858
'0:08.660',1194.952994
'0:08.664',-3066.478447
'0:08.668',-2734.959397
'0:08.672',278.1092645
'0:08.676',1882.44026
'0:08.680',1950.694182
'0:08.684',3330.471229
'0:08.688',3801.699799
'0:08.691',1913.43831
'0:08.695',429.0246529
'0:08.699',304.0137381
'0:08.703',969.8169223
'0:08.707',1430.130687
'0:08.711',1532.002212
'0:08.715',1780.859796
'0:08.719',2418.430014
'0:08.723',3022.52816
'0:08.727',3180.574555
'0:08.730',3025.875367
'0:08.734',2718.514422
'0:08.738',2623.628373
'0:08.742',2688.244026
'0:08.746',2435.602643
'0:08.750',1805.0179
'0:08.754',1337.573129
'0:08.758',1013.767209
'0:08.762',351.1657013
'0:08.766',-4.94804552
'0:08.770',341.997264
'0:08.773',972.5820066
'0:08.777',1526.617574
'0:08.781',1946.619321
'0:08.785',1957.097535
'0:08.789',1483.686003
'0:08.793',649.0671479
'0:08.797',2.32849201
'0:08.801',-348.2550863
'0:08.805',-448.5257735
'0:08.809',-671.4788835
'0:08.813',-1245.888756
'0:08.816',-1640.13156
'0:08.820',-1480.193265
'0:08.824',-764.9096254
'0:08.828',-298.3380388
'0:08.832',-313.4732369
'0:08.836',-306.1966994
'0:08.840',-19.79218209
'0:08.844',203.8885817
'0:08.848',356.8414006
'0:08.852',566.2601508
'0:08.855',779.3171697
'0:08.859',1184.47478
'0:08.863',1601.856972
'0:08.867',1921.588032
'0:08.871',2104.374654
'0:08.875',2329.656256
'0:08.879',2662.339552
'0:08.883',3020.199668
'0:08.887',2718.223361
'0:08.891',1806.473208
'0:08.895',742.0612976
'0:08.898',-247.6933376
'0:08.902',-867.3632739
'0:08.906',-1138.632593
'0:08.910',-1296.387927
'0:08.914',-1295.223681
'0:08.918',-1276.741275
'0:08.922',-1330.00553
'0:08.926',-1502.896062
'0:08.930',-1603.894403
'0:08.934',-1471.898012
'0:08.938',-1153.767791
'0:08.941',-673.8073755
'0:08.945',-221.206741
'0:08.949',27.65084262
'0:08.953',202.2877434
'0:08.957',413.7439241
'0:08.961',748.3191198
'0:08.965',807.8411968
'0:08.969',305.6145764
'0:08.973',-832.5814245
'0:08.977',-2907.413336
'0:08.980',-4180.952935
'0:08.984',-3569.28719
'0:08.988',-1765.724598
'0:08.992',-1322.728993
'0:08.996',-980.1496056
'0:09.000',-218.4416567
'0:09.004',459.295049
'0:09.008',642.3727334
'0:09.012',394.533865
'0:09.016',92.84861891
'0:09.020',-357.8601158
'0:09.023',-397.7355415
'0:09.027',170.5620398
'0:09.031',2388.159618
'0:09.035',3677.125477
'0:09.039',4093.343423
'0:09.043',4096.399569
'0:09.047',871.4381349
'0:09.051',-1574.788253
'0:09.055',-1805.600023
'0:09.059',-1081.73007
'0:09.063',-347.6729633
'0:09.066',190.9363449
'0:09.070',399.190849
'0:09.074',309.1073144
'0:09.078',-21.68408185
'0:09.082',-319.8765899
'0:09.086',122.2458305
'0:09.090',164.595279
'0:09.094',-107.983817
'0:09.098',256.2796519
'0:09.102',354.9495008
'0:09.105',385.0743662
'0:09.109',-2.03743051
'0:09.113',-205.6349507
'0:09.117',-34.34525715
'0:09.121',-271.41485
'0:09.125',-519.6903106
'0:09.129',-759.3794569
'0:09.133',-719.2129697
'0:09.137',-794.306837
'0:09.141',-857.4671828
'0:09.145',-905.201269
'0:09.148',-898.3613238
'0:09.152',-1028.902407
'0:09.156',-1167.738743
'0:09.160',-1344.849667
'0:09.164',-1468.114213
'0:09.168',-1532.584335
'0:09.172',-1402.043252
'0:09.176',-1076.636493
'0:09.180',-692.7263731
'0:09.184',-370.8123527
'0:09.188',-20.08324359
'0:09.191',453.0372268
'0:09.195',1096.574206
'0:09.199',1715.516489
'0:09.203',2102.773816
'0:09.207',2152.545333
'0:09.211',1927.700323
'0:09.215',1567.075123
'0:09.219',1084.204092
'0:09.223',704.5143639
'0:09.227',409.9601246
'0:09.230',132.7240446
'0:09.234',-117.4433158
'0:09.238',-278.1092645
'0:09.242',-582.4140641
'0:09.246',-1040.981459
'0:09.250',-1156.678406
'0:09.254',-1155.950752
'0:09.258',-1031.085368
'0:09.262',-920.0454056
'0:09.266',-644.7012254
'0:09.270',-267.3399889
'0:09.273',107.401694
'0:09.277',119.3352155
'0:09.281',-393.2240883
'0:09.285',-1004.598772
'0:09.289',-1422.563088
'0:09.293',-1860.319586
'0:09.297',-2261.838927
'0:09.301',-2447.245103
'0:09.305',-2425.124429
'0:09.309',-2279.011555
'0:09.313',-2624.356026
'0:09.316',-4204.965509
'0:09.320',-4239.747359
'0:09.324',-4452.222255
'0:09.328',-1019.151847
'0:09.332',2088.948395
'0:09.336',1475.681812
'0:09.340',2603.108537
'0:09.344',1929.883284
'0:09.348',128.7947143
'0:09.352',-998.7775417
'0:09.355',-1306.284018
'0:09.359',-1331.460838
'0:09.363',342.7249178
'0:09.367',2213.231656
'0:09.371',2691.736764
'0:09.375',2285.269377
'0:09.379',2170.591146
'0:09.383',2080.362081
'0:09.387',2103.792531
'0:09.391',2427.30739
'0:09.395',3019.617545
'0:09.398',3485.461478
'0:09.402',3036.353582
'0:09.406',2953.255523
'0:09.410',2689.844864
'0:09.414',1173.414442
'0:09.418',635.2417266
'0:09.422',-284.803679
'0:09.426',-980.4406671
'0:09.430',-1176.616119
'0:09.434',-894.4319935
'0:09.438',-103.6178945
'0:09.441',706.4062636
'0:09.445',903.0183078
'0:09.449',675.262683
'0:09.453',515.324388
'0:09.457',618.3601595
'0:09.461',663.620223
'0:09.465',345.1989405
'0:09.469',133.3061676
'0:09.473',602.2062462
'0:09.477',979.2764211
'0:09.480',851.7914835
'0:09.484',510.2308118
'0:09.488',72.32878307
'0:09.492',-291.3525628
'0:09.496',-279.7101027
'0:09.500',-141.1648281
'0:09.504',-103.1813022
'0:09.508',172.8905318
'0:09.512',852.8101988
'0:09.516',1747.678785
'0:09.520',2218.325232
'0:09.523',1668.655587
'0:09.527',752.2484501
'0:09.531',175.9466775
'0:09.535',326.1344122
'0:09.539',685.4498356
'0:09.543',535.2621009
'0:09.547',420.7294001
'0:09.551',588.0897634
'0:09.555',1293.18625
'0:09.559',349.5648631
'0:09.563',-2739.47085
'0:09.566',-1750.880461
'0:09.570',-328.4629042
'0:09.574',1130.046279
'0:09.578',1815.641645
'0:09.582',1625.724015
'0:09.586',1085.222808
'0:09.590',13.67989056
'0:09.594',-1113.310242
'0:09.598',-1630.963123
'0:09.602',-1719.300288
'0:09.605',-1386.908054
'0:09.609',-904.9102075
'0:09.613',-445.7606892
'0:09.617',19.79218209
'0:09.621',173.1815933
'0:09.625',-211.0195884
'0:09.629',-873.9121576
'0:09.633',-1454.288791
'0:09.637',-1617.428763
'0:09.641',-1422.272026
'0:09.645',-1431.149402
'0:09.648',-2178.449806
'0:09.652',-3593.008703
'0:09.656',-3941.554851
'0:09.660',-2030.153972
'0:09.664',967.9250226
'0:09.668',3255.522892
'0:09.672',1806.182146
'0:09.676',246.2380301
'0:09.680',-557.964898
'0:09.684',-380.8539744
'0:09.688',1946.619321
'0:09.691',2872.631487
'0:09.695',1488.634048
'0:09.699',1665.162849
'0:09.703',2096.807055
'0:09.707',1757.574876
'0:09.711',1069.942079
'0:09.715',1202.229531
'0:09.719',1717.408388
'0:09.723',1149.401869
'0:09.727',266.1757429
'0:09.730',-484.9084612
'0:09.734',-753.9948191
'0:09.738',320.1676514
'0:09.742',1241.668365
'0:09.746',1188.549641
'0:09.750',1185.784556
'0:09.754',1349.943243
'0:09.758',1233.227581
'0:09.762',719.9406235
'0:09.766',135.7801904
'0:09.770',307.7975376
'0:09.773',502.6632127
'0:09.777',522.6009256
'0:09.781',362.8081614
'0:09.785',137.6720901
'0:09.789',965.3054691
'0:09.793',445.1785662
'0:09.797',308.8162529
'0:09.801',100.998341
'0:09.805',-122.8279536
'0:09.809',-566.5512123
'0:09.813',-321.4774282
'0:09.816',107.401694
'0:09.820',-36.23715691
'0:09.824',-415.0537009
'0:09.828',-759.0883954
'0:09.832',-492.1849987
'0:09.836',-146.8405274
'0:09.840',16.29944407
'0:09.844',-114.6782315
'0:09.848',-329.9182117
'0:09.852',-374.0140292
'0:09.855',-274.907588
'0:09.859',-19.06452833
'0:09.863',-131.1232063
'0:09.867',-656.0526239
'0:09.871',-946.09541
'0:09.875',-764.4730332
'0:09.879',-759.3794569
'0:09.883',-1039.962744
'0:09.887',-952.3532322
'0:09.891',-827.7789097
'0:09.895',-565.2414355
'0:09.898',-329.3360887
'0:09.902',-352.1844166
'0:09.906',-384.3467125
'0:09.910',-353.6397241
'0:09.914',15.28072882
'0:09.918',867.2177431
'0:09.922',1252.43764
'0:09.926',1102.832028
'0:09.930',794.1613063
'0:09.934',908.9850685
'0:09.938',844.8060075
'0:09.941',383.473528
'0:09.945',-168.3790785
'0:09.949',-585.7612714
'0:09.953',-862.8518206
'0:09.957',-1096.283145
'0:09.961',-1338.882906
'0:09.965',-1679.715924
'0:09.969',-1894.373781
'0:09.973',-1920.423786
'0:09.977',-1988.386646
'0:09.980',-2164.769916
'0:09.984',-2629.449603
'0:09.988',-3183.776232
'0:09.992',-3270.367029
'0:09.996',-2954.419769
'0:10.000',-2072.794481
'0:10.004',-172.4539395
'0:10.008',2041.796432
'0:10.012',3744.069622
'0:10.016',2879.471432
'0:10.020',1110.83622
'0:10.023',763.5998487
'0:10.027',-69.41816806
'0:10.031',-2372.587828
'0:10.035',-212.3293652
'0:10.039',2541.840091
'0:10.043',3494.920977
'0:10.047',3609.744739
'0:10.051',3944.028873
'0:10.055',686.0319586
'0:10.059',-2580.987863
'0:10.063',-3048.141572
'0:10.066',-585.1791484
'0:10.070',1954.769043
'0:10.074',3716.709841
'0:10.078',4161.015223
'0:10.082',3622.988037
'0:10.086',-606.7176995
'0:10.090',-1967.139157
'0:10.094',-562.039759
'0:10.098',1009.546817
'0:10.102',304.3047996
'0:10.105',-1414.122304
'0:10.109',-1568.675961
'0:10.113',-1070.378671
'0:10.117',-764.1819717
'0:10.121',-713.5372704
'0:10.125',-832.872486
'0:10.129',-962.5403848
'0:10.133',-1011.147656
'0:10.137',-959.3387083
'0:10.141',-753.7037576
'0:10.145',-514.3056728
'0:10.148',-485.3450534
'0:10.152',-762.8721949
'0:10.156',-1039.380621
'0:10.160',-786.8847688
'0:10.164',-498.0062287
'0:10.168',-394.533865
'0:10.172',-669.0048607
'0:10.176',-1181.709695
'0:10.180',-1406.554705
'0:10.184',-1298.279827
'0:10.188',-1055.097942
'0:10.191',-939.9831184
'0:10.195',-955.8459703
'0:10.199',-660.7096079
'0:10.203',-477.0498006
'0:10.207',-383.1824665
'0:10.211',-284.5126175
'0:10.215',-179.1483541
'0:10.219',-79.89638211
'0:10.223',153.2438804
'0:10.227',515.0333265
'0:10.230',702.4769334
'0:10.234',822.6853334
'0:10.238',966.6152458
'0:10.242',1306.284018
'0:10.246',1569.694676
'0:10.250',1383.706377
'0:10.254',943.4758565
'0:10.258',471.0830399
'0:10.262',238.5249003
'0:10.266',153.8260034
'0:10.270',-220.3335565
'0:10.273',-659.2543004
'0:10.277',-1047.530343
'0:10.281',-1158.861367
'0:10.285',-1236.429258
'0:10.289',-1377.157493
'0:10.293',-1444.829292
'0:10.297',-1393.165876
'0:10.301',-1224.059144
'0:10.305',-982.4780976
'0:10.309',-745.2629741
'0:10.313',-562.4763513
'0:10.316',-441.6858282
'0:10.320',-306.3422301
'0:10.324',-377.0701749
'0:10.328',-885.7001484
'0:10.332',-1802.98047
'0:10.336',-3317.518992
'0:10.340',-3891.492272
'0:10.344',-1995.954245
'0:10.348',1680.734639
'0:10.352',3499.723492
'0:10.355',2627.848764
'0:10.359',656.6347469
'0:10.363',-1143.289577
'0:10.367',281.0198795
'0:10.371',2649.969439
'0:10.375',1501.440754
'0:10.379',154.5536572
'0:10.383',149.7511424
'0:10.387',1372.063917
'0:10.391',2660.302122
'0:10.395',3235.585179
'0:10.398',3851.034724
'0:10.402',2118.636668
'0:10.406',304.3047996
'0:10.410',-784.7018075
'0:10.414',-577.9026108
'0:10.418',182.3500306
'0:10.422',643.6825101
'0:10.426',144.3665046
'0:10.430',-1065.576156
'0:10.434',-2587.973339
'0:10.438',-2044.707047
'0:10.441',-679.1920133
'0:10.445',-23.5759816
'0:10.449',-529.5864016
'0:10.453',-848.2987455
'0:10.457',-806.8224816
'0:10.461',-733.1839218
'0:10.465',-747.1548738
'0:10.469',-763.3087872
'0:10.473',-213.639142
'0:10.477',641.4995489
'0:10.480',1014.931455
'0:10.484',565.6780278
'0:10.488',-463.5154408
'0:10.492',-1230.899089
'0:10.496',-1396.076491
'0:10.500',-1264.516692
'0:10.504',-1240.213057
'0:10.508',-1370.75414
'0:10.512',-1297.988765
'0:10.516',-986.2618971
'0:10.520',-706.4062636
'0:10.523',-980.8772594
'0:10.527',-1639.549437
'0:10.531',-2024.769334
'0:10.535',-1812.585499
'0:10.539',-1277.468929
'0:10.543',-880.0244492
'0:10.547',-567.1333353
'0:10.551',-352.7665396
'0:10.555',-98.23325669
'0:10.559',578.4847338
'0:10.563',1230.899089
'0:10.566',1131.647117
'0:10.570',855.5752831
'0:10.574',1030.503245
'0:10.578',1190.878133
'0:10.582',807.8411968
'0:10.586',172.4539395
'0:10.590',-412.8707396
'0:10.594',-660.1274849
'0:10.598',-596.9671392
'0:10.602',-692.7263731
'0:10.605',-914.3697063
'0:10.609',-1286.055243
'0:10.613',-1874.436068
'0:10.617',-2245.10289
'0:10.621',-2549.116628
'0:10.625',-2625.956865
'0:10.629',-2515.935617
'0:10.633',-2176.557907
'0:10.637',-1538.114504
'0:10.641',-909.2761301
'0:10.645',-394.2428035
'0:10.648',76.40364409
'0:10.652',422.6212999
'0:10.656',591.2914399
'0:10.660',663.620223
'0:10.664',589.3995401
'0:10.668',417.6732544
'0:10.672',61.26844602
'0:10.676',-682.248159
'0:10.680',-1460.837675
'0:10.684',-1349.797712
'0:10.688',-406.7584481
'0:10.691',1631.690776
'0:10.695',3670.431062
'0:10.699',3886.835288
'0:10.703',3394.65029
'0:10.707',218.296126
'0:10.711',-241.4355153
'0:10.715',726.9260995
'0:10.719',1351.107489
'0:10.723',439.7939285
'0:10.727',-423.3489536
'0:10.730',-1080.420293
'0:10.734',-1204.412492
'0:10.738',-628.5473121
'0:10.742',1035.596822
'0:10.746',3561.282999
'0:10.750',3982.885584
'0:10.754',3836.190587
'0:10.758',2036.993917
'0:10.762',764.7640947
'0:10.766',665.5121227
'0:10.770',580.2311028
'0:10.773',296.7372006
'0:10.777',-44.67794045
'0:10.781',-387.548389
'0:10.785',-780.0448235
'0:10.789',-646.5931251
'0:10.793',-632.0400501
'0:10.797',-1090.316384
'0:10.801',-1324.1843
'0:10.805',-1408.446605
'0:10.809',-1038.944029
'0:10.813',-575.1375266
'0:10.816',-202.8698664
'0:10.820',14.69860582
'0:10.824',172.8905318
'0:10.828',198.5039439
'0:10.832',63.16034578
'0:10.836',53.84637774
'0:10.840',84.55336613
'0:10.844',134.6159444
'0:10.848',-174.0547778
'0:10.852',-639.0255261
'0:10.855',-884.6814332
'0:10.859',-706.2607329
'0:10.863',-348.2550863
'0:10.867',-143.0567279
'0:10.871',-22.55726635
'0:10.875',-27.06871962
'0:10.879',130.8321448
'0:10.883',591.5825014
'0:10.887',767.0925867
'0:10.891',531.4783014
'0:10.895',443.577728
'0:10.898',624.0358588
'0:10.902',732.6017988
'0:10.906',563.786128
'0:10.910',344.6168175
'0:10.914',143.0567279
'0:10.918',199.3771284
'0:10.922',431.7897372
'0:10.926',461.1869488
'0:10.930',317.4025672
'0:10.934',22.55726635
'0:10.938',2.03743051
'0:10.941',-258.8992054
'0:10.945',-51.95447798
'0:10.949',64.03353028
'0:10.953',-1.45530751
'0:10.957',-119.3352155
'0:10.961',-108.2748785
'0:10.965',-126.0296301
'0:10.969',-116.5701313
'0:10.973',18.48240533
'0:10.977',286.6955788
'0:10.980',302.5584306
'0:10.984',148.4413657
'0:10.988',-176.237739
'0:10.992',-586.1978636
'0:10.996',-904.3280845
'0:11.000',-1186.948802
'0:11.004',-1248.071718
'0:11.008',-1431.731525
'0:11.012',-1681.607824
'0:11.016',-1886.515121
'0:11.020',-2042.087493
'0:11.023',-2377.390343
'0:11.027',-2707.890677
'0:11.031',-3034.461682
'0:11.035',-1819.425445
'0:11.039',577.6115493
'0:11.043',1511.482376
'0:11.047',1442.937393
'0:11.051',1279.942952
'0:11.055',1377.011963
'0:11.059',1643.915359
'0:11.063',389.1492272
'0:11.066',532.3514859
'0:11.070',2222.400093
'0:11.074',3597.665687
'0:11.078',3553.424339
'0:11.082',3291.90558
'0:11.086',837.8205315
'0:11.090',-697.0922956
'0:11.094',-1444.101639
'0:11.098',-1327.822569
'0:11.102',-762.5811334
'0:11.105',48.60727072
'0:11.109',199.6681899
'0:11.113',-412.5796781
'0:11.117',-1057.280903
'0:11.121',-907.8208225
'0:11.125',-172.162878
'0:11.129',132.4329831
'0:11.133',52.97319324
'0:11.137',-221.788864
'0:11.141',-243.9095381
'0:11.145',-278.8369182
'0:11.148',230.0841168
'0:11.152',219.0237797
'0:11.156',180.7491923
'0:11.160',303.1405536
'0:11.164',497.5696365
'0:11.168',494.0768985
'0:11.172',200.3958436
'0:11.176',-338.504526
'0:11.180',-763.8909102
'0:11.184',-905.4923305
'0:11.188',-855.2842216
'0:11.191',-890.9392555
'0:11.195',-1081.147947
'0:11.199',-933.4342347
'0:11.203',-509.0665658
'0:11.207',-162.4123177
'0:11.211',55.88380825
'0:11.215',222.0799255
'0:11.219',193.7014291
'0:11.223',113.6595163
'0:11.227',175.3645545
'0:11.230',-163.2855022
'0:11.234',-518.0894723
'0:11.238',-669.2959222
'0:11.242',-434.4092907
'0:11.246',-73.49302908
'0:11.250',363.8268766
'0:11.254',661.7283232
'0:11.258',773.3504089
'0:11.262',748.7557121
'0:11.266',952.6442937
'0:11.270',1114.620019
'0:11.273',1210.670315
'0:11.277',1255.057194
'0:11.281',1002.997933
'0:11.285',721.2504002
'0:11.289',566.8422738
'0:11.293',423.6400151
'0:11.297',212.0383037
'0:11.301',-203.8885817
'0:11.305',-656.6347469
'0:11.309',-1101.958844
'0:11.313',-1225.659982
'0:11.316',-1221.876182
'0:11.320',-1099.775883
'0:11.324',-854.7020986
'0:11.328',-814.0990191
'0:11.332',-1073.725878
'0:11.336',-1310.941002
'0:11.340',-1279.360829
'0:11.344',-1091.48063
'0:11.348',-875.8040574
'0:11.352',-610.501499
'0:11.355',-421.7481154
'0:11.359',-909.7127223
'0:11.363',-1750.298338
'0:11.367',-1981.110109
'0:11.371',-1763.250575
'0:11.375',-1084.786215
'0:11.379',527.6945019
'0:11.383',1808.074046
'0:11.387',924.8479204
'0:11.391',-37.40140292
'0:11.395',-403.9933638
'0:11.398',123.5556073
'0:11.402',2230.986407
'0:11.406',3393.194982
'0:11.410',3592.42658
'0:11.414',3749.45426
'0:11.418',2356.724976
'0:11.422',636.6970341
'0:11.426',269.668481
'0:11.430',702.9135256
'0:11.434',1149.110807
'0:11.438',1611.02541
'0:11.441',2284.687254
'0:11.445',1725.849172
'0:11.449',-25.46788136
'0:11.453',-675.9903368
'0:11.457',-285.0947405
'0:11.461',268.6497657
'0:11.465',753.9948191
'0:11.469',810.7518119
'0:11.473',171.580755
'0:11.477',-329.0450272
'0:11.480',-489.1288529
'0:11.484',-61.55950752
'0:11.488',348.1095556
'0:11.492',378.3799517
'0:11.496',-33.3265419
'0:11.500',-531.0417091
'0:11.504',-436.8833134
'0:11.508',28.66955788
'0:11.512',637.7157493
'0:11.516',848.007684
'0:11.520',441.6858282
'0:11.523',-158.9195797
'0:11.527',-407.4861018
'0:11.531',-253.5145676
'0:11.535',-643.6825101
'0:11.539',-529.8774631
'0:11.543',-433.3905754
'0:11.547',-35.50950316
'0:11.551',537.4450621
'0:11.555',868.5275199
'0:11.559',850.918299
'0:11.563',671.187822
'0:11.566',605.6989842
'0:11.570',677.3001135
'0:11.574',707.2794482
'0:11.578',675.9903368
'0:11.582',734.202637
'0:11.586',818.3194109
'0:11.590',874.2032191
'0:11.594',971.7088221
'0:11.598',977.6755829
'0:11.602',827.7789097
'0:11.605',892.976686
'0:11.609',1210.670315
'0:11.613',1482.085165
'0:11.617',1568.675961
'0:11.621',1366.242687
'0:11.625',1184.765841
'0:11.629',990.9188812
'0:11.633',699.4207876
'0:11.637',300.6665308
'0:11.641',-165.4684635
'0:11.645',-524.4928253
'0:11.648',-803.4752743
'0:11.652',-752.2484501
'0:11.656',-877.1138342
'0:11.660',-1137.322816
'0:11.664',-1327.385977
'0:11.668',-1249.381494
'0:11.672',-1294.787089
'0:11.676',-1372.354979
'0:11.680',-1661.670111
'0:11.684',-1933.376022
'0:11.688',-1828.739413
'0:11.691',-1822.627121
'0:11.695',-2405.477777
'0:11.699',-3732.427162
'0:11.703',-4364.903804
'0:11.707',-2390.924702
'0:11.711',1288.238205
'0:11.715',3227.144396
'0:11.719',3494.047792
'0:11.723',463.5154408
'0:11.727',-1216.054952
'0:11.730',166.1961172
'0:11.734',1256.22144
'0:11.738',1606.659487
'0:11.742',1963.93748
'0:11.746',1121.896557
'0:11.750',-1298.570888
'0:11.754',-1297.988765
'0:11.758',609.1917222
'0:11.762',2856.477574
'0:11.766',4009.808773
'0:11.770',2492.068574
'0:11.773',-38.12905667
'0:11.777',-1959.862619
'0:11.781',-2577.495125
'0:11.785',-2228.075792
'0:11.789',-1287.656082
'0:11.793',-219.0237797
'0:11.797',1032.977268
'0:11.801',1773.87432
'0:11.805',1917.222109
'0:11.809',1264.516692
'0:11.813',564.6593125
'0:11.816',520.1269028
'0:11.820',876.3861804
'0:11.824',1144.308292
'0:11.828',1666.472626
'0:11.832',1172.395727
'0:11.836',655.7615624
'0:11.840',191.8095294
'0:11.844',20.08324359
'0:11.848',-222.5165177
'0:11.852',-537.1540006
'0:11.855',-895.7417702
'0:11.859',-1272.375353
'0:11.863',-1038.361906
'0:11.867',-817.3006956
'0:11.871',-679.0464825
'0:11.875',-587.3621096
'0:11.879',-347.3819018
'0:11.883',-139.2729284
'0:11.887',5.23910702
'0:11.891',30.12486538
'0:11.895',-220.624618
'0:11.898',-183.2232151
'0:11.902',-283.4939023
'0:11.906',-268.3587042
'0:11.910',-371.1034142
'0:11.914',-445.1785662
'0:11.918',-680.6473208
'0:11.922',-47.87961696
'0:11.926',563.6405973
'0:11.930',670.3146375
'0:11.934',565.9690893
'0:11.938',323.3693279
'0:11.941',294.5542393
'0:11.945',426.8416917
'0:11.949',562.7674128
'0:11.953',599.4411619
'0:11.957',723.724423
'0:11.961',830.2529324
'0:11.965',860.0867363
'0:11.969',1036.761068
'0:11.973',946.09541
'0:11.977',601.3330617
'0:11.980',288.5874785
'0:11.984',153.5349419
'0:11.988',102.3081177
'0:11.992',-7.13100678
'0:11.996',-400.2095643
'0:12.000',-719.3585005
'0:12.004',-1198.736793
'0:12.008',-1791.629071
'0:12.012',-2376.080566
'0:12.016',-2874.814448
'0:12.020',-3130.075385
'0:12.023',-3303.54804
'0:12.027',-3530.43048
'0:12.031',-3486.480193
'0:12.035',-3455.482143
'0:12.039',-3054.981518
'0:12.043',-2236.371045
'0:12.047',-705.9696714
'0:12.051',713.2462089
'0:12.055',777.8618622
'0:12.059',-461.6235411
'0:12.063',-2294.728876
'0:12.066',-2421.631691
'0:12.070',-1425.473703
'0:12.074',-615.0129522
'0:12.078',2078.179119
'0:12.082',3327.997206
'0:12.086',3363.070117
'0:12.090',1310.067817
'0:12.094',-383.473528
'0:12.098',-430.4799604
'0:12.102',-78.00448235
'0:12.105',606.426638
'0:12.109',1675.05894
'0:12.113',2452.047618
'0:12.117',2662.921675
'0:12.121',2465.581977
'0:12.125',2517.099863
'0:12.129',2799.866112
'0:12.133',3093.692697
'0:12.137',2833.047123
'0:12.141',320.4587129
'0:12.145',-281.6020025
'0:12.148',459.0039875
'0:12.152',800.2735978
'0:12.156',283.4939023
'0:12.160',240.5623308
'0:12.164',619.6699363
'0:12.168',587.0710481
'0:12.172',322.0595512
'0:12.176',463.3699101
'0:12.180',639.0255261
'0:12.184',828.9431557
'0:12.188',576.7383648
'0:12.191',165.9050557
'0:12.195',379.6897284
'0:12.199',654.1607242
'0:12.203',551.4160142
'0:12.207',320.4587129
'0:12.211',157.02768
'0:12.215',232.5581395
'0:12.219',585.9068021
'0:12.223',764.1819717
'0:12.227',614.2852985
'0:12.230',434.4092907
'0:12.234',440.3760515
'0:12.238',506.1559508
'0:12.242',579.7945106
'0:12.246',468.4634863
'0:12.250',302.1218383
'0:12.254',373.7229677
'0:12.258',531.1872399
'0:12.262',813.2258346
'0:12.266',1002.706872
'0:12.270',1078.528393
'0:12.273',1222.749367
'0:12.277',1459.673429
'0:12.281',1601.274849
'0:12.285',1348.924528
'0:12.289',699.7118491
'0:12.293',216.8408185
'0:12.297',-96.63241843
'0:12.301',-196.6120441
'0:12.305',-264.5749047
'0:12.309',-339.5232413
'0:12.313',-397.2989493
'0:12.316',-292.6623396
'0:12.320',-120.0628693
'0:12.324',-234.1589778
'0:12.328',-332.2467037
'0:12.332',-130.6866141
'0:12.336',248.1299299
'0:12.340',336.0305033
'0:12.344',213.057019
'0:12.348',42.93157144
'0:12.352',-91.82990366
'0:12.355',-227.1735018
'0:12.359',-451.72745
'0:12.363',-922.6649591
'0:12.367',-2085.746718
'0:12.371',-3746.398114
'0:12.375',-4325.464971
'0:12.379',-4297.959659
'0:12.383',-2076.869342
'0:12.387',319.2944669
'0:12.391',1761.649737
'0:12.395',1171.813604
'0:12.398',1354.309166
'0:12.402',1324.1843
'0:12.406',2115.580522
'0:12.410',2645.457985
'0:12.414',2015.891958
'0:12.418',1048.257997
'0:12.422',664.3478767
'0:12.426',242.7452921
'0:12.430',564.6593125
'0:12.434',966.9063073
'0:12.438',1170.649358
'0:12.441',47.29749396
'0:12.445',-1414.995489
'0:12.449',-1595.308089
'0:12.453',114.6782315
'0:12.457',1452.396891
'0:12.461',1829.321536
'0:12.465',2128.532759
'0:12.469',1676.95084
'0:12.473',1134.848794
'0:12.477',960.5029543
'0:12.480',1007.945979
'0:12.484',848.589807
'0:12.488',439.0662747
'0:12.492',240.1257386
'0:12.496',412.1430858
'0:12.500',751.8118579
'0:12.504',1401.461129
'0:12.508',1193.934278
'0:12.512',723.1423
'0:12.516',453.0372268
'0:12.520',189.1899758
'0:12.523',-245.8014378
'0:12.527',-554.1810985
'0:12.531',-613.412114
'0:12.535',-633.6408883
'0:12.539',-595.6573624
'0:12.543',-495.3866752
'0:12.547',-404.2844253
'0:12.551',-155.4268417
'0:12.555',311.2902756
'0:12.559',674.3894985
'0:12.563',728.381407
'0:12.566',524.7838868
'0:12.570',133.3061676
'0:12.574',-212.9114882
'0:12.578',-314.7830137
'0:12.582',-395.698111
'0:12.586',-332.8288267
'0:12.590',-74.22068283
'0:12.594',39.29330267
'0:12.598',84.98995838
'0:12.602',236.3419391
'0:12.605',377.3612364
'0:12.609',718.3397852
'0:12.613',1063.102133
'0:12.617',1195.244055
'0:12.621',1223.622551
'0:12.625',1169.630643
'0:12.629',1138.05047
'0:12.633',1171.231481
'0:12.637',922.0828361
'0:12.641',453.3282883
'0:12.645',-168.088017
'0:12.648',-957.4468085
'0:12.652',-1820.153098
'0:12.656',-2332.130279
'0:12.660',-2958.203568
'0:12.664',-3290.304741
'0:12.668',-2953.255523
'0:12.672',-2233.169369
'0:12.676',-1395.348837
'0:12.680',-651.2501092
'0:12.684',-65.63436854
'0:12.688',405.8852636
'0:12.691',903.7459615
'0:12.695',1291.003289
'0:12.699',1114.911081
'0:12.703',392.3509038
'0:12.707',-304.0137381
'0:12.711',-243.3274151
'0:12.715',852.8101988
'0:12.719',2951.945746
'0:12.723',3621.678261
'0:12.727',1584.247752
'0:12.730',-2244.229706
'0:12.734',-2629.740664
'0:12.738',-516.9252263
'0:12.742',2101.60957
'0:12.746',274.907588
'0:12.750',-1933.958145
'0:12.754',50.06257822
'0:12.758',1378.612801
'0:12.762',1061.210234
'0:12.766',220.624618
'0:12.770',98.52431819
'0:12.773',288.0053555
'0:12.777',736.9677213
'0:12.781',1626.888261
'0:12.785',3056.291294
'0:12.789',3338.329889
'0:12.793',1127.281195
'0:12.797',-1215.763891
'0:12.801',-2171.755392
'0:12.805',-749.0467736
'0:12.809',1084.931746
'0:12.813',620.6886515
'0:12.816',-842.3319848
'0:12.820',-1569.694676
'0:12.824',-1067.759118
'0:12.828',-72.18325232
'0:12.832',550.397299
'0:12.836',-15.28072882
'0:12.840',-1069.942079
'0:12.844',-1567.075123
'0:12.848',-1182.291818
'0:12.852',-489.1288529
'0:12.855',-312.6000524
'0:12.859',-801.5833746
'0:12.863',-1167.011089
'0:12.867',-951.334517
'0:12.871',-565.9690893
'0:12.875',-534.5344471
'0:12.879',-914.3697063
'0:12.883',-1167.738743
'0:12.887',-867.9453969
'0:12.891',-440.08499
'0:12.895',-284.221556
'0:12.898',-541.8109847
'0:12.902',-671.4788835
'0:12.906',-431.4986757
'0:12.910',-23.2849201
'0:12.914',220.1880257
'0:12.918',283.7849638
'0:12.922',370.8123527
'0:12.926',735.6579445
'0:12.930',1161.044329
'0:12.934',1303.955526
'0:12.938',1100.940129
'0:12.941',872.7479116
'0:12.945',725.6163227
'0:12.949',706.4062636
'0:12.953',588.9629479
'0:12.957',295.2818931
'0:12.961',-120.0628693
'0:12.965',-446.3428122
'0:12.969',-591.2914399
'0:12.973',-741.7702361
'0:12.977',-995.2848037
'0:12.980',-1198.445732
'0:12.984',-1347.032628
'0:12.988',-1243.851326
'0:12.992',-1136.01304
'0:12.996',-1184.765841
'0:13.000',-1350.234305
'0:13.004',-1354.018104
'0:13.008',-1187.967518
'0:13.012',-890.3571325
'0:13.016',-238.6704311
'0:13.020',-295.8640161
'0:13.023',-357.1324621
'0:13.027',72.61984457
'0:13.031',322.7872049
'0:13.035',622.2894898
'0:13.039',917.2803213
'0:13.043',720.231685
'0:13.047',-249.4397066
'0:13.051',-1526.035451
'0:13.055',-1688.5933
'0:13.059',-281.6020025
'0:13.063',386.5296737
'0:13.066',-30.56145764
'0:13.070',-206.3626044
'0:13.074',382.1637512
'0:13.078',575.4285881
'0:13.082',240.8533923
'0:13.086',21.68408185
'0:13.090',21.68408185
'0:13.094',483.4531537
'0:13.098',1277.468929
'0:13.102',2712.838723
'0:13.105',3512.384667
'0:13.109',3579.328812
'0:13.113',1008.673633
'0:13.117',-1079.110516
'0:13.121',-2281.776639
'0:13.125',-2734.668335
'0:13.129',-1518.758914
'0:13.133',354.9495008
'0:13.137',1264.225631
'0:13.141',1301.481503
'0:13.145',946.9685945
'0:13.148',561.7486975
'0:13.152',25.46788136
'0:13.156',-151.6430422
'0:13.160',21.39302035
'0:13.164',729.9822453
'0:13.168',410.6877783
'0:13.172',100.998341
'0:13.176',80.47850511
'0:13.180',-465.9894636
'0:13.184',-578.1936723
'0:13.188',-193.4103676
'0:13.191',-52.68213173
'0:13.195',-268.0676427
'0:13.199',-720.5227465
'0:13.203',-993.3929039
'0:13.207',-854.2655063
'0:13.211',-429.3157144
'0:13.215',-221.4978025
'0:13.219',-293.6810548
'0:13.223',-213.9302035
'0:13.227',62.14163053
'0:13.230',140.5827051
'0:13.234',97.50560293
'0:13.238',-361.9349769
'0:13.242',-658.2355852
'0:13.246',-538.7548389
'0:13.250',-301.5397153
'0:13.254',-119.044154
'0:13.258',-34.92738016
'0:13.262',-36.52821841
'0:13.266',182.0589691
'0:13.270',513.7235498
'0:13.273',396.4257648
'0:13.277',160.520418
'0:13.281',-63.45140728
'0:13.285',-247.6933376
'0:13.289',-251.6226679
'0:13.293',-335.7394417
'0:13.297',-384.7833047
'0:13.301',-374.3050907
'0:13.305',-646.8841866
'0:13.309',-841.022208
'0:13.313',-717.4666007
'0:13.316',-653.5786012
'0:13.320',-550.979422
'0:13.324',-174.3458393
'0:13.328',281.0198795
'0:13.332',390.1679425
'0:13.336',283.4939023
'0:13.340',-112.3497395
'0:13.344',-396.1347033
'0:13.348',-511.83165
'0:13.352',-539.9190849
'0:13.355',-485.9271764
'0:13.359',-646.1565329
'0:13.363',-550.979422
'0:13.367',-337.34028
'0:13.371',-452.0185115
'0:13.375',-2078.761242
'0:13.379',-4188.811596
'0:13.383',-4308.874465
'0:13.387',-4551.765288
'0:13.391',-1522.833775
'0:13.395',538.3182467
'0:13.398',-5.53016852
'0:13.402',-2084.436942
'0:13.406',-1809.092761
'0:13.410',-869.2551736
'0:13.414',-457.1120878
'0:13.418',-673.8073755
'0:13.422',-1167.738743
'0:13.426',-733.7660448
'0:13.430',2426.725267
'0:13.434',2977.559158
'0:13.438',3550.368193
'0:13.441',3841.575225
'0:13.445',3223.651658
'0:13.449',-343.8891638
'0:13.453',-1646.825974
'0:13.457',-323.9514509
'0:13.461',1173.705504
'0:13.465',1091.48063
'0:13.469',102.0170562
'0:13.473',-488.1101377
'0:13.477',259.1902669
'0:13.480',760.6892336
'0:13.484',384.055651
'0:13.488',22.26620485
'0:13.492',-83.97124312
'0:13.496',30.12486538
'0:13.500',631.3123963
'0:13.504',936.9269727
'0:13.508',858.0493058
'0:13.512',746.4272201
'0:13.516',673.3707833
'0:13.520',752.2484501
'0:13.523',895.4507087
'0:13.527',719.3585005
'0:13.531',202.5788049
'0:13.535',-193.7014291
'0:13.539',-364.1179381
'0:13.543',-261.9553512
'0:13.547',-207.9634427
'0:13.551',-327.7352505
'0:13.555',-448.9623658
'0:13.559',-345.490002
'0:13.563',7.71312978
'0:13.566',175.073493
'0:13.570',86.88185814
'0:13.574',-21.39302035
'0:13.578',-56.75699275
'0:13.582',81.49722036
'0:13.586',141.4558896
'0:13.590',150.7698577
'0:13.594',117.1522543
'0:13.598',147.5681812
'0:13.602',330.936927
'0:13.605',415.0537009
'0:13.609',346.7997788
'0:13.613',266.7578659
'0:13.617',297.4648543
'0:13.621',390.1679425
'0:13.625',446.3428122
'0:13.629',361.0617924
'0:13.633',80.18744361
'0:13.637',-232.5581395
'0:13.641',-441.9768897
'0:13.645',-688.9425736
'0:13.648',-1038.070844
'0:13.652',-1233.227581
'0:13.656',-1348.924528
'0:13.660',-1288.820328
'0:13.664',-1060.191518
'0:13.668',-915.9705446
'0:13.672',-986.1163664
'0:13.676',-1018.133132
'0:13.680',-881.1886952
'0:13.684',-819.4836569
'0:13.688',-679.0464825
'0:13.691',-628.5473121
'0:13.695',-673.3707833
'0:13.699',-835.3465087
'0:13.703',-881.7708182
'0:13.707',-920.4819979
'0:13.711',-967.7794918
'0:13.715',-585.4702099
'0:13.719',-152.9528189
'0:13.723',126.3206916
'0:13.727',626.9464738
'0:13.730',571.6447885
'0:13.734',-197.1941671
'0:13.738',-545.7403149
'0:13.742',-693.5995576
'0:13.746',-939.6920569
'0:13.750',-286.4045173
'0:13.754',600.7509387
'0:13.758',1152.603545
'0:13.762',1345.722851
'0:13.766',938.8188724
'0:13.770',675.262683
'0:13.773',1065.576156
'0:13.777',1911.255348
'0:13.781',2449.428064
'0:13.785',2012.108158
'0:13.789',551.4160142
'0:13.793',-838.8392467
'0:13.797',-1061.792357
'0:13.801',-362.5170999
'0:13.805',1147.80103
'0:13.809',2313.211282
'0:13.813',2238.554006
'0:13.816',1667.054749
'0:13.820',991.6465349
'0:13.824',254.3877521
'0:13.828',336.6126263
'0:13.832',872.7479116
'0:13.836',693.3084961
'0:13.840',597.5492622
'0:13.844',550.6883605
'0:13.848',504.5551125
'0:13.852',729.6911838
'0:13.855',638.0068108
'0:13.859',798.0906366
'0:13.863',695.2003958
'0:13.867',639.6076491
'0:13.871',632.0400501
'0:13.875',601.3330617
'0:13.879',459.295049
'0:13.883',317.6936287
'0:13.887',120.6449923
'0:13.891',-59.95866927
'0:13.895',-234.8866316
'0:13.898',-391.041127
'0:13.902',-243.0363536
'0:13.906',185.4061763
'0:13.910',631.7489886
'0:13.914',827.0512559
'0:13.918',694.3272113
'0:13.922',407.7771633
'0:13.926',155.1357802
'0:13.930',61.55950752
'0:13.934',-37.54693367
'0:13.938',-148.7324272
'0:13.941',-128.5036528
'0:13.945',78.87766685
'0:13.949',229.0654015
'0:13.953',268.0676427
'0:13.957',180.4581308
'0:13.961',129.2313066
'0:13.965',305.0324534
'0:13.969',823.9951102
'0:13.973',1338.155252
'0:13.977',1604.767587
'0:13.980',1490.234887
'0:13.984',1056.407719
'0:13.988',538.3182467
'0:13.992',122.2458305
'0:13.996',-217.714003
'0:14.000',-674.3894985
'0:14.004',-1069.651017
'0:14.008',-1574.642722
'0:14.012',-1845.184387
'0:14.016',-1839.363157
'0:14.020',-1810.6936
'0:14.023',-1615.827924
'0:14.027',-1165.555782
'0:14.031',-602.3517769
'0:14.035',-58.93995401
'0:14.039',361.3528539
'0:14.043',643.9735716
'0:14.047',730.4188375
'0:14.051',792.4149373
'0:14.055',612.9755217
'0:14.059',74.51174433
'0:14.063',-254.0966906
'0:14.066',-55.88380825
'0:14.070',646.5931251
'0:14.074',789.2132608
'0:14.078',-1074.162471
'0:14.082',-3187.851093
'0:14.086',-3051.63431
'0:14.090',-896.3238932
'0:14.094',-60.24973077
'0:14.098',360.6252001
'0:14.102',2253.398143
'0:14.105',3119.306109
'0:14.109',2862.735396
'0:14.113',1555.432663
'0:14.117',473.5570626
'0:14.121',240.2712693
'0:14.125',-1019.442908
'0:14.129',-1826.701982
'0:14.133',-967.7794918
'0:14.137',627.965189
'0:14.141',1872.544169
'0:14.145',1981.110109
'0:14.148',1340.629275
'0:14.152',786.8847688
'0:14.156',659.5453619
'0:14.160',1194.952994
'0:14.164',1659.48715
'0:14.168',1873.853945
'0:14.172',2053.584422
'0:14.176',1140.233431
'0:14.180',382.891405
'0:14.184',40.89414093
'0:14.188',-92.84861891
'0:14.191',249.0031144
'0:14.195',856.5939983
'0:14.199',1377.011963
'0:14.203',1921.879093
'0:14.207',1656.285473
'0:14.211',1069.651017
'0:14.215',792.2694065
'0:14.219',814.0990191
'0:14.223',877.1138342
'0:14.227',737.5498443
'0:14.230',475.7400239
'0:14.234',455.9478418
'0:14.238',472.6838781
'0:14.242',275.0531187
'0:14.246',-154.5536572
'0:14.250',-376.1969904
'0:14.254',-482.1433769
'0:14.258',-633.9319498
'0:14.262',-684.1400588
'0:14.266',-816.7185726
'0:14.270',-417.2366621
'0:14.273',372.4131909
'0:14.277',848.007684
'0:14.281',876.8227727
'0:14.285',760.9802951
'0:14.289',577.6115493
'0:14.293',226.8824403
'0:14.297',76.98576709
'0:14.301',401.0827488
'0:14.305',792.9970603
'0:14.309',1084.495154
'0:14.313',1145.327008
'0:14.316',980.5861979
'0:14.320',1100.649067
'0:14.324',1281.834852
'0:14.328',1059.900457
'0:14.332',760.1071106
'0:14.336',230.9573013
'0:14.340',-74.07515208
'0:14.344',-419.1285619
'0:14.348',-590.2727246
'0:14.352',-443.1411357
'0:14.355',-242.7452921
'0:14.359',-157.3187415
'0:14.363',-384.3467125
'0:14.367',-648.1939634
'0:14.371',-545.5947842
'0:14.375',-468.1724248
'0:14.379',-472.2472859
'0:14.383',-616.904852
'0:14.387',-1023.226708
'0:14.391',-1564.892162
'0:14.395',-2368.804028
'0:14.398',-3164.420642
'0:14.402',-3232.820095
'0:14.406',-2616.788427
'0:14.410',-1230.316966
'0:14.414',-81.35168961
'0:14.418',1382.833193
'0:14.422',2078.761242
'0:14.426',1252.146579
'0:14.430',-103.908956
'0:14.434',-308.2341299
'0:14.438',761.9990104
'0:14.441',2307.09899
'0:14.445',2204.35428
'0:14.449',2139.302035
'0:14.453',2392.234479
'0:14.457',2846.727013
'0:14.461',3043.339058
'0:14.465',1598.800827
'0:14.469',215.2399802
'0:14.473',-906.5110458
'0:14.477',-1799.924324
'0:14.480',-1802.98047
'0:14.484',-1013.330617
'0:14.488',-85.86314288
'0:14.492',1059.172803
'0:14.496',1704.019559
'0:14.500',1510.609192
'0:14.504',1154.786506
'0:14.508',1006.781733
'0:14.512',1220.566406
'0:14.516',587.6531711
'0:14.520',429.6067759
'0:14.523',759.8160491
'0:14.527',1044.474197
'0:14.531',923.8292051
'0:14.535',306.1966994
'0:14.539',-170.2709783
'0:14.543',-119.044154
'0:14.547',-53.55531624
'0:14.551',-5.82123003
'0:14.555',-234.8866316
'0:14.559',-457.1120878
'0:14.563',-481.8523154
'0:14.566',-400.7916873
'0:14.570',-298.3380388
'0:14.574',-475.7400239
'0:14.578',-683.5579358
'0:14.582',-720.5227465
'0:14.586',-639.8987106
'0:14.590',-403.1201793
'0:14.594',-262.6830049
'0:14.598',-251.9137294
'0:14.602',-195.0112059
'0:14.605',83.09805862
'0:14.609',261.0821667
'0:14.613',-127.3394068
'0:14.617',-509.0665658
'0:14.621',-606.7176995
'0:14.625',-708.2981634
'0:14.629',-913.7875833
'0:14.633',-1037.19766
'0:14.637',-992.2286579
'0:14.641',-941.8750182
'0:14.645',-636.9880956
'0:14.648',-564.0771895
'0:14.652',-719.649562
'0:14.656',-591.5825014
'0:14.660',-458.712926
'0:14.664',-311.7268679
'0:14.668',-36.52821841
'0:14.672',288.0053555
'0:14.676',83.38912012
'0:14.680',-357.1324621
'0:14.684',-887.8831097
'0:14.688',-1032.104084
'0:14.691',-1317.926478
'0:14.695',-1659.196088
'0:14.699',-1592.106412
'0:14.703',-1433.914486
'0:14.707',-1249.235964
'0:14.711',-1012.166371
'0:14.715',-684.4311203
'0:14.719',-249.4397066
'0:14.723',493.2037139
'0:14.727',1354.018104
'0:14.730',1631.254184
'0:14.734',1071.251856
'0:14.738',-221.788864
'0:14.742',-1963.355357
'0:14.746',-1998.719329
'0:14.750',-1563.000262
'0:14.754',-1271.065576
'0:14.758',-1087.114707
'0:14.762',70.00029106
'0:14.766',904.3280845
'0:14.770',1425.182641
'0:14.773',2551.008528
'0:14.777',3134.150246
'0:14.781',3115.813371
'0:14.785',2250.487528
'0:14.789',1812.585499
'0:14.793',1693.977938
'0:14.797',1524.434613
'0:14.801',1132.665832
'0:14.805',260.7911052
'0:14.809',258.6081439
'0:14.813',714.5559857
'0:14.816',1021.916931
'0:14.820',1049.131181
'0:14.824',510.9584655
'0:14.828',80.18744361
'0:14.832',258.4626132
'0:14.836',-554.1810985
'0:14.840',-1367.261402
'0:14.844',-1131.647117
'0:14.848',-496.696452
'0:14.852',-687.9238583
'0:14.855',-819.7747184
'0:14.859',-295.2818931
'0:14.863',34.92738016
'0:14.867',129.8134296
'0:14.871',96.63241843
'0:14.875',161.3936025
'0:14.879',407.7771633
'0:14.883',475.4489624
'0:14.887',174.0547778
'0:14.891',-276.9450185
'0:14.895',-510.2308118
'0:14.898',-465.1162791
'0:14.902',-369.5025759
'0:14.906',-415.6358239
'0:14.910',-655.7615624
'0:14.914',-427.7148762
'0:14.918',-39.72989493
'0:14.922',-623.7447973
'0:14.926',-329.3360887
'0:14.930',-70.72794481
'0:14.934',-27.35978112
'0:14.938',18.48240533
'0:14.941',244.3461303
'0:14.945',358.1511773
'0:14.949',222.8075792
'0:14.953',45.9877172
'0:14.957',113.0773933
'0:14.961',293.2444626
'0:14.965',233.5768548
'0:14.969',189.3355066
'0:14.973',492.9126524
'0:14.977',783.2465
'0:14.980',1382.687662
'0:14.984',1883.458975
'0:14.988',2139.156504
'0:14.992',1967.430218
'0:14.996',1660.360334
'0:15.000',1326.512792
'0:15.004',946.677533
'0:15.008',408.3592863
'0:15.012',-188.8989143
'0:15.016',-651.6867014
'0:15.020',-845.097069
'0:15.023',-947.6962482
'0:15.027',-1014.058271
'0:15.031',-965.8875921
'0:15.035',-800.8557208
'0:15.039',-569.025235
'0:15.043',-345.490002
'0:15.047',-492.4760602
'0:15.051',-631.7489886
'0:15.055',-832.1448322
'0:15.059',-1180.69098
'0:15.063',-1819.570975
'0:15.066',-2754.023925
'0:15.070',-4035.131123
'0:15.074',-4396.192916
'0:15.078',-2799.57505
'0:15.082',1087.114707
'0:15.086',3316.645807
'0:15.090',1259.132055
'0:15.094',965.8875921
'0:15.098',653.4330704
'0:15.102',334.7207265
'0:15.105',1540.297465
'0:15.109',1958.989434
'0:15.113',2331.548156
'0:15.117',2534.563553
'0:15.121',878.2780802
'0:15.125',-19.06452833
'0:15.129',729.4001223
'0:15.133',791.1051605
'0:15.137',358.7333004
'0:15.141',-62.43269203
'0:15.145',367.3196146
'0:15.148',914.8062986
'0:15.152',1064.557441
'0:15.156',811.6249964
'0:15.160',619.9609978
'0:15.164',-130.8321448
'0:15.168',-673.516314
'0:15.172',-1141.543208
'0:15.176',-1709.113136
'0:15.180',-2049.655092
'0:15.184',-1240.067526
'0:15.188',229.0654015
'0:15.191',1538.696627
'0:15.195',1626.015077
'0:15.199',1561.836016
'0:15.203',785.4294613
'0:15.207',-272.7246267
'0:15.211',-323.9514509
'0:15.215',-8.44078354
'0:15.219',51.95447798
'0:15.223',-65.92543004
'0:15.227',-33.76313415
'0:15.230',78.87766685
'0:15.234',224.699479
'0:15.238',272.1425037
'0:15.242',39.43883343
'0:15.246',-364.7000611
'0:15.250',-523.1830486
'0:15.254',-611.5202142
'0:15.258',-864.7437204
'0:15.262',-1170.212766
'0:15.266',-1471.315889
'0:15.270',-1634.164799
'0:15.273',-1654.102512
'0:15.277',-1380.504701
'0:15.281',-1086.823646
'0:15.285',-928.9227814
'0:15.289',-743.0800128
'0:15.293',-454.638065
'0:15.297',-254.3877521
'0:15.301',-442.2679512
'0:15.305',-875.5129959
'0:15.309',-1210.961376
'0:15.313',-860.3777978
'0:15.316',-454.2014728
'0:15.320',-140.8737666
'0:15.324',9.60502954
'0:15.328',-753.9948191
'0:15.332',-618.3601595
'0:15.336',-171.8718165
'0:15.340',-309.3983759
'0:15.344',-577.3204878
'0:15.348',-585.9068021
'0:15.352',-466.2805251
'0:15.355',-488.6922607
'0:15.359',-608.0274762
'0:15.363',-633.2042961
'0:15.367',-702.7679949
'0:15.371',-737.9864365
'0:15.375',-823.7040487
'0:15.379',-1051.023081
'0:15.383',-1369.153302
'0:15.387',-1480.193265
'0:15.391',-1265.826469
'0:15.395',-973.1641296
'0:15.398',-1059.318334
'0:15.402',-1764.414821
'0:15.406',-2225.892831
'0:15.410',-1482.958349
'0:15.414',-461.9146026
'0:15.418',61.85056903
'0:15.422',978.6942981
'0:15.426',1623.104462
'0:15.430',1494.455278
'0:15.434',1824.955613
'0:15.438',3210.990482
'0:15.441',2440.987281
'0:15.445',-755.3045959
'0:15.449',-2150.362372
'0:15.453',-1309.776756
'0:15.457',861.2509823
'0:15.461',1995.663184
'0:15.465',2458.887563
'0:15.469',2761.591524
'0:15.473',2576.185348
'0:15.477',1278.051052
'0:15.480',-489.4199144
'0:15.484',-662.7470385
'0:15.488',123.4100766
'0:15.492',130.8321448
'0:15.496',-338.7955875
'0:15.500',-202.5788049
'0:15.504',290.7704398
'0:15.508',258.4626132
'0:15.512',300.2299386
'0:15.516',267.6310504
'0:15.520',286.1134558
'0:15.523',126.0296301
'0:15.527',-160.2293565
'0:15.531',-367.3196146
'0:15.535',-324.2425124
'0:15.539',-11.7879908
'0:15.543',742.9344821
'0:15.547',1094.391245
'0:15.551',688.6515121
'0:15.555',284.5126175
'0:15.559',251.9137294
'0:15.563',404.5754868
'0:15.566',502.3721512
'0:15.570',386.2386122
'0:15.574',-281.6020025
'0:15.578',-974.7649678
'0:15.582',-949.1515557
'0:15.586',-560.1478592
'0:15.590',-274.6165265
'0:15.594',-304.4503304
'0:15.598',-340.833018
'0:15.602',-102.3081177
'0:15.605',228.4832785
'0:15.609',371.9765987
'0:15.613',247.4022761
'0:15.617',-84.26230462
'0:15.621',-50.20810897
'0:15.625',312.6000524
'0:15.629',592.1646244
'0:15.633',571.353727
'0:15.637',422.6212999
'0:15.641',395.698111
'0:15.645',478.3595774
'0:15.648',485.1995227
'0:15.652',244.3461303
'0:15.656',-127.6304683
'0:15.660',-176.3832698
'0:15.664',-143.3477894
'0:15.668',-19.21005909
'0:15.672',-97.94219519
'0:15.676',-390.7500655
'0:15.680',-635.2417266
'0:15.684',-568.1520505
'0:15.688',-432.5173909
'0:15.691',-611.5202142
'0:15.695',-788.485607
'0:15.699',-860.0867363
'0:15.703',-917.8624443
'0:15.707',-799.6914748
'0:15.711',-704.8054254
'0:15.715',-716.1568239
'0:15.719',-748.4646506
'0:15.723',-753.7037576
'0:15.727',-787.321361
'0:15.730',-900.2532235
'0:15.734',-1191.751317
'0:15.738',-1695.287714
'0:15.742',-2483.045668
'0:15.746',-3852.3445
'0:15.750',-4254.882557
'0:15.754',-4423.989289
'0:15.758',-2583.461886
'0:15.762',639.6076491
'0:15.766',1618.738539
'0:15.770',1936.432168
'0:15.773',2019.966819
'0:15.777',879.2967954
'0:15.781',403.4112408
'0:15.785',781.3546002
'0:15.789',1265.680938
'0:15.793',1772.419012
'0:15.797',1850.423494
'0:15.801',756.6143726
'0:15.805',620.5431208
'0:15.809',2346.974416
'0:15.813',3693.570451
'0:15.816',3660.38944
'0:15.820',2826.352708
'0:15.824',607.7364147
'0:15.828',-650.9590477
'0:15.832',-1059.172803
'0:15.836',-701.6037489
'0:15.840',241.1444538
'0:15.844',716.4478854
'0:15.848',523.6196408
'0:15.852',205.3438892
'0:15.855',-197.4852286
'0:15.859',-50.79023198
'0:15.863',567.5699275
'0:15.867',-137.6720901
'0:15.871',-149.0234887
'0:15.875',-272.7246267
'0:15.879',885.9912099
'0:15.883',458.712926
'0:15.887',105.8008557
'0:15.891',-434.1182292
'0:15.895',-874.9308729
'0:15.898',-1133.830078
'0:15.902',-946.09541
'0:15.906',-483.4531537
'0:15.910',-141.1648281
'0:15.914',-254.0966906
'0:15.918',-410.6877783
'0:15.922',-305.6145764
'0:15.926',60.24973077
'0:15.930',286.6955788
'0:15.934',306.6332916
'0:15.938',300.2299386
'0:15.941',522.3098641
'0:15.945',581.9774718
'0:15.949',575.4285881
'0:15.953',661.4372617
'0:15.957',268.6497657
'0:15.961',-408.5048171
'0:15.965',-778.4439852
'0:15.969',-996.8856419
'0:15.973',-1122.47868
'0:15.977',-1144.890415
'0:15.980',-976.9479291
'0:15.984',-1223.622551
'0:15.988',-1343.248828
'0:15.992',-1225.514451
'0:15.996',-1100.066944
'0:16.000',-804.9305818
'0:16.004',-124.1377303
'0:16.008',585.7612714
'0:16.012',1000.814972
'0:16.016',966.6152458
'0:16.020',822.3942719
'0:16.023',507.756789
'0:16.027',104.7821405
'0:16.031',-412.2886166
'0:16.035',-1091.771691
'0:16.039',-1739.238001
'0:16.043',-2149.634718
'0:16.047',-2224.291993
'0:16.051',-2183.543383
'0:16.055',-2208.865733
'0:16.059',-2178.740868
'0:16.063',-2051.692523
'0:16.066',-1460.546614
'0:16.070',-836.2196932
'0:16.074',-711.9364322
'0:16.078',-703.2045871
'0:16.082',-615.8861367
'0:16.086',-325.5522892
'0:16.090',768.6934249
'0:16.094',2794.772535
'0:16.098',3527.228803
'0:16.102',-2101.318509
'0:16.105',-3751.346159
'0:16.109',-4080.97331
'0:16.113',-3356.375702
'0:16.117',2850.510813
'0:16.121',3338.038828
'0:16.125',-476.7587391
'0:16.129',-1527.927351
'0:16.133',-211.7472422
'0:16.137',578.1936723
'0:16.141',1179.381203
'0:16.145',2077.160404
'0:16.148',2476.060192
'0:16.152',1453.852199
'0:16.156',-13.67989056
'0:16.160',-205.6349507
'0:16.164',962.1037925
'0:16.168',1671.857263
'0:16.172',1069.359956
'0:16.176',121.6637075
'0:16.180',401.8104025
'0:16.184',1504.205839
'0:16.188',2017.783858
'0:16.191',1143.726169
'0:16.195',-98.52431819
'0:16.199',-480.5425386
'0:16.203',42.20391769
'0:16.207',434.7003522
'0:16.211',275.3441802
'0:16.215',-210.4374654
'0:16.219',-461.6235411
'0:16.223',173.1815933
'0:16.227',772.7682859
'0:16.230',554.47216
'0:16.234',-66.50755305
'0:16.238',-410.6877783
'0:16.242',-148.4413657
'0:16.246',261.6642897
'0:16.250',383.1824665
'0:16.254',129.8134296
'0:16.258',-132.5785138
'0:16.262',23.5759816
'0:16.266',268.9408272
'0:16.270',176.6743313
'0:16.273',-225.7181943
'0:16.277',-601.6241232
'0:16.281',-524.2017638
'0:16.285',-250.6039526
'0:16.289',-128.5036528
'0:16.293',-362.8081614
'0:16.297',-539.3369619
'0:16.301',-386.2386122
'0:16.305',-1.74636901
'0:16.309',254.9698751
'0:16.313',225.281602
'0:16.316',127.9215298
'0:16.320',373.5774369
'0:16.324',574.1188113
'0:16.328',615.8861367
'0:16.332',402.101464
'0:16.336',225.281602
'0:16.340',142.4746049
'0:16.344',133.3061676
'0:16.348',246.2380301
'0:16.352',121.6637075
'0:16.355',-154.8447187
'0:16.359',-316.3838519
'0:16.363',-504.5551125
'0:16.367',-649.6492709
'0:16.371',-731.292022
'0:16.375',-938.0912187
'0:16.379',-933.1431732
'0:16.383',-724.0154845
'0:16.387',-705.9696714
'0:16.391',-781.6456617
'0:16.395',-856.3029368
'0:16.398',-880.6065722
'0:16.402',-842.6230463
'0:16.406',-933.1431732
'0:16.410',-1296.096865
'0:16.414',-1901.068196
'0:16.418',-2260.965742
'0:16.422',-1927.409262
'0:16.426',-670.3146375
'0:16.430',224.699479
'0:16.434',627.8196583
'0:16.438',117.4433158
'0:16.441',-704.0777716
'0:16.445',-1185.347964
'0:16.449',-730.4188375
'0:16.453',14.40754431
'0:16.457',652.5598859
'0:16.461',1073.871409
'0:16.465',1717.408388
'0:16.469',2342.171901
'0:16.473',2284.396193
'0:16.477',1992.752569
'0:16.480',1583.95669
'0:16.484',936.9269727
'0:16.488',440.9581745
'0:16.492',223.8262945
'0:16.496',319.0034054
'0:16.500',794.88896
'0:16.504',919.4632826
'0:16.508',818.0283494
'0:16.512',827.4878482
'0:16.516',729.4001223
'0:16.520',759.3794569
'0:16.523',570.0439503
'0:16.527',-41.18520243
'0:16.531',-587.0710481
'0:16.535',-651.6867014
'0:16.539',-478.3595774
'0:16.543',103.908956
'0:16.547',965.8875921
'0:16.551',1119.422534
'0:16.555',952.0621707
'0:16.559',784.410746
'0:16.563',686.3230201
'0:16.566',710.7721862
'0:16.570',779.4627005
'0:16.574',583.8693716
'0:16.578',250.0218296
'0:16.582',196.1754519
'0:16.586',73.20196758
'0:16.590',-17.90028233
'0:16.594',128.9402451
'0:16.598',491.3118142
'0:16.602',675.4082138
'0:16.605',633.9319498
'0:16.609',447.652589
'0:16.613',519.9813721
'0:16.617',639.0255261
'0:16.621',858.7769596
'0:16.625',991.6465349
'0:16.629',1012.457432
'0:16.633',1051.023081
'0:16.637',1342.957767
'0:16.641',1688.011177
'0:16.645',1869.196961
'0:16.648',1912.710656
'0:16.652',1606.659487
'0:16.656',1209.215007
'0:16.660',880.0244492
'0:16.664',530.1685246
'0:16.668',464.3886253
'0:16.672',445.4696277
'0:16.676',539.9190849
'0:16.680',560.1478592
'0:16.684',289.8972553
'0:16.688',-91.82990366
'0:16.691',-637.4246878
'0:16.695',-1164.537067
'0:16.699',-1434.933201
'0:16.703',-1522.833775
'0:16.707',-1646.534913
'0:16.711',-1612.335186
'0:16.715',-1391.565038
'0:16.719',-1079.83817
'0:16.723',-799.5459441
'0:16.727',-381.2905667
'0:16.730',-62.72375353
'0:16.734',-104.2000175
'0:16.738',-316.3838519
'0:16.742',-356.8414006
'0:16.746',-305.3235149
'0:16.750',-198.7950054
'0:16.754',-342.579387
'0:16.758',-922.6649591
'0:16.762',-2070.61152
'0:16.766',-3147.975667
'0:16.770',-3172.424833
'0:16.773',-2126.204267
'0:16.777',-259.4813284
'0:16.781',44.09581745
'0:16.785',-2564.542888
'0:16.789',-2744.418896
'0:16.793',-741.4791746
'0:16.797',-745.8450971
'0:16.801',-506.7380738
'0:16.805',151.0609192
'0:16.809',890.9392555
'0:16.813',1704.747213
'0:16.816',2141.193934
'0:16.820',1968.448933
'0:16.824',1532.584335
'0:16.828',962.1037925
'0:16.832',865.0347819
'0:16.836',1189.859417
'0:16.840',1717.990511
'0:16.844',2166.807346
'0:16.848',2216.142271
'0:16.852',1680.298047
'0:16.855',932.1244579
'0:16.859',936.4903804
'0:16.863',1528.509474
'0:16.867',1724.975987
'0:16.871',1290.712227
'0:16.875',700.5850336
'0:16.879',465.9894636
'0:16.883',878.4236109
'0:16.887',1446.721192
'0:16.891',1735.017609
'0:16.895',1671.12961
'0:16.898',1786.681026
'0:16.902',2050.091684
'0:16.906',2204.063219
'0:16.910',2018.365981
'0:16.914',1564.892162
'0:16.918',1183.892657
'0:16.922',969.3803301
'0:16.926',1130.773933
'0:16.930',759.0883954
'0:16.934',62.72375353
'0:16.938',-356.2592776
'0:16.941',-385.0743662
'0:16.945',-320.4587129
'0:16.949',-178.1296388
'0:16.953',-300.6665308
'0:16.957',-382.4548127
'0:16.961',-327.444189
'0:16.965',-51.95447798
'0:16.969',116.8611928
'0:16.973',145.9673429
'0:16.977',373.5774369
'0:16.980',660.1274849
'0:16.984',962.8314463
'0:16.988',1180.69098
'0:16.992',1451.960299
'0:16.996',1730.942748
'0:17.000',2124.603429
'0:17.004',2523.212155
'0:17.008',2784.00326
'0:17.012',2612.276974
'0:17.016',2052.565707
'0:17.020',1663.853072
'0:17.023',1593.70725
'0:17.027',1545.24551
'0:17.031',1417.906104
'0:17.035',1368.571179
'0:17.039',1081.439008
'0:17.043',823.4129872
'0:17.047',500.4802515
'0:17.051',232.849201
'0:17.055',178.2751695
'0:17.059',54.57403149
'0:17.063',45.6966557
'0:17.066',-46.27877871
'0:17.070',-126.9028146
'0:17.074',-160.8114795
'0:17.078',-206.6536659
'0:17.082',-693.3084961
'0:17.086',-1547.574002
'0:17.090',-2692.318887
'0:17.094',-3879.558751
'0:17.098',-4250.080042
'0:17.102',-3893.966295
'0:17.105',-2836.539861
'0:17.109',-1408.737666
'0:17.113',-622.5805513
'0:17.117',-203.8885817
'0:17.121',682.5392205
'0:17.125',1594.289373
'0:17.129',2007.596705
'0:17.133',1682.481008
'0:17.137',767.9657712
'0:17.141',-269.5229502
'0:17.145',-384.3467125
'0:17.148',121.6637075
'0:17.152',745.5540356
'0:17.156',1490.525948
'0:17.160',1299.589603
'0:17.164',521.5822103
'0:17.168',-495.3866752
'0:17.172',-1376.42984
'0:17.176',-1964.665134
'0:17.180',-1980.382455
'0:17.184',-1579.445237
'0:17.188',-900.1076928
'0:17.191',-231.9760165
'0:17.195',361.9349769
'0:17.199',996.3035189
'0:17.203',1394.766714
'0:17.207',1707.221236
'0:17.211',1522.251652
'0:17.215',1180.69098
'0:17.219',1141.543208
'0:17.223',802.7476206
'0:17.227',451.145327
'0:17.230',433.9726984
'0:17.234',452.4551038
'0:17.238',479.8148849
'0:17.242',341.1240795
'0:17.246',355.6771546
'0:17.250',219.3148412
'0:17.254',66.50755305
'0:17.258',27.06871962
'0:17.262',-31.72570364
'0:17.266',-248.7120529
'0:17.270',-452.0185115
'0:17.273',-582.4140641
'0:17.277',-658.2355852
'0:17.281',-780.918008
'0:17.285',-1009.255756
'0:17.289',-1170.212766
'0:17.293',-1298.279827
'0:17.297',-1065.867218
'0:17.301',-823.4129872
'0:17.305',-546.9045609
'0:17.309',-314.4919522
'0:17.313',-152.9528189
'0:17.316',96.92347993
'0:17.320',303.4316151
'0:17.324',406.1763251
'0:17.328',563.786128
'0:17.332',764.9096254
'0:17.336',937.8001572
'0:17.340',1252.874232
'0:17.344',1314.724801
'0:17.348',1252.728702
'0:17.352',1210.815845
'0:17.355',1024.099892
'0:17.359',802.4565591
'0:17.363',589.9816631
'0:17.367',544.1394767
'0:17.371',730.127776
'0:17.375',833.7456705
'0:17.379',1025.991792
'0:17.383',1093.954653
'0:17.387',1174.724219
'0:17.391',1280.961667
'0:17.395',1236.720319
'0:17.398',1438.134878
'0:17.402',1482.376226
'0:17.406',1225.951043
'0:17.410',731.5830835
'0:17.414',269.668481
'0:17.418',-136.7989056
'0:17.422',-588.9629479
'0:17.426',-1259.423116
'0:17.430',-2016.474081
'0:17.434',-2246.121606
'0:17.438',-1950.40312
'0:17.441',-1794.539686
'0:17.445',-1739.09247
'0:17.449',-1921.29697
'0:17.453',-2338.09704
'0:17.457',-2474.750415
'0:17.461',-2438.367727
'0:17.465',-2466.891754
'0:17.469',-1677.241901
'0:17.473',-489.4199144
'0:17.477',922.9560206
'0:17.480',3333.963967
'0:17.484',3541.054225
'0:17.488',3810.286113
'0:17.492',2570.218587
'0:17.496',-546.3224379
'0:17.500',-3193.963384
'0:17.504',-3765.317112
'0:17.508',-2605.291498
'0:17.512',-994.4116192
'0:17.516',476.4676776
'0:17.520',1015.659109
'0:17.523',875.2219344
'0:17.527',432.0807987
'0:17.531',-73.20196758
'0:17.535',-205.0528277
'0:17.539',83.38912012
'0:17.543',266.4668044
'0:17.547',220.3335565
'0:17.551',217.714003
'0:17.555',293.6810548
'0:17.559',380.5629129
'0:17.563',324.9701662
'0:17.566',265.4480892
'0:17.570',62.14163053
'0:17.574',-198.5039439
'0:17.578',-527.4034404
'0:17.582',-996.3035189
'0:17.586',-1408.737666
'0:17.590',-1645.807259
'0:17.594',-1713.91565
'0:17.598',-1552.95864
'0:17.602',-1395.348837
'0:17.605',-1271.065576
'0:17.609',-1098.466106
'0:17.613',-812.9347731
'0:17.617',-536.4263469
'0:17.621',-281.893064
'0:17.625',-141.8924819
'0:17.629',-157.609803
'0:17.633',-229.356463
'0:17.637',-250.3128911
'0:17.641',-259.1902669
'0:17.645',-214.5123265
'0:17.648',-136.0712519
'0:17.652',32.45335739
'0:17.656',78.58660535
'0:17.660',81.06062811
'0:17.664',102.0170562
'0:17.668',560.29339
'0:17.672',211.7472422
'0:17.676',213.9302035
'0:17.680',531.1872399
'0:17.684',587.6531711
'0:17.688',633.9319498
'0:17.691',533.9523241
'0:17.695',431.7897372
'0:17.699',262.6830049
'0:17.703',-112.058678
'0:17.707',-386.2386122
'0:17.711',-535.5531624
'0:17.715',-536.8629391
'0:17.719',-554.1810985
'0:17.723',-825.5959484
'0:17.727',-761.2713566
'0:17.730',-561.7486975
'0:17.734',-518.2350031
'0:17.738',-1516.867014
'0:17.742',-1680.006985
'0:17.746',-1674.622348
'0:17.750',-1565.619815
'0:17.754',-1525.307798
'0:17.758',-1546.264226
'0:17.762',-1383.706377
'0:17.766',-969.8169223
'0:17.770',-673.8073755
'0:17.773',286.6955788
'0:17.777',582.1230026
'0:17.781',755.7411881
'0:17.785',1700.672352
'0:17.789',2266.932503
'0:17.793',835.0554472
'0:17.797',-43.80475594
'0:17.801',266.1757429
'0:17.805',-227.610094
'0:17.809',-1144.017231
'0:17.813',-1517.158076
'0:17.816',-822.9763949
'0:17.820',96.05029543
'0:17.824',55.1561545
'0:17.828',-309.1073144
'0:17.832',-802.4565591
'0:17.836',-1233.518642
'0:17.840',-1351.107489
'0:17.844',-1378.030678
'0:17.848',-1281.54379
'0:17.852',-699.7118491
'0:17.855',-208.8366272
'0:17.859',-140.8737666
'0:17.863',-225.5726635
'0:17.867',-224.4084175
'0:17.871',378.6710132
'0:17.875',1108.216666
'0:17.879',772.1861629
'0:17.883',18.19134383
'0:17.887',-78.00448235
'0:17.891',19.79218209
'0:17.895',36.81927991
'0:17.898',50.06257822
'0:17.902',-137.0899671
'0:17.906',-26.48659662
'0:17.910',-210.4374654
'0:17.914',-419.8562156
'0:17.918',-518.0894723
'0:17.922',-433.3905754
'0:17.926',-339.2321798
'0:17.930',-258.8992054
'0:17.934',-32.01676514
'0:17.938',183.2232151
'0:17.941',137.9631516
'0:17.945',106.3829787
'0:17.949',189.6265681
'0:17.953',271.41485
'0:17.957',570.0439503
'0:17.961',901.4174695
'0:17.965',1156.678406
'0:17.969',1270.774515
'0:17.973',1168.902989
'0:17.977',914.3697063
'0:17.980',772.4772244
'0:17.984',853.3923218
'0:17.988',859.9412056
'0:17.992',670.023576
'0:17.996',489.7109759
'0:18.000',183.6598073
'0:18.004',-103.1813022
'0:18.008',-82.07934337
'0:18.012',596.2394854
'0:18.016',1071.542917
'0:18.020',1258.840993
'0:18.023',1274.994906
'0:18.027',1132.22924
'0:18.031',1188.840702
'0:18.035',1179.672265
'0:18.039',1304.392118
'0:18.043',1021.62587
'0:18.047',581.1042873
'0:18.051',239.8346771
'0:18.055',86.73632739
'0:18.059',-37.40140292
'0:18.063',-207.2357889
'0:18.066',-200.3958436
'0:18.070',-301.5397153
'0:18.074',-423.9310766
'0:18.078',-445.4696277
'0:18.082',-356.2592776
'0:18.086',-236.7785313
'0:18.090',-175.073493
'0:18.094',-266.1757429
'0:18.098',-320.1676514
'0:18.102',-815.1177344
'0:18.105',-2001.338883
'0:18.109',-3073.027331
'0:18.113',-3465.523765
'0:18.117',-2479.843991
'0:18.121',473.8481241
'0:18.125',2109.468231
'0:18.129',501.7900282
'0:18.133',-2314.375528
'0:18.137',-4103.093984
'0:18.141',-4594.84239
'0:18.145',-4864.947463
'0:18.148',-1258.549932
'0:18.152',3044.648834
'0:18.156',3762.843089
'0:18.160',3815.37969
'0:18.164',3769.391973
'0:18.168',3686.584975
'0:18.172',2914.689874
'0:18.176',2194.60372
'0:18.180',1897.284396
'0:18.184',1766.015659
'0:18.188',1407.42789
'0:18.191',925.8666356
'0:18.195',376.1969904
'0:18.199',102.8902407
'0:18.203',69.12710656
'0:18.207',102.8902407
'0:18.211',-216.4042262
'0:18.215',-337.6313415
'0:18.219',-392.3509038
'0:18.223',-602.6428384
'0:18.227',-507.174666
'0:18.230',-366.0098379
'0:18.234',2.03743051
'0:18.238',479.2327619
'0:18.242',445.7606892
'0:18.246',127.9215298
'0:18.250',-123.1190151
'0:18.254',-340.3964258
'0:18.258',-468.4634863
'0:18.262',-842.6230463
'0:18.266',-1118.403819
'0:18.270',-1232.499927
'0:18.273',-1147.80103
'0:18.277',-914.3697063
'0:18.281',-861.9786361
'0:18.285',-960.2118928
'0:18.289',-937.2180342
'0:18.293',-763.8909102
'0:18.297',-734.202637
'0:18.301',-863.4339436
'0:18.305',-956.8646855
'0:18.309',-953.9540705
'0:18.313',-812.9347731
'0:18.316',-616.4682597
'0:18.320',-490.7296912
'0:18.324',-390.0224117
'0:18.328',-302.4128999
'0:18.332',93.43074192
'0:18.336',353.6397241
'0:18.340',417.6732544
'0:18.344',316.3838519
'0:18.348',207.3813197
'0:18.352',225.7181943
'0:18.355',188.0257298
'0:18.359',136.7989056
'0:18.363',92.12096516
'0:18.367',33.3265419
'0:18.371',-137.9631516
'0:18.375',-357.5690543
'0:18.379',-628.5473121
'0:18.383',-886.2822714
'0:18.387',-1007.072794
'0:18.391',-1082.021131
'0:18.395',-1115.493204
'0:18.398',-1107.343482
'0:18.402',-1147.218907
'0:18.406',-1193.934278
'0:18.410',-1154.786506
'0:18.414',-1054.515819
'0:18.418',-942.8937335
'0:18.422',-911.1680298
'0:18.426',-971.7088221
'0:18.430',-1156.678406
'0:18.434',-1418.197165
'0:18.438',-1681.025701
'0:18.441',-2012.690281
'0:18.445',-2242.628867
'0:18.449',-2436.475827
'0:18.453',-1975.725471
'0:18.457',-877.4048957
'0:18.461',409.9601246
'0:18.465',216.8408185
'0:18.469',-273.4522805
'0:18.473',-362.2260384
'0:18.477',-434.7003522
'0:18.480',-410.3967168
'0:18.484',252.4958524
'0:18.488',1652.210612
'0:18.492',2204.35428
'0:18.496',2048.199785
'0:18.500',2619.844573
'0:18.504',2991.821172
'0:18.508',1871.962046
'0:18.512',-588.0897634
'0:18.516',-1479.465611
'0:18.520',-817.0096341
'0:18.523',-303.4316151
'0:18.527',231.2483628
'0:18.531',739.1506825
'0:18.535',872.0202579
'0:18.539',823.7040487
'0:18.543',693.3084961
'0:18.547',604.8257997
'0:18.551',652.5598859
'0:18.555',807.2590738
'0:18.559',579.7945106
'0:18.563',103.908956
'0:18.566',166.1961172
'0:18.570',381.5816282
'0:18.574',473.8481241
'0:18.578',155.4268417
'0:18.582',-237.6517158
'0:18.586',-258.8992054
'0:18.590',-121.6637075
'0:18.594',-79.45978985
'0:18.598',-264.8659662
'0:18.602',-566.8422738
'0:18.605',-636.1149111
'0:18.609',-386.966266
'0:18.613',-172.4539395
'0:18.617',-11.2058678
'0:18.621',2.32849201
'0:18.625',-4.94804552
'0:18.629',152.5162267
'0:18.633',275.9263032
'0:18.637',405.8852636
'0:18.641',375.1782752
'0:18.645',347.0908403
'0:18.648',541.8109847
'0:18.652',882.4984719
'0:18.656',699.7118491
'0:18.660',592.4556859
'0:18.664',1009.255756
'0:18.668',1275.285968
'0:18.672',1512.792153
'0:18.676',1506.097738
'0:18.680',1379.340455
'0:18.684',1060.773641
'0:18.688',806.8224816
'0:18.691',442.8500742
'0:18.695',99.10644119
'0:18.699',-119.7718078
'0:18.703',15.28072882
'0:18.707',446.3428122
'0:18.711',663.9112845
'0:18.715',112.7863318
'0:18.719',-572.9545653
'0:18.723',-1439.444655
'0:18.727',-1932.648369
'0:18.730',-1870.652269
'0:18.734',-1344.122013
'0:18.738',-732.6017988
'0:18.742',-433.6816369
'0:18.746',-424.2221381
'0:18.750',-533.9523241
'0:18.754',-555.4908752
'0:18.758',-446.6338737
'0:18.762',-222.8075792
'0:18.766',93.13968041
'0:18.770',381.5816282
'0:18.773',336.9036878
'0:18.777',-461.4780103
'0:18.781',-1773.292197
'0:18.785',-2755.188171
'0:18.789',-3021.509445
'0:18.793',-3179.701371
'0:18.797',-3253.339931
'0:18.801',-2229.385569
'0:18.805',-1194.516401
'0:18.809',-218.7327182
'0:18.813',-12.51564456
'0:18.816',198.5039439
'0:18.820',1265.826469
'0:18.824',2159.82187
'0:18.828',1334.080391
'0:18.832',-503.2453357
'0:18.836',-300.2299386
'0:18.840',1909.072387
'0:18.844',2983.234858
'0:18.848',3018.744361
'0:18.852',1653.229327
'0:18.855',855.8663446
'0:18.859',1423.872864
'0:18.863',2336.932794
'0:18.867',2766.394039
'0:18.871',3338.47542
'0:18.875',2291.381669
'0:18.879',1043.746544
'0:18.883',553.0168525
'0:18.887',749.3378351
'0:18.891',783.5375615
'0:18.895',606.426638
'0:18.898',902.7272463
'0:18.902',698.4020724
'0:18.906',248.1299299
'0:18.910',437.9020287
'0:18.914',950.4613325
'0:18.918',865.4713741
'0:18.922',317.6936287
'0:18.926',-180.4581308
'0:18.930',-43.51369444
'0:18.934',427.4238147
'0:18.938',503.2453357
'0:18.941',20.66536659
'0:18.945',-387.2573275
'0:18.949',-277.818203
'0:18.953',133.0151061
'0:18.957',437.4654365
'0:18.961',-90.5201269
'0:18.965',-756.9054341
'0:18.969',-812.2071194
'0:18.973',-437.756498
'0:18.977',-273.0156882
'0:18.980',-433.6816369
'0:18.984',-694.6182728
'0:18.988',-545.0126612
'0:18.992',-223.0986407
'0:18.996',1.45530751
'0:19.000',-165.6139942
'0:19.004',-356.8414006
'0:19.008',-269.9595425
'0:19.012',64.90671479
'0:19.016',288.0053555
'0:19.020',215.8221032
'0:19.023',34.92738016
'0:19.027',123.4100766
'0:19.031',412.8707396
'0:19.035',671.6244142
'0:19.039',616.904852
'0:19.043',496.696452
'0:19.047',427.4238147
'0:19.051',513.7235498
'0:19.055',519.3992491
'0:19.059',73.78409058
'0:19.063',-602.9338999
'0:19.066',-1108.94432
'0:19.070',-1343.53989
'0:19.074',-1344.849667
'0:19.078',-1297.406642
'0:19.082',-1320.546031
'0:19.086',-1244.57898
'0:19.090',-987.7172047
'0:19.094',-680.7928515
'0:19.098',-463.0788486
'0:19.102',-394.2428035
'0:19.105',-350.0014553
'0:19.109',-338.504526
'0:19.113',-391.62325
'0:19.117',-661.7283232
'0:19.121',-1505.224554
'0:19.125',-2437.05795
'0:19.129',-2948.161947
'0:19.133',-2670.780336
'0:19.137',-1567.366184
'0:19.141',-261.0821667
'0:19.145',669.8780452
'0:19.148',1101.958844
'0:19.152',891.3758477
'0:19.156',568.7341735
'0:19.160',215.2399802
'0:19.164',357.2779928
'0:19.168',1652.501674
'0:19.172',2138.283319
'0:19.176',1979.218209
'0:19.180',2338.09704
'0:19.184',2387.431964
'0:19.188',1108.216666
'0:19.191',57.63017726
'0:19.195',-542.8296999
'0:19.199',-833.1635475
'0:19.203',-1216.782606
'0:19.207',-1163.663882
'0:19.211',-537.7361236
'0:19.215',51.66341648
'0:19.219',320.7497744
'0:19.223',397.0078878
'0:19.227',829.6708094
'0:19.230',1175.015281
'0:19.234',1016.823355
'0:19.238',946.09541
'0:19.242',936.9269727
'0:19.246',984.6610589
'0:19.250',867.9453969
'0:19.254',918.1535058
'0:19.258',1113.310242
'0:19.262',614.57636
'0:19.266',376.7791134
'0:19.270',56.17486975
'0:19.273',-289.8972553
'0:19.277',-478.6506389
'0:19.281',-449.8355503
'0:19.285',-422.0391769
'0:19.289',-409.6690631
'0:19.293',-452.0185115
'0:19.297',-386.966266
'0:19.301',-321.7684897
'0:19.305',-133.5972291
'0:19.309',127.0483453
'0:19.313',362.8081614
'0:19.316',556.0729982
'0:19.320',590.8548476
'0:19.324',546.9045609
'0:19.328',440.08499
'0:19.332',164.8863405
'0:19.336',51.08129348
'0:19.340',-0.14553075
'0:19.344',-51.66341648
'0:19.348',-63.45140728
'0:19.352',316.3838519
'0:19.355',312.8911139
'0:19.359',274.325465
'0:19.363',354.9495008
'0:19.367',467.5903018
'0:19.371',572.8090346
'0:19.375',520.4179643
'0:19.379',343.0159793
'0:19.383',189.9176296
'0:19.387',388.5671042
'0:19.391',661.4372617
'0:19.395',580.0855721
'0:19.398',558.9836132
'0:19.402',198.0673516
'0:19.406',-250.0218296
'0:19.410',-672.2065372
'0:19.414',-884.3903717
'0:19.418',-964.723346
'0:19.422',-644.7012254
'0:19.426',-390.7500655
'0:19.430',-547.9232762
'0:19.434',-1056.407719
'0:19.438',-1503.332654
'0:19.441',-1519.632098
'0:19.445',-1204.412492
'0:19.449',-549.5241145
'0:19.453',454.2014728
'0:19.457',1516.867014
'0:19.461',2027.534418
'0:19.465',1774.893035
'0:19.469',1361.876765
'0:19.473',-275.9263032
'0:19.477',-1391.273976
'0:19.480',-949.8792095
'0:19.484',-761.4168874
'0:19.488',-239.5436156
'0:19.492',1355.910004
'0:19.496',1818.843322
'0:19.500',706.2607329
'0:19.504',1120.295718
'0:19.508',2104.665716
'0:19.512',1501.295224
'0:19.516',751.8118579
'0:19.520',1660.796926
'0:19.523',2551.008528
'0:19.527',1518.467852
'0:19.531',-130.1044911
'0:19.535',-94.74051867
'0:19.539',990.0456967
'0:19.543',940.2741799
'0:19.547',538.4637774
'0:19.551',583.5783101
'0:19.555',700.2939721
'0:19.559',374.5961522
'0:19.563',-267.0489274
'0:19.566',-338.2134645
'0:19.570',206.6536659
'0:19.574',442.2679512
'0:19.578',447.070466
'0:19.582',278.6913875
'0:19.586',421.7481154
'0:19.590',698.1110109
'0:19.594',887.155456
'0:19.598',805.0761126
'0:19.602',531.4783014
'0:19.605',543.1207614
'0:19.609',718.9219082
'0:19.613',768.6934249
'0:19.617',129.5223681
'0:19.621',137.9631516
'0:19.625',283.2028408
'0:19.629',392.9330268
'0:19.633',452.0185115
'0:19.637',466.5715866
'0:19.641',272.7246267
'0:19.645',26.48659662
'0:19.648',143.7843816
'0:19.652',630.1481503
'0:19.656',653.1420089
'0:19.660',662.6015077
'0:19.664',610.7925605
'0:19.668',371.9765987
'0:19.672',311.7268679
'0:19.676',549.815176
'0:19.680',690.5434118
'0:19.684',478.6506389
'0:19.688',464.0975638
'0:19.691',695.2003958
'0:19.695',860.9599208
'0:19.699',969.6713916
'0:19.703',1019.442908
'0:19.707',1165.26472
'0:19.711',1401.461129
'0:19.715',1539.860873
'0:19.719',1327.094915
'0:19.723',944.0579795
'0:19.727',461.4780103
'0:19.730',56.75699275
'0:19.734',-231.2483628
'0:19.738',-479.9604156
'0:19.742',-681.666036
'0:19.746',-956.1370318
'0:19.750',-1007.072794
'0:19.754',-883.6627179
'0:19.758',-545.5947842
'0:19.762',-354.6584393
'0:19.766',-285.967925
'0:19.770',-180.7491923
'0:19.773',13.82542131
'0:19.777',-262.2464127
'0:19.781',-663.620223
'0:19.785',-1195.244055
'0:19.789',-2346.974416
'0:19.793',-3934.132782
'0:19.797',-4306.400442
'0:19.801',-2512.733941
'0:19.805',286.9866403
'0:19.809',2735.250458
'0:19.813',3665.337486
'0:19.816',3953.197311
'0:19.820',1226.242105
'0:19.824',82.95252787
'0:19.828',1093.954653
'0:19.832',1432.459179
'0:19.836',1487.469802
'0:19.840',1329.568938
'0:19.844',360.6252001
'0:19.848',-392.9330268
'0:19.852',-1044.328667
'0:19.855',-1549.465902
'0:19.859',-1279.942952
'0:19.863',-921.6462439
'0:19.867',-2122.129406
'0:19.871',-3245.48127
'0:19.875',-3673.341677
'0:19.879',-3226.12568
'0:19.883',-2052.274646
'0:19.887',-852.082545
'0:19.891',105.073202
'0:19.895',661.7283232
'0:19.898',441.6858282
'0:19.902',550.397299
'0:19.906',131.9963908
'0:19.910',-212.3293652
'0:19.914',8.44078354
'0:19.918',514.742265
'0:19.922',409.9601246
'0:19.926',-57.33911576
'0:19.930',-35.21844166
'0:19.934',131.1232063
'0:19.938',-111.1854935
'0:19.941',-767.9657712
'0:19.945',-1411.502751
'0:19.949',-1562.7092
'0:19.953',-1487.760864
'0:19.957',-1344.558605
'0:19.961',-1458.072591
'0:19.965',-1583.229036
'0:19.969',-1310.067817
'0:19.973',-623.7447973
'0:19.977',310.7081526
'0:19.980',873.6210961
'0:19.984',656.3436854
'0:19.988',-392.6419653
'0:19.992',-1347.032628
'0:19.996',-1613.06284
'0:20.000',-1242.396018
