'0:00.000',-72.12142867
'0:00.004',-67.7875263
'0:00.008',-83.70055712
'0:00.012',-72.38609446
'0:00.016',-75.89291622
'0:00.020',-73.18009184
'0:00.023',-68.08527532
'0:00.027',-51.9075787
'0:00.031',-40.85778184
'0:00.035',-43.80218879
'0:00.039',-40.03070123
'0:00.043',-35.16746728
'0:00.047',-35.16746728
'0:00.051',-24.41541943
'0:00.055',-12.27387616
'0:00.059',-9.29638599
'0:00.063',-3.10982307
'0:00.066',28.98090436
'0:00.070',23.32367303
'0:00.074',36.25921368
'0:00.078',39.50136965
'0:00.082',60.50921699
'0:00.086',60.50921699
'0:00.090',72.12142867
'0:00.094',69.14393849
'0:00.098',87.20737888
'0:00.102',75.62825043
'0:00.105',77.5139942
'0:00.109',89.09312266
'0:00.113',99.61358794
'0:00.117',100.9700001
'0:00.121',91.80594704
'0:00.125',95.01501978
'0:00.129',89.92020326
'0:00.133',83.70055712
'0:00.137',68.61460691
'0:00.141',59.71521961
'0:00.145',47.04434475
'0:00.148',42.1811108
'0:00.152',34.90280149
'0:00.156',19.55218548
'0:00.160',10.91746397
'0:00.164',14.68895153
'0:00.168',-6.05423002
'0:00.172',-12.27387616
'0:00.176',-12.80320775
'0:00.180',-7.41064221
'0:00.184',-18.72510487
'0:00.188',-20.61084865
'0:00.191',-26.83049479
'0:00.195',-28.98090436
'0:00.199',-9.29638599
'0:00.203',-4.99556685
'0:00.207',-4.73090105
'0:00.211',6.61664483
'0:00.215',3.63915466
'0:00.219',6.31889581
'0:00.223',-4.16848624
'0:00.227',12.00921037
'0:00.230',6.31889581
'0:00.234',18.72510487
'0:00.238',21.43792925
'0:00.242',42.74352561
'0:00.246',43.53752299
'0:00.250',55.41440047
'0:00.254',67.25819471
'0:00.258',84.26297193
'0:00.262',104.7414877
'0:00.266',107.1565631
'0:00.270',89.65553747
'0:00.273',86.4133815
'0:00.277',69.67327008
'0:00.281',56.47306364
'0:00.285',43.00819141
'0:00.289',26.00341419
'0:00.293',37.61562587
'0:00.297',19.55218548
'0:00.301',7.41064221
'0:00.305',-4.16848624
'0:00.309',-21.17326346
'0:00.313',-26.30116321
'0:00.316',-60.24455119
'0:00.320',-72.12142867
'0:00.324',-99.61358794
'0:00.328',-100.9700001
'0:00.332',-138.4532931
'0:00.336',-155.4249871
'0:00.340',-183.446478
'0:00.344',-195.5880212
'0:00.348',-213.3867958
'0:00.352',-233.8653116
'0:00.355',-250.8700888
'0:00.359',-263.2432146
'0:00.363',-275.6494237
'0:00.367',-292.3895351
'0:00.371',-281.0419892
'0:00.375',-283.7548136
'0:00.379',-280.2479919
'0:00.383',-259.4717271
'0:00.387',-244.1211111
'0:00.391',-247.8925986
'0:00.395',-233.33598
'0:00.398',-215.0078738
'0:00.402',-211.5010521
'0:00.406',-194.7940239
'0:00.410',-181.8584832
'0:00.414',-168.3605277
'0:00.418',-135.2111371
'0:00.422',-116.0559504
'0:00.426',-97.99250996
'0:00.430',-83.43589133
'0:00.434',-70.23568489
'0:00.438',-54.32265407
'0:00.441',-51.34516389
'0:00.445',-33.01705771
'0:00.449',-18.72510487
'0:00.453',-21.43792925
'0:00.457',-5.26023264
'0:00.461',-2.84515728
'0:00.465',-0.66166448
'0:00.469',-1.48874509
'0:00.473',11.18212977
'0:00.477',25.4740826
'0:00.480',27.88915797
'0:00.484',31.66064552
'0:00.488',47.30901055
'0:00.492',58.92122223
'0:00.496',57.00239523
'0:00.500',75.89291622
'0:00.504',79.39973798
'0:00.508',79.66440377
'0:00.512',91.80594704
'0:00.516',89.09312266
'0:00.520',75.89291622
'0:00.523',95.57743459
'0:00.527',140.8683685
'0:00.531',244.1211111
'0:00.535',365.7019599
'0:00.539',435.5406461
'0:00.543',496.1821959
'0:00.547',439.5767994
'0:00.551',357.0672383
'0:00.555',268.6357802
'0:00.559',230.9209046
'0:00.563',246.8008522
'0:00.566',265.4267074
'0:00.570',267.8417828
'0:00.574',205.2814059
'0:00.578',173.2237617
'0:00.582',138.1555441
'0:00.586',134.6487223
'0:00.590',133.5900592
'0:00.594',136.2698003
'0:00.598',123.0695939
'0:00.602',122.5402623
'0:00.605',118.4710257
'0:00.609',116.3206161
'0:00.613',133.854725
'0:00.617',136.5344661
'0:00.621',153.0099117
'0:00.625',150.5617532
'0:00.629',164.5890402
'0:00.633',180.7667368
'0:00.637',182.9171464
'0:00.641',184.8028902
'0:00.645',183.7111438
'0:00.648',196.3820186
'0:00.652',195.0586896
'0:00.656',182.3878148
'0:00.660',169.9816057
'0:00.664',153.0099117
'0:00.668',148.1466778
'0:00.672',129.5539058
'0:00.676',132.233647
'0:00.680',120.0921037
'0:00.684',104.4768219
'0:00.688',100.7053343
'0:00.691',96.63609777
'0:00.695',82.34414493
'0:00.699',86.94271309
'0:00.703',87.47204468
'0:00.707',52.70157608
'0:00.711',34.90280149
'0:00.715',34.90280149
'0:00.719',35.72988209
'0:00.723',20.90859767
'0:00.727',36.25921368
'0:00.730',49.45942012
'0:00.734',48.93008853
'0:00.738',5.52489843
'0:00.742',-21.96726084
'0:00.746',-9.56105178
'0:00.750',-2.28274247
'0:00.754',27.09516059
'0:00.758',33.84413831
'0:00.762',57.56481004
'0:00.766',56.20839785
'0:00.770',48.93008853
'0:00.773',45.15860098
'0:00.777',65.10778514
'0:00.781',70.76501648
'0:00.785',71.59209708
'0:00.789',82.07947914
'0:00.793',77.77866
'0:00.797',80.45840115
'0:00.801',101.7639975
'0:00.805',102.3264123
'0:00.809',98.52184154
'0:00.813',95.3127688
'0:00.816',96.63609777
'0:00.820',84.79230352
'0:00.824',86.14871571
'0:00.828',66.99352892
'0:00.832',48.40075694
'0:00.836',48.66542274
'0:00.840',35.4652163
'0:00.844',21.17326346
'0:00.848',19.28751968
'0:00.852',15.78069792
'0:00.855',14.95361732
'0:00.859',2.54740826
'0:00.863',-10.12346659
'0:00.867',-11.44679556
'0:00.871',-1.22407929
'0:00.875',-3.37448886
'0:00.879',16.5746953
'0:00.883',-9.82571758
'0:00.887',6.31889581
'0:00.891',0.1323329
'0:00.895',-3.63915466
'0:00.898',-15.51603213
'0:00.902',5.78956423
'0:00.906',-10.38813239
'0:00.910',-14.95361732
'0:00.914',-2.84515728
'0:00.918',-1.22407929
'0:00.922',4.16848624
'0:00.926',6.05423002
'0:00.930',2.28274247
'0:00.934',28.98090436
'0:00.938',13.59720513
'0:00.941',20.08151706
'0:00.945',54.05798828
'0:00.949',64.57845356
'0:00.953',75.89291622
'0:00.957',78.57265738
'0:00.961',100.4075853
'0:00.965',86.4133815
'0:00.969',98.25717575
'0:00.973',108.2483095
'0:00.977',93.42702502
'0:00.980',115.5266188
'0:00.984',133.0276443
'0:00.988',128.991491
'0:00.992',125.2200034
'0:00.996',126.5764156
'0:01.000',115.261953
'0:01.004',101.4993317
'0:01.008',113.3762092
'0:01.012',107.6858946
'0:01.016',92.86461021
'0:01.020',68.08527532
'0:01.023',24.68008522
'0:01.027',4.16848624
'0:01.031',-35.72988209
'0:01.035',-68.08527532
'0:01.039',-77.77866
'0:01.043',-120.9191843
'0:01.047',-139.5119563
'0:01.051',-162.9679622
'0:01.055',-181.2960684
'0:01.059',-207.2002329
'0:01.063',-216.8936176
'0:01.066',-250.307674
'0:01.070',-257.3213175
'0:01.074',-277.0058359
'0:01.078',-288.0556328
'0:01.082',-312.6033851
'0:01.086',-327.9540011
'0:01.090',-319.8816944
'0:01.094',-295.0692763
'0:01.098',-275.9140895
'0:01.102',-265.6913732
'0:01.105',-245.4775233
'0:01.109',-220.9297709
'0:01.113',-229.0351609
'0:01.117',-210.1446399
'0:01.121',-200.4512552
'0:01.125',-180.7667368
'0:01.129',-171.3380179
'0:01.133',-178.3516614
'0:01.137',-160.2882211
'0:01.141',-152.4474969
'0:01.145',-148.4113436
'0:01.148',-137.3615467
'0:01.152',-144.1105244
'0:01.156',-127.668162
'0:01.160',-105.5354851
'0:01.164',-101.2346659
'0:01.168',-118.7687747
'0:01.172',-107.9836437
'0:01.176',-110.6633848
'0:01.180',-91.24353223
'0:01.184',-86.4133815
'0:01.188',-54.85198566
'0:01.191',-44.06685458
'0:01.195',-45.68793256
'0:01.199',-25.7387484
'0:01.203',-37.08629428
'0:01.207',9.29638599
'0:01.211',49.45942012
'0:01.215',171.0402689
'0:01.219',283.7548136
'0:01.223',372.1862718
'0:01.227',442.8189554
'0:01.230',380.5232443
'0:01.234',285.3758916
'0:01.238',204.2227427
'0:01.242',152.1828311
'0:01.246',162.4386306
'0:01.250',160.2882211
'0:01.254',164.3243744
'0:01.258',107.4212288
'0:01.262',30.86664814
'0:01.266',-6.61664483
'0:01.270',-47.83834213
'0:01.273',-96.10676618
'0:01.277',-135.2111371
'0:01.281',-100.4406686
'0:01.285',-31.39597973
'0:01.289',21.70259505
'0:01.293',74.27183824
'0:01.297',89.92020326
'0:01.301',82.34414493
'0:01.305',42.4457766
'0:01.309',44.33152037
'0:01.313',41.12244763
'0:01.316',52.43691029
'0:01.320',78.30799158
'0:01.324',74.00717244
'0:01.328',47.30901055
'0:01.332',44.33152037
'0:01.336',36.25921368
'0:01.340',13.06787354
'0:01.344',-50.81583231
'0:01.348',-59.9798854
'0:01.352',-22.49659243
'0:01.355',56.20839785
'0:01.359',66.72886313
'0:01.363',47.57367634
'0:01.367',61.33629759
'0:01.371',93.12927601
'0:01.375',131.1419006
'0:01.379',141.6623659
'0:01.383',144.1105244
'0:01.387',130.612569
'0:01.391',99.34892215
'0:01.395',86.14871571
'0:01.398',75.36358463
'0:01.402',60.24455119
'0:01.406',65.37245094
'0:01.410',51.9075787
'0:01.414',53.52865669
'0:01.418',56.73772943
'0:01.422',72.65076025
'0:01.426',64.28070454
'0:01.430',39.23670385
'0:01.434',25.7387484
'0:01.438',24.3823362
'0:01.441',5.26023264
'0:01.445',14.68895153
'0:01.449',38.67428904
'0:01.453',-21.96726084
'0:01.457',-20.90859767
'0:01.461',-72.38609446
'0:01.465',12.00921037
'0:01.469',139.2472905
'0:01.473',235.2217238
'0:01.477',261.3574709
'0:01.480',240.8789551
'0:01.484',219.0440272
'0:01.488',151.6534995
'0:01.492',113.0784602
'0:01.496',98.52184154
'0:01.500',104.2121561
'0:01.504',85.05696931
'0:01.508',72.91542605
'0:01.512',51.60982969
'0:01.516',17.93110749
'0:01.520',6.05423002
'0:01.523',49.72408591
'0:01.527',68.34994111
'0:01.531',19.28751968
'0:01.535',-163.232628
'0:01.539',-296.1610227
'0:01.543',-279.7186603
'0:01.547',-171.8673495
'0:01.551',-25.7387484
'0:01.555',55.94373205
'0:01.559',71.29434806
'0:01.563',57.82947583
'0:01.566',9.0317202
'0:01.570',-14.95361732
'0:01.574',-11.18212977
'0:01.578',13.06787354
'0:01.582',20.34618286
'0:01.586',-17.6664417
'0:01.590',-69.40860428
'0:01.594',-72.91542605
'0:01.598',-58.35880742
'0:01.602',-34.90280149
'0:01.605',-64.31378776
'0:01.609',-78.87040639
'0:01.613',-71.59209708
'0:01.617',-63.75137295
'0:01.621',-54.85198566
'0:01.625',-61.33629759
'0:01.629',-89.09312266
'0:01.633',-100.9700001
'0:01.637',-67.52286051
'0:01.641',-60.806966
'0:01.645',-45.95259836
'0:01.648',-68.08527532
'0:01.652',-65.37245094
'0:01.656',-37.88029166
'0:01.660',-33.01705771
'0:01.664',-13.89495415
'0:01.668',-31.69372874
'0:01.672',-30.07265076
'0:01.676',-7.41064221
'0:01.680',10.65279818
'0:01.684',16.8393611
'0:01.688',4.43315204
'0:01.691',5.78956423
'0:01.695',7.9399738
'0:01.699',38.93895483
'0:01.703',61.86562918
'0:01.707',37.88029166
'0:01.711',57.82947583
'0:01.715',56.47306364
'0:01.719',83.43589133
'0:01.723',107.1565631
'0:01.727',102.3264123
'0:01.730',62.13029497
'0:01.734',61.0716318
'0:01.738',97.46317837
'0:01.742',70.23568489
'0:01.746',39.76603544
'0:01.750',-11.18212977
'0:01.754',-31.39597973
'0:01.758',-17.93110749
'0:01.762',-16.31002951
'0:01.766',-12.53854196
'0:01.770',-11.18212977
'0:01.773',-29.51023595
'0:01.777',-31.95839454
'0:01.781',-32.22306033
'0:01.785',-30.07265076
'0:01.789',-43.80218879
'0:01.793',-75.09891884
'0:01.797',-92.59994442
'0:01.801',-95.57743459
'0:01.805',-112.019797
'0:01.809',-109.3069726
'0:01.813',-123.3342597
'0:01.816',-124.1613403
'0:01.820',-173.4884275
'0:01.824',-188.5743777
'0:01.828',-188.5743777
'0:01.832',-189.9307899
'0:01.836',-205.8438207
'0:01.840',-219.8711078
'0:01.844',-234.1299774
'0:01.848',-220.1357736
'0:01.852',-223.3448463
'0:01.855',-222.5508489
'0:01.859',-219.0440272
'0:01.863',-216.8936176
'0:01.867',-218.7793614
'0:01.871',-206.1084865
'0:01.875',-190.7247873
'0:01.879',-187.5157145
'0:01.883',-183.744227
'0:01.887',-168.6251935
'0:01.891',-172.3966811
'0:01.895',-142.4894465
'0:01.898',-124.4260061
'0:01.902',-135.4758029
'0:01.906',-133.0607276
'0:01.910',-121.1838501
'0:01.914',-95.3127688
'0:01.918',-32.75239192
'0:01.922',65.63711673
'0:01.926',240.6142893
'0:01.930',318.5252822
'0:01.934',417.4772057
'0:01.938',393.4587849
'0:01.941',322.2967698
'0:01.945',226.5870023
'0:01.949',184.2735586
'0:01.953',203.9580769
'0:01.957',218.7793614
'0:01.961',184.5382244
'0:01.965',148.6760094
'0:01.969',110.9280506
'0:01.973',62.95737557
'0:01.977',56.73772943
'0:01.980',65.63711673
'0:01.984',77.24932841
'0:01.988',76.42224781
'0:01.992',64.84311935
'0:01.996',58.35880742
'0:02.000',49.19475432
'0:02.004',44.06685458
'0:02.008',44.33152037
'0:02.012',48.93008853
'0:02.016',26.00341419
'0:02.020',32.48772612
'0:02.023',42.4457766
'0:02.027',58.35880742
'0:02.031',48.93008853
'0:02.035',58.92122223
'0:02.039',94.75035399
'0:02.043',118.2063599
'0:02.047',105.8001509
'0:02.051',55.11665145
'0:02.055',18.98977067
'0:02.059',16.5746953
'0:02.063',17.40177591
'0:02.066',35.72988209
'0:02.070',51.60982969
'0:02.074',65.37245094
'0:02.078',64.84311935
'0:02.082',82.34414493
'0:02.086',68.34994111
'0:02.090',68.8792727
'0:02.094',97.46317837
'0:02.098',125.2200034
'0:02.102',142.4894465
'0:02.105',163.4972938
'0:02.109',166.2101182
'0:02.113',179.1456588
'0:02.117',174.5470907
'0:02.121',205.5791549
'0:02.125',239.7872087
'0:02.129',274.0283457
'0:02.133',274.3260947
'0:02.137',258.1483981
'0:02.141',257.3213175
'0:02.145',240.6142893
'0:02.148',194.231609
'0:02.152',148.9406752
'0:02.156',131.4396496
'0:02.160',126.047084
'0:02.164',107.4212288
'0:02.168',110.6633848
'0:02.172',129.8185716
'0:02.176',128.7268252
'0:02.180',140.8683685
'0:02.184',93.12927601
'0:02.188',97.46317837
'0:02.191',97.72784416
'0:02.195',124.6906719
'0:02.199',136.5344661
'0:02.203',139.2472905
'0:02.207',176.7305835
'0:02.211',285.1112258
'0:02.215',201.5099184
'0:02.219',83.96522291
'0:02.223',-32.75239192
'0:02.227',36.78854526
'0:02.230',29.51023595
'0:02.234',-81.02081596
'0:02.238',-165.1183718
'0:02.242',-184.0088928
'0:02.246',-205.5791549
'0:02.250',-201.8076674
'0:02.254',-184.8028902
'0:02.258',-140.8683685
'0:02.262',-107.7189779
'0:02.266',-121.1838501
'0:02.270',-145.1691876
'0:02.273',-132.4983128
'0:02.277',-96.93384678
'0:02.281',-80.75615017
'0:02.285',-102.5910781
'0:02.289',-105.8332341
'0:02.293',-113.640875
'0:02.297',-99.87825374
'0:02.301',-68.34994111
'0:02.305',-71.02968227
'0:02.309',-86.14871571
'0:02.313',-93.42702502
'0:02.316',-83.96522291
'0:02.320',-86.6780473
'0:02.324',-86.4133815
'0:02.328',-83.70055712
'0:02.332',-77.24932841
'0:02.336',-54.85198566
'0:02.340',-41.12244763
'0:02.344',-37.61562587
'0:02.348',-32.22306033
'0:02.352',-42.4457766
'0:02.355',-23.05900724
'0:02.359',3.90382045
'0:02.363',-6.88131063
'0:02.367',2.54740826
'0:02.371',-7.14597642
'0:02.375',8.50238861
'0:02.379',17.40177591
'0:02.383',24.11767041
'0:02.387',20.08151706
'0:02.391',-3.90382045
'0:02.395',9.82571758
'0:02.398',-0.1323329
'0:02.402',-9.0317202
'0:02.406',-10.65279818
'0:02.410',-18.72510487
'0:02.414',-22.49659243
'0:02.418',-2.28274247
'0:02.422',-11.18212977
'0:02.426',5.26023264
'0:02.430',-1.48874509
'0:02.434',9.82571758
'0:02.438',28.18690698
'0:02.441',34.90280149
'0:02.445',37.61562587
'0:02.449',48.66542274
'0:02.453',58.09414162
'0:02.457',59.18588802
'0:02.461',51.0804981
'0:02.465',55.11665145
'0:02.469',65.10778514
'0:02.473',72.91542605
'0:02.477',73.74250665
'0:02.480',97.72784416
'0:02.484',102.0286633
'0:02.488',97.99250996
'0:02.492',106.8918973
'0:02.496',105.5354851
'0:02.500',112.019797
'0:02.504',101.7639975
'0:02.508',83.96522291
'0:02.512',61.33629759
'0:02.516',42.4457766
'0:02.520',15.21828311
'0:02.523',-10.65279818
'0:02.527',-43.00819141
'0:02.531',-81.28548176
'0:02.535',-101.2346659
'0:02.539',-130.3479032
'0:02.543',-155.9543187
'0:02.547',-186.4239681
'0:02.551',-223.3448463
'0:02.555',-259.7694761
'0:02.559',-289.9413765
'0:02.563',-301.2889224
'0:02.566',-316.1102068
'0:02.570',-335.4969762
'0:02.574',-339.003798
'0:02.578',-353.8581656
'0:02.582',-349.2595974
'0:02.586',-347.6385195
'0:02.590',-350.3513438
'0:02.594',-337.680469
'0:02.598',-321.5027724
'0:02.602',-317.4335358
'0:02.605',-313.6620483
'0:02.609',-299.3700954
'0:02.613',-257.0566517
'0:02.617',-165.9454524
'0:02.621',-38.14495745
'0:02.625',31.66064552
'0:02.629',102.8557439
'0:02.633',73.47784086
'0:02.637',10.12346659
'0:02.641',-55.41440047
'0:02.645',-74.53650403
'0:02.648',-78.04332579
'0:02.652',-47.04434475
'0:02.656',-44.62926939
'0:02.660',-71.29434806
'0:02.664',-116.5852819
'0:02.668',-136.0051345
'0:02.672',-142.7541122
'0:02.676',-128.991491
'0:02.680',-124.1613403
'0:02.684',-117.9416941
'0:02.688',-118.5041089
'0:02.691',-108.777641
'0:02.695',-112.2844628
'0:02.699',-107.9836437
'0:02.703',-86.4133815
'0:02.707',-86.4133815
'0:02.711',-90.97886644
'0:02.715',-78.30799158
'0:02.719',-76.15758201
'0:02.723',-55.67906626
'0:02.727',-54.58731986
'0:02.730',-57.30014424
'0:02.734',-44.62926939
'0:02.738',-28.71623857
'0:02.742',-24.94475102
'0:02.746',-37.35096008
'0:02.750',-22.79434145
'0:02.754',3.10982307
'0:02.758',16.31002951
'0:02.762',21.70259505
'0:02.766',12.80320775
'0:02.770',27.88915797
'0:02.773',35.4652163
'0:02.777',31.39597973
'0:02.781',37.35096008
'0:02.785',60.24455119
'0:02.789',74.53650403
'0:02.793',67.7875263
'0:02.797',34.63813569
'0:02.801',55.41440047
'0:02.805',43.00819141
'0:02.809',25.7387484
'0:02.813',52.1722445
'0:02.816',48.66542274
'0:02.820',83.70055712
'0:02.824',104.2121561
'0:02.828',136.2698003
'0:02.832',148.1466778
'0:02.836',54.05798828
'0:02.840',44.33152037
'0:02.844',42.74352561
'0:02.848',143.018778
'0:02.852',213.6514616
'0:02.855',222.8155147
'0:02.859',240.6142893
'0:02.863',212.5597152
'0:02.867',182.9171464
'0:02.871',153.5392433
'0:02.875',125.749335
'0:02.879',155.1603213
'0:02.883',127.9328278
'0:02.887',103.3850755
'0:02.891',76.98466262
'0:02.895',76.98466262
'0:02.898',55.11665145
'0:02.902',46.25034737
'0:02.906',24.68008522
'0:02.910',-17.10402689
'0:02.914',-49.45942012
'0:02.918',-57.82947583
'0:02.922',-84.26297193
'0:02.926',-103.9144071
'0:02.930',-112.5491286
'0:02.934',-161.61155
'0:02.938',-231.1855704
'0:02.941',-240.3496235
'0:02.945',-202.6016648
'0:02.949',-185.0675559
'0:02.953',-136.5344661
'0:02.957',-121.4485159
'0:02.961',-125.2200034
'0:02.965',-162.1739648
'0:02.969',-192.0811995
'0:02.973',-213.3867958
'0:02.977',-188.8390435
'0:02.980',-178.880993
'0:02.984',-179.4103246
'0:02.988',-188.5743777
'0:02.992',-209.3506425
'0:02.996',-188.0450461
'0:03.000',-181.0314026
'0:03.004',-195.5880212
'0:03.008',-216.364286
'0:03.012',-190.4601215
'0:03.016',-174.8448397
'0:03.020',-168.095862
'0:03.023',-162.4386306
'0:03.027',-180.2374052
'0:03.031',-170.7756031
'0:03.035',-158.6671431
'0:03.039',-169.4522741
'0:03.043',-161.8762158
'0:03.047',-146.5255998
'0:03.051',-154.0685749
'0:03.055',-141.6623659
'0:03.059',-137.3615467
'0:03.063',-129.8185716
'0:03.066',-129.2561568
'0:03.070',-135.2111371
'0:03.074',-139.7766221
'0:03.078',-136.8322151
'0:03.082',-130.612569
'0:03.086',-129.2561568
'0:03.090',-133.854725
'0:03.094',-137.8908783
'0:03.098',-120.6545185
'0:03.102',-116.0559504
'0:03.105',-113.3762092
'0:03.109',-100.1429195
'0:03.113',-104.4768219
'0:03.117',-103.9144071
'0:03.121',-99.34892215
'0:03.125',-96.93384678
'0:03.129',-99.34892215
'0:03.133',-87.76979369
'0:03.137',-72.65076025
'0:03.141',-53.23090767
'0:03.145',-49.19475432
'0:03.148',-49.19475432
'0:03.152',-52.70157608
'0:03.156',-39.50136965
'0:03.160',-38.14495745
'0:03.164',-33.84413831
'0:03.168',-32.22306033
'0:03.172',-19.81685127
'0:03.176',-7.9399738
'0:03.180',8.50238861
'0:03.184',28.71623857
'0:03.188',31.66064552
'0:03.191',45.68793256
'0:03.195',88.03445949
'0:03.199',86.4133815
'0:03.203',92.86461021
'0:03.207',82.90655974
'0:03.211',96.10676618
'0:03.215',72.65076025
'0:03.219',55.41440047
'0:03.223',60.806966
'0:03.227',33.84413831
'0:03.230',47.57367634
'0:03.234',24.3823362
'0:03.238',22.79434145
'0:03.242',-3.37448886
'0:03.246',-28.98090436
'0:03.250',-62.13029497
'0:03.254',-85.5863009
'0:03.258',-121.4485159
'0:03.262',-163.7950428
'0:03.266',-203.9580769
'0:03.270',-221.1944367
'0:03.273',-246.2715206
'0:03.277',-282.3984014
'0:03.281',-307.4754853
'0:03.285',-300.4618418
'0:03.289',-318.5252822
'0:03.293',-326.0682573
'0:03.297',-313.6620483
'0:03.301',-324.4471793
'0:03.305',-316.3748726
'0:03.309',-300.7265076
'0:03.313',-308.2694827
'0:03.316',-249.7783424
'0:03.320',-153.8039091
'0:03.324',23.85300462
'0:03.328',136.2698003
'0:03.332',235.2217238
'0:03.336',256.2626543
'0:03.340',168.095862
'0:03.344',45.95259836
'0:03.348',7.675308
'0:03.352',8.23772282
'0:03.355',33.2817235
'0:03.359',59.18588802
'0:03.363',42.1811108
'0:03.367',-17.93110749
'0:03.371',-61.60096338
'0:03.375',-59.71521961
'0:03.379',-75.09891884
'0:03.383',-14.42428573
'0:03.387',7.675308
'0:03.391',2.01807667
'0:03.395',-21.96726084
'0:03.398',9.0317202
'0:03.402',14.95361732
'0:03.406',36.52387947
'0:03.410',34.63813569
'0:03.414',44.33152037
'0:03.418',26.565829
'0:03.422',47.04434475
'0:03.426',66.46419733
'0:03.430',65.10778514
'0:03.434',61.33629759
'0:03.438',75.89291622
'0:03.441',78.04332579
'0:03.445',81.55014755
'0:03.449',96.93384678
'0:03.453',93.42702502
'0:03.457',92.07061283
'0:03.461',94.4856882
'0:03.465',81.55014755
'0:03.469',96.93384678
'0:03.473',107.9836437
'0:03.477',106.0978999
'0:03.480',109.8693874
'0:03.484',113.9055408
'0:03.488',112.8137944
'0:03.492',123.8635913
'0:03.496',121.1838501
'0:03.500',124.9553377
'0:03.504',129.2561568
'0:03.508',128.7268252
'0:03.512',139.5119563
'0:03.516',151.9181653
'0:03.520',154.8956555
'0:03.523',160.5528868
'0:03.527',176.9952493
'0:03.531',186.9532997
'0:03.535',214.1807932
'0:03.539',216.6289518
'0:03.543',239.5225429
'0:03.547',271.8779361
'0:03.551',281.604404
'0:03.555',293.7128641
'0:03.559',312.6033851
'0:03.563',333.6112324
'0:03.566',334.7029788
'0:03.570',330.9314913
'0:03.574',326.8953379
'0:03.578',312.3387193
'0:03.582',300.7265076
'0:03.586',286.169889
'0:03.590',281.8690698
'0:03.594',276.7411701
'0:03.598',261.6552199
'0:03.602',235.7510554
'0:03.605',222.5508489
'0:03.609',201.5099184
'0:03.613',195.0586896
'0:03.617',163.232628
'0:03.621',138.7179589
'0:03.625',110.9280506
'0:03.629',74.27183824
'0:03.633',66.19953154
'0:03.637',48.40075694
'0:03.641',23.58833883
'0:03.645',-1.48874509
'0:03.648',-20.34618286
'0:03.652',0.92633028
'0:03.656',42.1811108
'0:03.660',17.93110749
'0:03.664',-45.68793256
'0:03.668',-120.6545185
'0:03.672',-135.4758029
'0:03.676',-153.2745775
'0:03.680',-150.5617532
'0:03.684',-132.4983128
'0:03.688',-123.0695939
'0:03.691',-117.9416941
'0:03.695',-133.5900592
'0:03.699',-132.7629786
'0:03.703',-117.6770283
'0:03.707',-93.12927601
'0:03.711',-101.2346659
'0:03.715',-98.25717575
'0:03.719',-83.70055712
'0:03.723',-87.20737888
'0:03.727',-61.60096338
'0:03.730',-67.52286051
'0:03.734',-64.01603875
'0:03.738',-66.72886313
'0:03.742',-55.94373205
'0:03.746',-46.77967896
'0:03.750',-50.28650072
'0:03.754',-45.95259836
'0:03.758',-49.75716913
'0:03.762',-41.12244763
'0:03.766',-31.69372874
'0:03.770',-18.19577329
'0:03.773',-13.06787354
'0:03.777',-17.10402689
'0:03.781',-9.0317202
'0:03.785',-0.1323329
'0:03.789',-1.75341088
'0:03.793',4.43315204
'0:03.797',-0.66166448
'0:03.801',6.05423002
'0:03.805',14.95361732
'0:03.809',29.77490174
'0:03.813',36.52387947
'0:03.816',31.95839454
'0:03.820',22.79434145
'0:03.824',16.04536372
'0:03.828',14.95361732
'0:03.832',5.26023264
'0:03.836',-0.39699869
'0:03.840',5.26023264
'0:03.844',13.89495415
'0:03.848',29.77490174
'0:03.852',37.05321106
'0:03.855',32.22306033
'0:03.859',37.61562587
'0:03.863',45.68793256
'0:03.867',45.68793256
'0:03.871',69.14393849
'0:03.875',78.87040639
'0:03.879',99.34892215
'0:03.883',108.5129752
'0:03.887',95.57743459
'0:03.891',104.4768219
'0:03.895',96.10676618
'0:03.898',97.99250996
'0:03.902',106.6272315
'0:03.906',125.749335
'0:03.910',104.2121561
'0:03.914',98.25717575
'0:03.918',98.81959056
'0:03.922',104.4768219
'0:03.926',107.4212288
'0:03.930',104.2121561
'0:03.934',114.4348724
'0:03.938',128.991491
'0:03.941',133.854725
'0:03.945',123.3342597
'0:03.949',122.5402623
'0:03.953',85.05696931
'0:03.957',66.99352892
'0:03.961',38.40962325
'0:03.965',26.26807998
'0:03.969',9.0317202
'0:03.973',-27.09516059
'0:03.977',-28.98090436
'0:03.980',-43.2728572
'0:03.984',21.43792925
'0:03.988',112.019797
'0:03.992',171.8673495
'0:03.996',208.7882277
'0:04.000',172.1320153
'0:04.004',67.7875263
'0:04.008',-16.31002951
'0:04.012',-107.9836437
'0:04.016',-114.9972872
'0:04.020',-127.370413
'0:04.023',-149.205341
'0:04.027',-192.9082801
'0:04.031',-246.5361864
'0:04.035',-271.3486046
'0:04.039',-288.8827134
'0:04.043',-282.1337356
'0:04.047',-292.0917861
'0:04.051',-278.3622481
'0:04.055',-286.169889
'0:04.059',-287.790967
'0:04.063',-265.956039
'0:04.066',-260.2988077
'0:04.070',-245.7421891
'0:04.074',-220.4004394
'0:04.078',-222.8155147
'0:04.082',-200.9805868
'0:04.086',-179.4103246
'0:04.090',-180.2374052
'0:04.094',-169.7169399
'0:04.098',-172.1320153
'0:04.102',-152.4474969
'0:04.105',-147.6173462
'0:04.109',-147.0549314
'0:04.113',-120.0921037
'0:04.117',-123.5989255
'0:04.121',-120.0921037
'0:04.125',-98.52184154
'0:04.129',-82.90655974
'0:04.133',-72.12142867
'0:04.137',-58.62347321
'0:04.141',-55.11665145
'0:04.145',-49.45942012
'0:04.148',-33.84413831
'0:04.152',-23.58833883
'0:04.156',-11.18212977
'0:04.160',-7.41064221
'0:04.164',30.07265076
'0:04.168',29.77490174
'0:04.172',41.65177922
'0:04.176',54.32265407
'0:04.180',72.12142867
'0:04.184',76.98466262
'0:04.188',78.87040639
'0:04.191',90.97886644
'0:04.195',102.0286633
'0:04.199',118.2063599
'0:04.203',123.5989255
'0:04.207',142.7541122
'0:04.211',139.7766221
'0:04.215',150.8264189
'0:04.219',165.6807866
'0:04.223',169.7169399
'0:04.227',174.0177591
'0:04.230',172.6613469
'0:04.234',183.1818122
'0:04.238',180.502071
'0:04.242',184.2735586
'0:04.246',189.1037093
'0:04.250',188.3097119
'0:04.254',183.1818122
'0:04.258',180.502071
'0:04.262',182.9171464
'0:04.266',171.6026837
'0:04.270',172.1320153
'0:04.273',167.2687814
'0:04.277',163.4972938
'0:04.281',149.7677558
'0:04.285',123.8635913
'0:04.289',124.6906719
'0:04.293',118.2063599
'0:04.297',97.72784416
'0:04.301',100.4075853
'0:04.305',90.44953485
'0:04.309',91.54128125
'0:04.313',85.85096669
'0:04.316',65.90178252
'0:04.320',52.70157608
'0:04.324',57.82947583
'0:04.328',57.56481004
'0:04.332',37.35096008
'0:04.336',34.63813569
'0:04.340',20.90859767
'0:04.344',-6.35197904
'0:04.348',-5.78956423
'0:04.352',-11.18212977
'0:04.355',-30.60198235
'0:04.359',-43.2728572
'0:04.363',-53.79332248
'0:04.367',-69.40860428
'0:04.371',-59.45055381
'0:04.375',-79.66440377
'0:04.379',-76.15758201
'0:04.383',-55.11665145
'0:04.387',-39.50136965
'0:04.391',-43.80218879
'0:04.395',-30.07265076
'0:04.398',-27.35982638
'0:04.402',-23.05900724
'0:04.406',-53.52865669
'0:04.410',-56.20839785
'0:04.414',-60.806966
'0:04.418',-76.6869136
'0:04.422',-87.47204468
'0:04.426',-100.4406686
'0:04.430',-103.6497413
'0:04.434',-109.0423068
'0:04.438',-109.6047216
'0:04.441',-104.7414877
'0:04.445',-116.3206161
'0:04.449',-117.9416941
'0:04.453',-107.9836437
'0:04.457',-125.7824183
'0:04.461',-105.0061535
'0:04.465',-100.9700001
'0:04.469',-101.7639975
'0:04.473',-121.4485159
'0:04.477',-107.4212288
'0:04.480',-105.8332341
'0:04.484',-102.3264123
'0:04.488',-116.5852819
'0:04.492',-118.7687747
'0:04.496',-122.2755965
'0:04.500',-122.2755965
'0:04.504',-103.6497413
'0:04.508',-117.1476968
'0:04.512',-86.14871571
'0:04.516',-89.92020326
'0:04.520',-105.2708193
'0:04.523',-101.2346659
'0:04.527',-99.87825374
'0:04.531',-86.94271309
'0:04.535',-90.44953485
'0:04.539',-73.18009184
'0:04.543',-69.40860428
'0:04.547',-67.25819471
'0:04.551',-53.79332248
'0:04.555',-57.30014424
'0:04.559',-56.73772943
'0:04.563',-52.70157608
'0:04.566',-35.4652163
'0:04.570',-38.14495745
'0:04.574',-40.29536703
'0:04.578',-39.23670385
'0:04.582',-51.9075787
'0:04.586',-65.90178252
'0:04.590',-68.61460691
'0:04.594',-72.38609446
'0:04.598',-57.30014424
'0:04.602',-69.40860428
'0:04.605',-65.37245094
'0:04.609',-66.99352892
'0:04.613',-40.56003282
'0:04.617',-43.00819141
'0:04.621',-37.88029166
'0:04.625',-32.22306033
'0:04.629',-17.93110749
'0:04.633',-24.11767041
'0:04.637',-26.00341419
'0:04.641',-5.78956423
'0:04.645',-17.10402689
'0:04.648',13.89495415
'0:04.652',85.05696931
'0:04.656',205.0167401
'0:04.660',364.9079625
'0:04.664',454.133418
'0:04.668',528.0082576
'0:04.672',482.4526579
'0:04.676',338.2098006
'0:04.680',194.7940239
'0:04.684',112.2844628
'0:04.688',119.2981063
'0:04.691',142.7541122
'0:04.695',146.260934
'0:04.699',80.19373536
'0:04.703',40.03070123
'0:04.707',-17.6664417
'0:04.711',-48.40075694
'0:04.715',-66.46419733
'0:04.719',-54.85198566
'0:04.723',-61.33629759
'0:04.727',-96.63609777
'0:04.730',-123.5989255
'0:04.734',-144.1105244
'0:04.738',-168.3605277
'0:04.742',-175.1095055
'0:04.746',-208.2588961
'0:04.750',-233.0713142
'0:04.754',-254.3769106
'0:04.758',-265.4267074
'0:04.762',-288.3202985
'0:04.766',-302.8769172
'0:04.770',-326.6306721
'0:04.773',-333.0819008
'0:04.777',-330.6668255
'0:04.781',-322.5614356
'0:04.785',-319.0546138
'0:04.789',-308.5672317
'0:04.793',-299.3700954
'0:04.797',-282.3984014
'0:04.801',-258.9423955
'0:04.805',-238.7285455
'0:04.809',-226.5870023
'0:04.813',-200.9805868
'0:04.816',-185.3322217
'0:04.820',-147.3195972
'0:04.824',-126.5764156
'0:04.828',-112.2844628
'0:04.832',-101.4993317
'0:04.836',-87.20737888
'0:04.840',-51.64291291
'0:04.844',-47.57367634
'0:04.848',-30.86664814
'0:04.852',-19.02285389
'0:04.855',9.29638599
'0:04.859',26.83049479
'0:04.863',47.83834213
'0:04.867',65.90178252
'0:04.871',93.69169082
'0:04.875',105.2708193
'0:04.879',122.8049281
'0:04.883',143.8127754
'0:04.887',161.61155
'0:04.891',174.0177591
'0:04.895',185.8946366
'0:04.898',202.336999
'0:04.902',206.9024839
'0:04.906',225.2305901
'0:04.910',222.2861831
'0:04.914',249.5136766
'0:04.918',248.686596
'0:04.922',253.54983
'0:04.926',257.3213175
'0:04.930',269.9921924
'0:04.934',279.7186603
'0:04.938',263.5409637
'0:04.941',269.4628608
'0:04.945',257.0566517
'0:04.949',253.8144958
'0:04.953',216.364286
'0:04.957',200.1865894
'0:04.961',188.3097119
'0:04.965',174.5470907
'0:04.969',155.9543187
'0:04.973',167.0041156
'0:04.977',134.1193907
'0:04.980',123.3342597
'0:04.984',110.6633848
'0:04.988',107.1565631
'0:04.992',100.9700001
'0:04.996',100.1429195
'0:05.000',89.65553747
'0:05.004',93.95635661
'0:05.008',90.97886644
'0:05.012',84.79230352
'0:05.016',99.08425636
'0:05.020',103.3850755
'0:05.023',123.8635913
'0:05.027',106.8918973
'0:05.031',118.4710257
'0:05.035',130.612569
'0:05.039',148.4113436
'0:05.043',153.5392433
'0:05.047',171.0402689
'0:05.051',167.2687814
'0:05.055',163.7619596
'0:05.059',164.853706
'0:05.063',168.6251935
'0:05.066',154.3332407
'0:05.070',151.9181653
'0:05.074',147.882012
'0:05.078',116.3206161
'0:05.082',105.0061535
'0:05.086',90.44953485
'0:05.090',86.4133815
'0:05.094',81.55014755
'0:05.098',66.72886313
'0:05.102',40.85778184
'0:05.105',27.88915797
'0:05.109',7.14597642
'0:05.113',16.31002951
'0:05.117',15.21828311
'0:05.121',-9.0317202
'0:05.125',-34.10880411
'0:05.129',-53.23090767
'0:05.133',-78.30799158
'0:05.137',-82.07947914
'0:05.141',-76.42224781
'0:05.145',-85.05696931
'0:05.148',-85.05696931
'0:05.152',-107.9836437
'0:05.156',-127.668162
'0:05.160',-124.1613403
'0:05.164',-119.0334405
'0:05.168',-134.1193907
'0:05.172',-138.1555441
'0:05.176',-126.5764156
'0:05.180',-125.7824183
'0:05.184',-120.0921037
'0:05.188',-101.7639975
'0:05.191',-105.2708193
'0:05.195',-93.69169082
'0:05.199',-92.86461021
'0:05.203',-87.76979369
'0:05.207',-85.05696931
'0:05.211',-72.38609446
'0:05.215',-46.25034737
'0:05.219',-46.25034737
'0:05.223',-39.50136965
'0:05.227',-34.90280149
'0:05.230',-22.79434145
'0:05.234',-14.15961994
'0:05.238',-14.42428573
'0:05.242',-7.41064221
'0:05.246',-2.28274247
'0:05.250',-5.78956423
'0:05.254',-12.53854196
'0:05.258',-29.24557016
'0:05.262',-23.32367303
'0:05.266',-19.55218548
'0:05.270',-22.49659243
'0:05.273',-12.27387616
'0:05.277',-13.63028835
'0:05.281',-8.23772282
'0:05.285',-3.63915466
'0:05.289',9.82571758
'0:05.293',19.28751968
'0:05.297',18.19577329
'0:05.301',24.11767041
'0:05.305',13.33253934
'0:05.309',11.71146135
'0:05.313',4.73090105
'0:05.316',2.01807667
'0:05.320',21.96726084
'0:05.324',88.82845687
'0:05.328',195.3233554
'0:05.332',268.6357802
'0:05.336',350.6160096
'0:05.340',345.7527757
'0:05.344',292.0917861
'0:05.348',241.7060357
'0:05.352',196.6797676
'0:05.355',172.6613469
'0:05.359',193.4376117
'0:05.363',172.1320153
'0:05.367',144.1105244
'0:05.371',120.0921037
'0:05.375',94.2210224
'0:05.379',94.4856882
'0:05.383',87.47204468
'0:05.387',108.5129752
'0:05.391',86.94271309
'0:05.395',95.01501978
'0:05.398',109.3069726
'0:05.402',116.0559504
'0:05.406',122.5402623
'0:05.410',120.3567695
'0:05.414',112.8137944
'0:05.418',125.4846692
'0:05.422',114.4348724
'0:05.426',121.4485159
'0:05.430',120.6545185
'0:05.434',113.3762092
'0:05.438',109.3069726
'0:05.441',82.34414493
'0:05.445',74.00717244
'0:05.449',41.91644501
'0:05.453',18.72510487
'0:05.457',-2.54740826
'0:05.461',-15.51603213
'0:05.465',-24.68008522
'0:05.469',-54.58731986
'0:05.473',-59.9798854
'0:05.477',-97.72784416
'0:05.480',-96.10676618
'0:05.484',-121.9778475
'0:05.488',-134.6487223
'0:05.492',-139.2472905
'0:05.496',-161.3468842
'0:05.500',-176.1681687
'0:05.504',-185.6299708
'0:05.508',-198.5655114
'0:05.512',-202.8663305
'0:05.516',-208.7882277
'0:05.520',-224.1719269
'0:05.523',-217.687615
'0:05.527',-199.094843
'0:05.531',-203.3956621
'0:05.535',-191.8165337
'0:05.539',-190.7247873
'0:05.543',-169.7169399
'0:05.547',-151.6534995
'0:05.551',-138.7179589
'0:05.555',-111.1927164
'0:05.559',-94.75035399
'0:05.563',-73.47784086
'0:05.566',-69.9710191
'0:05.570',-40.56003282
'0:05.574',-45.68793256
'0:05.578',-29.77490174
'0:05.582',-9.56105178
'0:05.586',-6.05423002
'0:05.590',8.23772282
'0:05.594',4.16848624
'0:05.598',18.98977067
'0:05.602',21.96726084
'0:05.605',25.7387484
'0:05.609',25.20941681
'0:05.613',37.05321106
'0:05.617',34.63813569
'0:05.621',21.96726084
'0:05.625',26.565829
'0:05.629',10.12346659
'0:05.633',5.78956423
'0:05.637',17.93110749
'0:05.641',4.16848624
'0:05.645',-5.52489843
'0:05.648',-4.43315204
'0:05.652',-9.82571758
'0:05.656',0.66166448
'0:05.660',-13.06787354
'0:05.664',-6.05423002
'0:05.668',-4.16848624
'0:05.672',-9.29638599
'0:05.676',-14.42428573
'0:05.680',-13.06787354
'0:05.684',-22.49659243
'0:05.688',-19.81685127
'0:05.691',-9.29638599
'0:05.695',-15.21828311
'0:05.699',-13.33253934
'0:05.703',-6.88131063
'0:05.707',-4.16848624
'0:05.711',-8.50238861
'0:05.715',-13.63028835
'0:05.719',-13.06787354
'0:05.723',-7.9399738
'0:05.727',-4.99556685
'0:05.730',7.41064221
'0:05.734',2.54740826
'0:05.738',3.10982307
'0:05.742',23.58833883
'0:05.746',25.7387484
'0:05.750',23.85300462
'0:05.754',35.72988209
'0:05.758',35.16746728
'0:05.762',38.93895483
'0:05.766',41.91644501
'0:05.770',40.56003282
'0:05.773',51.9075787
'0:05.777',65.90178252
'0:05.781',53.79332248
'0:05.785',58.92122223
'0:05.789',57.82947583
'0:05.793',67.7875263
'0:05.797',49.19475432
'0:05.801',69.40860428
'0:05.805',58.09414162
'0:05.809',58.09414162
'0:05.813',37.35096008
'0:05.816',50.02183493
'0:05.820',35.72988209
'0:05.824',40.56003282
'0:05.828',26.00341419
'0:05.832',7.14597642
'0:05.836',3.10982307
'0:05.840',-12.80320775
'0:05.844',-24.41541943
'0:05.848',-22.23192663
'0:05.852',-25.7387484
'0:05.855',-29.77490174
'0:05.859',-44.62926939
'0:05.863',-55.67906626
'0:05.867',-69.14393849
'0:05.871',-57.56481004
'0:05.875',-78.57265738
'0:05.879',-76.98466262
'0:05.883',-72.12142867
'0:05.887',-70.23568489
'0:05.891',-73.47784086
'0:05.895',-77.24932841
'0:05.898',-76.6869136
'0:05.902',-88.03445949
'0:05.906',-85.32163511
'0:05.910',-88.56379107
'0:05.914',-92.86461021
'0:05.918',-92.59994442
'0:05.922',-103.9144071
'0:05.926',-100.7053343
'0:05.930',-134.6487223
'0:05.934',-123.0695939
'0:05.938',-125.2200034
'0:05.941',-121.9778475
'0:05.945',-133.0607276
'0:05.949',-132.4983128
'0:05.953',-121.9778475
'0:05.957',-125.7824183
'0:05.961',-122.5402623
'0:05.965',-116.5852819
'0:05.969',-100.4406686
'0:05.973',-120.9191843
'0:05.977',-123.3342597
'0:05.980',-105.5354851
'0:05.984',-102.3264123
'0:05.988',-100.9700001
'0:05.992',-56.47306364
'0:05.996',47.57367634
'0:06.000',171.3380179
'0:06.004',257.0566517
'0:06.008',316.1102068
'0:06.012',274.5907605
'0:06.016',178.0539124
'0:06.020',76.98466262
'0:06.023',23.85300462
'0:06.027',21.17326346
'0:06.031',52.96624188
'0:06.035',54.85198566
'0:06.039',11.71146135
'0:06.043',-33.2817235
'0:06.047',-68.61460691
'0:06.051',-90.71420064
'0:06.055',-77.5139942
'0:06.059',-58.92122223
'0:06.063',-54.05798828
'0:06.066',-67.7875263
'0:06.070',-55.41440047
'0:06.074',-44.89393518
'0:06.078',-44.62926939
'0:06.082',-23.05900724
'0:06.086',-19.81685127
'0:06.090',-21.96726084
'0:06.094',-26.565829
'0:06.098',-11.74454458
'0:06.102',-8.50238861
'0:06.105',-20.08151706
'0:06.109',-4.43315204
'0:06.113',5.52489843
'0:06.117',18.46043908
'0:06.121',37.88029166
'0:06.125',43.53752299
'0:06.129',60.24455119
'0:06.133',70.76501648
'0:06.137',82.34414493
'0:06.141',100.7053343
'0:06.145',91.24353223
'0:06.148',93.95635661
'0:06.152',88.82845687
'0:06.156',67.52286051
'0:06.160',53.23090767
'0:06.164',43.2728572
'0:06.168',44.62926939
'0:06.172',39.50136965
'0:06.176',34.63813569
'0:06.180',36.25921368
'0:06.184',26.26807998
'0:06.188',28.71623857
'0:06.191',8.50238861
'0:06.195',3.63915466
'0:06.199',3.63915466
'0:06.203',-7.14597642
'0:06.207',-19.28751968
'0:06.211',-37.61562587
'0:06.215',-43.00819141
'0:06.219',-60.806966
'0:06.223',-72.12142867
'0:06.227',-83.43589133
'0:06.230',-100.7053343
'0:06.234',-106.3625657
'0:06.238',-124.9553377
'0:06.242',-136.2698003
'0:06.246',-162.7032964
'0:06.250',-163.4972938
'0:06.254',-170.5109373
'0:06.258',-174.0177591
'0:06.262',-169.7169399
'0:06.266',-178.880993
'0:06.270',-162.7032964
'0:06.273',-154.0685749
'0:06.277',-158.1047283
'0:06.281',-153.0099117
'0:06.285',-145.7316024
'0:06.289',-130.0832374
'0:06.293',-136.8322151
'0:06.297',-140.0412879
'0:06.301',-135.7404687
'0:06.305',-114.4348724
'0:06.309',-114.9972872
'0:06.313',-119.2981063
'0:06.316',-106.0978999
'0:06.320',-103.6497413
'0:06.324',-98.81959056
'0:06.328',-97.72784416
'0:06.332',-101.2346659
'0:06.336',-89.09312266
'0:06.340',-72.91542605
'0:06.344',-68.34994111
'0:06.348',-64.84311935
'0:06.352',-51.34516389
'0:06.355',-40.56003282
'0:06.359',-41.12244763
'0:06.363',-20.34618286
'0:06.367',-16.8393611
'0:06.371',-2.84515728
'0:06.375',-7.41064221
'0:06.379',7.675308
'0:06.383',11.18212977
'0:06.387',14.95361732
'0:06.391',29.77490174
'0:06.395',40.56003282
'0:06.398',39.23670385
'0:06.402',43.53752299
'0:06.406',47.57367634
'0:06.410',46.25034737
'0:06.414',57.00239523
'0:06.418',54.58731986
'0:06.422',58.62347321
'0:06.426',63.48670716
'0:06.430',62.39496076
'0:06.434',73.18009184
'0:06.438',70.23568489
'0:06.441',74.00717244
'0:06.445',78.87040639
'0:06.449',78.57265738
'0:06.453',73.74250665
'0:06.457',86.14871571
'0:06.461',88.29912528
'0:06.465',93.42702502
'0:06.469',94.75035399
'0:06.473',106.0978999
'0:06.477',101.7639975
'0:06.480',103.6497413
'0:06.484',109.0423068
'0:06.488',94.75035399
'0:06.492',91.24353223
'0:06.496',86.4133815
'0:06.500',101.7639975
'0:06.504',105.8001509
'0:06.508',124.9553377
'0:06.512',138.4202099
'0:06.516',150.0324216
'0:06.520',149.7677558
'0:06.523',154.3332407
'0:06.527',157.3107309
'0:06.531',170.2462715
'0:06.535',149.7677558
'0:06.539',134.9464713
'0:06.543',123.3342597
'0:06.547',109.0423068
'0:06.551',105.2708193
'0:06.555',100.4075853
'0:06.559',100.7053343
'0:06.563',89.65553747
'0:06.566',92.59994442
'0:06.570',89.09312266
'0:06.574',83.96522291
'0:06.578',83.70055712
'0:06.582',72.91542605
'0:06.586',60.806966
'0:06.590',73.47784086
'0:06.594',51.34516389
'0:06.598',20.34618286
'0:06.602',10.38813239
'0:06.605',-3.10982307
'0:06.609',-8.23772282
'0:06.613',-14.15961994
'0:06.617',-28.71623857
'0:06.621',-68.61460691
'0:06.625',-95.84210039
'0:06.629',-133.0607276
'0:06.633',-157.3107309
'0:06.637',-143.8458586
'0:06.641',-138.1555441
'0:06.645',-147.0549314
'0:06.648',-147.0549314
'0:06.652',-138.9826247
'0:06.656',-143.8458586
'0:06.660',-138.7179589
'0:06.664',-146.260934
'0:06.668',-145.4338534
'0:06.672',-137.6262125
'0:06.676',-97.19851258
'0:06.680',-1.48874509
'0:06.684',84.52763773
'0:06.688',154.0685749
'0:06.691',232.5088994
'0:06.695',213.12213
'0:06.699',169.4522741
'0:06.703',128.1974936
'0:06.707',80.19373536
'0:06.711',87.47204468
'0:06.715',64.01603875
'0:06.719',37.05321106
'0:06.723',-15.21828311
'0:06.727',-59.71521961
'0:06.730',-86.4133815
'0:06.734',-82.90655974
'0:06.738',-66.46419733
'0:06.742',-53.79332248
'0:06.746',-60.806966
'0:06.750',-51.0804981
'0:06.754',-64.01603875
'0:06.758',-50.55116651
'0:06.762',-40.03070123
'0:06.766',-30.33731655
'0:06.770',-33.57947252
'0:06.773',-29.24557016
'0:06.777',-18.19577329
'0:06.781',-10.38813239
'0:06.785',15.78069792
'0:06.789',30.33731655
'0:06.793',20.61084865
'0:06.797',16.5746953
'0:06.801',22.49659243
'0:06.805',30.33731655
'0:06.809',14.42428573
'0:06.813',22.49659243
'0:06.816',16.8393611
'0:06.820',36.25921368
'0:06.824',43.80218879
'0:06.828',45.95259836
'0:06.832',55.94373205
'0:06.836',65.37245094
'0:06.840',82.64189395
'0:06.844',90.18486906
'0:06.848',94.4856882
'0:06.852',105.5354851
'0:06.855',113.640875
'0:06.859',128.991491
'0:06.863',136.2698003
'0:06.867',142.2247807
'0:06.871',138.9826247
'0:06.875',162.4386306
'0:06.879',159.1964747
'0:06.883',182.123149
'0:06.887',188.8390435
'0:06.891',218.5146956
'0:06.895',225.7930049
'0:06.898',238.7285455
'0:06.902',260.5634735
'0:06.906',282.927733
'0:06.910',281.8690698
'0:06.914',275.6494237
'0:06.918',256.7919859
'0:06.922',244.9151085
'0:06.926',218.5146956
'0:06.930',201.7745841
'0:06.934',179.4103246
'0:06.938',144.1105244
'0:06.941',116.3206161
'0:06.945',89.65553747
'0:06.949',72.38609446
'0:06.953',34.3734699
'0:06.957',0.1323329
'0:06.961',-12.53854196
'0:06.965',-55.94373205
'0:06.969',-87.20737888
'0:06.973',-123.8635913
'0:06.977',-144.1105244
'0:06.980',-174.5470907
'0:06.984',-216.364286
'0:06.988',-230.3584898
'0:06.992',-251.6640862
'0:06.996',-257.5859833
'0:07.000',-256.7919859
'0:07.004',-265.956039
'0:07.008',-261.9198857
'0:07.012',-265.956039
'0:07.016',-256.5273201
'0:07.020',-256.7919859
'0:07.023',-234.4277264
'0:07.027',-229.8291582
'0:07.031',-216.364286
'0:07.035',-191.0225363
'0:07.039',-192.0811995
'0:07.043',-169.7169399
'0:07.047',-179.6749904
'0:07.051',-149.7677558
'0:07.055',-157.5753967
'0:07.059',-143.2834438
'0:07.063',-121.9778475
'0:07.066',-116.0559504
'0:07.070',-100.7053343
'0:07.074',-106.6272315
'0:07.078',-93.69169082
'0:07.082',-74.53650403
'0:07.086',-68.8792727
'0:07.090',-52.1722445
'0:07.094',-56.47306364
'0:07.098',-44.06685458
'0:07.102',-42.1811108
'0:07.105',-21.70259505
'0:07.109',-20.34618286
'0:07.113',-23.05900724
'0:07.117',4.99556685
'0:07.121',-10.65279818
'0:07.125',-5.26023264
'0:07.129',-2.84515728
'0:07.133',9.0317202
'0:07.137',4.43315204
'0:07.141',5.52489843
'0:07.145',-4.73090105
'0:07.148',13.33253934
'0:07.152',-6.61664483
'0:07.156',4.73090105
'0:07.160',4.99556685
'0:07.164',9.82571758
'0:07.168',12.80320775
'0:07.172',10.38813239
'0:07.176',5.78956423
'0:07.180',-10.12346659
'0:07.184',9.56105178
'0:07.188',-4.43315204
'0:07.191',9.82571758
'0:07.195',6.05423002
'0:07.199',5.78956423
'0:07.203',9.29638599
'0:07.207',-3.63915466
'0:07.211',10.38813239
'0:07.215',5.78956423
'0:07.219',20.61084865
'0:07.223',24.11767041
'0:07.227',27.88915797
'0:07.230',27.35982638
'0:07.234',38.67428904
'0:07.238',20.90859767
'0:07.242',24.3823362
'0:07.246',27.88915797
'0:07.250',42.1811108
'0:07.254',53.23090767
'0:07.258',52.1722445
'0:07.262',72.12142867
'0:07.266',75.62825043
'0:07.270',90.18486906
'0:07.273',85.85096669
'0:07.277',85.05696931
'0:07.281',72.91542605
'0:07.285',76.15758201
'0:07.289',58.35880742
'0:07.293',54.32265407
'0:07.297',37.05321106
'0:07.301',9.0317202
'0:07.305',-18.46043908
'0:07.309',-36.25921368
'0:07.313',-58.09414162
'0:07.316',-60.806966
'0:07.320',-88.82845687
'0:07.324',-83.43589133
'0:07.328',-100.4406686
'0:07.332',-121.1838501
'0:07.336',-123.8635913
'0:07.340',-137.0968809
'0:07.344',-117.1476968
'0:07.348',-133.3253934
'0:07.352',-151.3888338
'0:07.355',-153.2745775
'0:07.359',-137.6262125
'0:07.363',-136.0051345
'0:07.367',-102.8557439
'0:07.371',19.81685127
'0:07.375',155.4249871
'0:07.379',221.4591025
'0:07.383',298.0467665
'0:07.387',214.1807932
'0:07.391',105.0061535
'0:07.395',14.42428573
'0:07.398',-45.68793256
'0:07.402',-31.95839454
'0:07.406',6.61664483
'0:07.410',13.59720513
'0:07.414',-48.40075694
'0:07.418',-83.96522291
'0:07.422',-121.7131817
'0:07.426',-123.3342597
'0:07.430',-135.4758029
'0:07.434',-116.3206161
'0:07.438',-117.9416941
'0:07.441',-136.8322151
'0:07.445',-136.8322151
'0:07.449',-134.6487223
'0:07.453',-133.3253934
'0:07.457',-118.5041089
'0:07.461',-120.6545185
'0:07.465',-120.0921037
'0:07.469',-117.4123625
'0:07.473',-100.7053343
'0:07.477',-102.8557439
'0:07.480',-103.6497413
'0:07.484',-117.9416941
'0:07.488',-115.5266188
'0:07.492',-100.9700001
'0:07.496',-88.29912528
'0:07.500',-88.56379107
'0:07.504',-84.79230352
'0:07.508',-82.07947914
'0:07.512',-68.08527532
'0:07.516',-72.12142867
'0:07.520',-56.47306364
'0:07.523',-68.34994111
'0:07.527',-49.19475432
'0:07.531',-51.64291291
'0:07.535',-39.76603544
'0:07.539',-40.29536703
'0:07.543',-35.99454788
'0:07.547',-32.75239192
'0:07.551',-19.02285389
'0:07.555',-8.23772282
'0:07.559',21.96726084
'0:07.563',26.26807998
'0:07.566',47.30901055
'0:07.570',46.77967896
'0:07.574',57.56481004
'0:07.578',70.23568489
'0:07.582',73.47784086
'0:07.586',94.4856882
'0:07.590',94.75035399
'0:07.594',121.7131817
'0:07.598',133.3253934
'0:07.602',151.9181653
'0:07.605',157.8400625
'0:07.609',190.7247873
'0:07.613',200.9805868
'0:07.617',212.8574642
'0:07.621',231.4502362
'0:07.625',252.4580836
'0:07.629',254.0791615
'0:07.633',234.957058
'0:07.637',231.714902
'0:07.641',215.5372054
'0:07.645',187.7803803
'0:07.648',158.6671431
'0:07.652',155.1603213
'0:07.656',148.6760094
'0:07.660',116.5852819
'0:07.664',107.1565631
'0:07.668',109.8693874
'0:07.672',74.00717244
'0:07.676',53.52865669
'0:07.680',21.96726084
'0:07.684',10.12346659
'0:07.688',-4.16848624
'0:07.691',-38.40962325
'0:07.695',-57.56481004
'0:07.699',-89.35778845
'0:07.703',-102.5910781
'0:07.707',-132.7629786
'0:07.711',-165.6807866
'0:07.715',-184.2735586
'0:07.719',-201.8076674
'0:07.723',-231.714902
'0:07.727',-244.3857769
'0:07.730',-245.7421891
'0:07.734',-265.1620416
'0:07.738',-281.306655
'0:07.742',-278.6269139
'0:07.746',-292.3895351
'0:07.750',-277.5351675
'0:07.754',-280.7773234
'0:07.758',-265.1620416
'0:07.762',-262.1845515
'0:07.766',-243.5917795
'0:07.770',-244.1211111
'0:07.773',-230.6231556
'0:07.777',-216.066537
'0:07.781',-198.3008456
'0:07.785',-179.4103246
'0:07.789',-178.6163272
'0:07.793',-164.0597086
'0:07.797',-134.9464713
'0:07.801',-134.6487223
'0:07.805',-130.0832374
'0:07.809',-112.019797
'0:07.813',-99.08425636
'0:07.816',-86.94271309
'0:07.820',-70.23568489
'0:07.824',-50.28650072
'0:07.828',-47.57367634
'0:07.832',-33.2817235
'0:07.836',-21.43792925
'0:07.840',-6.61664483
'0:07.844',-2.54740826
'0:07.848',1.48874509
'0:07.852',16.04536372
'0:07.855',26.565829
'0:07.859',40.56003282
'0:07.863',60.24455119
'0:07.867',49.72408591
'0:07.871',65.90178252
'0:07.875',60.24455119
'0:07.879',72.38609446
'0:07.883',59.45055381
'0:07.887',65.90178252
'0:07.891',81.55014755
'0:07.895',90.97886644
'0:07.898',87.47204468
'0:07.902',91.80594704
'0:07.906',82.34414493
'0:07.910',82.64189395
'0:07.914',75.89291622
'0:07.918',71.02968227
'0:07.922',74.27183824
'0:07.926',80.45840115
'0:07.930',81.55014755
'0:07.934',76.42224781
'0:07.938',72.12142867
'0:07.941',73.74250665
'0:07.945',78.87040639
'0:07.949',95.84210039
'0:07.953',107.1565631
'0:07.957',88.03445949
'0:07.961',91.24353223
'0:07.965',95.3127688
'0:07.969',125.4846692
'0:07.973',151.6534995
'0:07.977',196.3820186
'0:07.980',170.2462715
'0:07.984',132.4983128
'0:07.988',116.883031
'0:07.992',120.9191843
'0:07.996',127.370413
'0:08.000',148.1466778
'0:08.004',175.9035029
'0:08.008',195.0586896
'0:08.012',217.4229492
'0:08.016',193.4376117
'0:08.020',182.6524806
'0:08.023',146.5255998
'0:08.027',133.0276443
'0:08.031',121.4485159
'0:08.035',110.9280506
'0:08.039',114.4348724
'0:08.043',110.9280506
'0:08.047',115.5266188
'0:08.051',90.97886644
'0:08.055',81.02081596
'0:08.059',81.55014755
'0:08.063',75.89291622
'0:08.066',66.19953154
'0:08.070',44.89393518
'0:08.074',19.28751968
'0:08.078',2.01807667
'0:08.082',40.03070123
'0:08.086',106.0978999
'0:08.090',226.3223365
'0:08.094',267.8417828
'0:08.098',322.2967698
'0:08.102',303.141583
'0:08.105',214.743208
'0:08.109',113.9055408
'0:08.113',53.52865669
'0:08.117',30.07265076
'0:08.121',34.90280149
'0:08.125',13.06787354
'0:08.129',-61.86562918
'0:08.133',-115.261953
'0:08.137',-126.5764156
'0:08.141',-146.5255998
'0:08.145',-138.1555441
'0:08.148',-114.4348724
'0:08.152',-116.883031
'0:08.156',-124.6906719
'0:08.160',-127.370413
'0:08.164',-121.7131817
'0:08.168',-115.5266188
'0:08.172',-100.9700001
'0:08.176',-107.7189779
'0:08.180',-109.8693874
'0:08.184',-89.35778845
'0:08.188',-84.52763773
'0:08.191',-84.79230352
'0:08.195',-73.74250665
'0:08.199',-76.6869136
'0:08.203',-57.82947583
'0:08.207',-68.61460691
'0:08.211',-51.64291291
'0:08.215',-56.47306364
'0:08.219',-44.3646036
'0:08.223',-42.4457766
'0:08.227',-21.43792925
'0:08.230',-19.81685127
'0:08.234',-7.41064221
'0:08.238',-11.18212977
'0:08.242',5.78956423
'0:08.246',9.82571758
'0:08.250',27.62449217
'0:08.254',40.29536703
'0:08.258',37.35096008
'0:08.262',54.32265407
'0:08.266',73.18009184
'0:08.270',74.53650403
'0:08.273',89.09312266
'0:08.277',101.7639975
'0:08.281',102.0286633
'0:08.285',105.2708193
'0:08.289',107.4212288
'0:08.293',105.5354851
'0:08.297',102.0286633
'0:08.301',117.1476968
'0:08.305',119.2981063
'0:08.309',137.6262125
'0:08.313',152.4474969
'0:08.316',165.1183718
'0:08.320',164.853706
'0:08.324',183.446478
'0:08.328',185.0675559
'0:08.332',215.2725396
'0:08.336',227.4140829
'0:08.340',227.9434145
'0:08.344',216.6289518
'0:08.348',219.0440272
'0:08.352',215.2725396
'0:08.355',225.7930049
'0:08.359',209.8799741
'0:08.363',200.1865894
'0:08.367',187.5157145
'0:08.371',183.1818122
'0:08.375',176.4328344
'0:08.379',175.6388371
'0:08.383',165.9454524
'0:08.387',154.8956555
'0:08.391',136.2698003
'0:08.395',113.640875
'0:08.398',110.9280506
'0:08.402',99.08425636
'0:08.406',88.82845687
'0:08.410',57.00239523
'0:08.414',35.72988209
'0:08.418',15.21828311
'0:08.422',-14.15961994
'0:08.426',-40.03070123
'0:08.430',-55.11665145
'0:08.434',-92.07061283
'0:08.438',-112.2844628
'0:08.441',-127.1057472
'0:08.445',-153.5392433
'0:08.449',-167.2687814
'0:08.453',-187.2179655
'0:08.457',-207.7295645
'0:08.461',-223.0801805
'0:08.465',-249.2490108
'0:08.469',-262.1845515
'0:08.473',-266.4853706
'0:08.477',-272.440351
'0:08.480',-271.8779361
'0:08.484',-265.956039
'0:08.488',-261.9198857
'0:08.492',-264.5996268
'0:08.496',-254.3769106
'0:08.500',-239.8202919
'0:08.504',-234.6923922
'0:08.508',-213.3867958
'0:08.512',-199.3595088
'0:08.516',-188.8390435
'0:08.520',-174.2824249
'0:08.523',-169.4522741
'0:08.527',-163.7950428
'0:08.531',-149.205341
'0:08.535',-139.5119563
'0:08.539',-126.3117498
'0:08.543',-121.1838501
'0:08.547',-99.34892215
'0:08.551',-99.87825374
'0:08.555',-74.27183824
'0:08.559',-77.5139942
'0:08.563',-57.30014424
'0:08.566',-51.0804981
'0:08.570',-35.16746728
'0:08.574',-40.56003282
'0:08.578',-28.18690698
'0:08.582',-25.20941681
'0:08.586',-19.55218548
'0:08.590',-2.84515728
'0:08.594',-7.9399738
'0:08.598',4.43315204
'0:08.602',6.61664483
'0:08.605',12.27387616
'0:08.609',-1.75341088
'0:08.613',9.82571758
'0:08.617',4.73090105
'0:08.621',5.78956423
'0:08.625',11.44679556
'0:08.629',13.89495415
'0:08.633',10.38813239
'0:08.637',5.78956423
'0:08.641',6.05423002
'0:08.645',10.38813239
'0:08.648',-2.28274247
'0:08.652',11.18212977
'0:08.656',5.78956423
'0:08.660',20.61084865
'0:08.664',24.94475102
'0:08.668',29.24557016
'0:08.672',28.18690698
'0:08.676',38.93895483
'0:08.680',36.25921368
'0:08.684',40.29536703
'0:08.688',29.51023595
'0:08.691',29.51023595
'0:08.695',39.23670385
'0:08.699',4.16848624
'0:08.703',-6.61664483
'0:08.707',-17.10402689
'0:08.711',-19.28751968
'0:08.715',-26.00341419
'0:08.719',-28.71623857
'0:08.723',-23.85300462
'0:08.727',-18.46043908
'0:08.730',-19.28751968
'0:08.734',6.05423002
'0:08.738',33.2817235
'0:08.742',52.96624188
'0:08.746',61.0716318
'0:08.750',63.48670716
'0:08.754',72.91542605
'0:08.758',66.46419733
'0:08.762',53.23090767
'0:08.766',92.07061283
'0:08.770',139.2472905
'0:08.773',256.7919859
'0:08.777',314.2244631
'0:08.781',385.9158098
'0:08.785',368.67945
'0:08.789',265.1289584
'0:08.793',147.882012
'0:08.797',85.5863009
'0:08.801',60.806966
'0:08.805',66.19953154
'0:08.809',92.59994442
'0:08.813',62.95737557
'0:08.816',-5.78956423
'0:08.820',-43.2728572
'0:08.824',-60.50921699
'0:08.828',-72.91542605
'0:08.832',-85.5863009
'0:08.836',-86.94271309
'0:08.840',-107.1565631
'0:08.844',-123.8635913
'0:08.848',-136.2698003
'0:08.852',-133.854725
'0:08.855',-120.6545185
'0:08.859',-124.6906719
'0:08.863',-139.2472905
'0:08.867',-149.7677558
'0:08.871',-132.7629786
'0:08.875',-121.9778475
'0:08.879',-110.398719
'0:08.883',-107.1565631
'0:08.887',-100.4406686
'0:08.891',-98.81959056
'0:08.895',-103.9144071
'0:08.898',-108.5129752
'0:08.902',-106.8918973
'0:08.906',-101.2346659
'0:08.910',-99.08425636
'0:08.914',-102.8557439
'0:08.918',-91.54128125
'0:08.922',-91.24353223
'0:08.926',-85.85096669
'0:08.930',-82.37722816
'0:08.934',-85.32163511
'0:08.938',-74.53650403
'0:08.941',-75.36358463
'0:08.945',-54.85198566
'0:08.949',-51.0804981
'0:08.953',-36.52387947
'0:08.957',-41.12244763
'0:08.961',-26.30116321
'0:08.965',-23.05900724
'0:08.969',-34.3734699
'0:08.973',-19.02285389
'0:08.977',-8.7670544
'0:08.980',3.90382045
'0:08.984',7.9399738
'0:08.988',14.15961994
'0:08.992',29.77490174
'0:08.996',39.50136965
'0:09.000',35.99454788
'0:09.004',55.94373205
'0:09.008',76.6869136
'0:09.012',76.98466262
'0:09.016',73.18009184
'0:09.020',85.85096669
'0:09.023',102.5910781
'0:09.027',106.6272315
'0:09.031',109.0423068
'0:09.035',106.8918973
'0:09.039',103.1204097
'0:09.043',102.3264123
'0:09.047',89.92020326
'0:09.051',92.86461021
'0:09.055',105.8001509
'0:09.059',101.2346659
'0:09.063',101.4993317
'0:09.066',105.8001509
'0:09.070',92.86461021
'0:09.074',106.0978999
'0:09.078',100.7053343
'0:09.082',100.4075853
'0:09.086',104.7414877
'0:09.090',107.9836437
'0:09.094',105.8001509
'0:09.098',101.2346659
'0:09.102',100.1429195
'0:09.105',88.29912528
'0:09.109',76.15758201
'0:09.113',43.53752299
'0:09.117',38.67428904
'0:09.121',19.55218548
'0:09.125',6.31889581
'0:09.129',-4.99556685
'0:09.133',-4.99556685
'0:09.137',-10.12346659
'0:09.141',-28.98090436
'0:09.145',-41.12244763
'0:09.148',-52.43691029
'0:09.152',-53.23090767
'0:09.156',-58.92122223
'0:09.160',-76.98466262
'0:09.164',-88.56379107
'0:09.168',-99.61358794
'0:09.172',-116.5852819
'0:09.176',-122.2755965
'0:09.180',-140.8683685
'0:09.184',-152.7121627
'0:09.188',-163.4972938
'0:09.191',-179.6749904
'0:09.195',-200.715921
'0:09.199',-203.9580769
'0:09.203',-217.4229492
'0:09.207',-227.9434145
'0:09.211',-242.2353673
'0:09.215',-231.4502362
'0:09.219',-236.578136
'0:09.223',-234.1299774
'0:09.227',-243.0293647
'0:09.230',-224.7012585
'0:09.234',-245.7421891
'0:09.238',-234.6923922
'0:09.242',-233.6006458
'0:09.246',-212.0303836
'0:09.250',-209.3506425
'0:09.254',-196.1173528
'0:09.258',-200.4512552
'0:09.262',-184.2735586
'0:09.266',-179.9396562
'0:09.270',-176.4659177
'0:09.273',-162.4386306
'0:09.277',-151.3888338
'0:09.281',-151.9181653
'0:09.285',-131.1749838
'0:09.289',-112.2844628
'0:09.293',-98.25717575
'0:09.297',-101.7639975
'0:09.301',-85.5863009
'0:09.305',-82.37722816
'0:09.309',-64.31378776
'0:09.313',-65.63711673
'0:09.316',-37.08629428
'0:09.320',-22.49659243
'0:09.324',-19.02285389
'0:09.328',-14.68895153
'0:09.332',0.39699869
'0:09.336',11.18212977
'0:09.340',24.68008522
'0:09.344',28.71623857
'0:09.348',49.45942012
'0:09.352',48.93008853
'0:09.355',60.24455119
'0:09.359',57.56481004
'0:09.363',60.806966
'0:09.367',65.10778514
'0:09.371',65.10778514
'0:09.375',76.15758201
'0:09.379',72.91542605
'0:09.383',91.54128125
'0:09.387',95.84210039
'0:09.391',112.2844628
'0:09.395',108.5129752
'0:09.398',106.0978999
'0:09.402',107.9836437
'0:09.406',111.1927164
'0:09.410',111.4904654
'0:09.414',108.5129752
'0:09.418',106.0978999
'0:09.422',122.8049281
'0:09.426',94.2210224
'0:09.430',81.02081596
'0:09.434',78.30799158
'0:09.438',73.18009184
'0:09.441',72.12142867
'0:09.445',76.15758201
'0:09.449',79.66440377
'0:09.453',78.04332579
'0:09.457',89.09312266
'0:09.461',102.8557439
'0:09.465',106.3625657
'0:09.469',111.1927164
'0:09.473',126.5764156
'0:09.477',136.8322151
'0:09.480',134.1193907
'0:09.484',122.8049281
'0:09.488',143.8127754
'0:09.492',187.7803803
'0:09.496',304.4979952
'0:09.500',394.8151971
'0:09.504',483.5113211
'0:09.508',543.9212884
'0:09.512',500.5160983
'0:09.516',447.3844403
'0:09.520',375.3953445
'0:09.523',310.9823071
'0:09.527',268.6357802
'0:09.531',254.3769106
'0:09.535',201.5099184
'0:09.539',118.7687747
'0:09.543',73.47784086
'0:09.547',43.00819141
'0:09.551',24.3823362
'0:09.555',19.55218548
'0:09.559',2.84515728
'0:09.563',-39.50136965
'0:09.566',-66.46419733
'0:09.570',-85.85096669
'0:09.574',-78.30799158
'0:09.578',-81.28548176
'0:09.582',-74.80116982
'0:09.586',-82.90655974
'0:09.590',-99.34892215
'0:09.594',-107.1565631
'0:09.598',-97.19851258
'0:09.602',-93.69169082
'0:09.605',-85.05696931
'0:09.609',-98.25717575
'0:09.613',-103.9144071
'0:09.617',-95.57743459
'0:09.621',-95.04810301
'0:09.625',-102.3264123
'0:09.629',-81.55014755
'0:09.633',-87.20737888
'0:09.637',-78.87040639
'0:09.641',-78.87040639
'0:09.645',-70.76501648
'0:09.648',-65.63711673
'0:09.652',-69.40860428
'0:09.656',-61.33629759
'0:09.660',-47.30901055
'0:09.664',-40.56003282
'0:09.668',-33.84413831
'0:09.672',-20.08151706
'0:09.676',-12.27387616
'0:09.680',0.39699869
'0:09.684',21.96726084
'0:09.688',29.24557016
'0:09.691',29.51023595
'0:09.695',38.40962325
'0:09.699',48.93008853
'0:09.703',68.08527532
'0:09.707',75.62825043
'0:09.711',93.69169082
'0:09.715',103.3850755
'0:09.719',113.0784602
'0:09.723',115.5266188
'0:09.727',138.7179589
'0:09.730',156.4836503
'0:09.734',166.7394498
'0:09.738',177.5245808
'0:09.742',179.6749904
'0:09.746',186.4239681
'0:09.750',188.5743777
'0:09.754',183.446478
'0:09.758',193.4376117
'0:09.762',193.9669432
'0:09.766',184.8028902
'0:09.770',188.5743777
'0:09.773',168.3605277
'0:09.777',177.259915
'0:09.781',160.2882211
'0:09.785',166.7394498
'0:09.789',155.4249871
'0:09.793',137.0968809
'0:09.797',145.6985192
'0:09.801',142.2247807
'0:09.805',131.9689812
'0:09.809',123.0695939
'0:09.813',106.3625657
'0:09.816',113.9055408
'0:09.820',92.86461021
'0:09.824',82.34414493
'0:09.828',74.53650403
'0:09.832',74.00717244
'0:09.836',80.45840115
'0:09.840',75.06583562
'0:09.844',65.10778514
'0:09.848',74.27183824
'0:09.852',73.74250665
'0:09.855',64.84311935
'0:09.859',75.06583562
'0:09.863',79.13507219
'0:09.867',88.03445949
'0:09.871',89.65553747
'0:09.875',97.99250996
'0:09.879',106.6272315
'0:09.883',109.6047216
'0:09.887',87.73671047
'0:09.891',60.806966
'0:09.895',37.88029166
'0:09.898',-3.37448886
'0:09.902',-34.63813569
'0:09.906',-57.56481004
'0:09.910',-84.52763773
'0:09.914',-90.97886644
'0:09.918',-131.7043154
'0:09.922',-146.7902656
'0:09.926',-169.9816057
'0:09.930',-196.4151018
'0:09.934',-217.4229492
'0:09.938',-242.2353673
'0:09.941',-259.2070613
'0:09.945',-282.927733
'0:09.949',-292.3895351
'0:09.953',-296.6903543
'0:09.957',-305.8544074
'0:09.961',-307.4754853
'0:09.965',-299.3700954
'0:09.969',-292.6542009
'0:09.973',-295.0692763
'0:09.977',-287.2616354
'0:09.980',-274.3260947
'0:09.984',-268.1064486
'0:09.988',-244.3857769
'0:09.992',-229.8291582
'0:09.996',-221.1944367
'0:10.000',-208.5235619
'0:10.004',-202.8663305
'0:10.008',-195.3233554
'0:10.012',-195.3233554
'0:10.016',-186.4239681
'0:10.020',-175.6388371
'0:10.023',-155.9543187
'0:10.027',-132.4983128
'0:10.031',-130.3479032
'0:10.035',-119.5627721
'0:10.039',-109.3069726
'0:10.043',-92.07061283
'0:10.047',-85.05696931
'0:10.051',-81.02081596
'0:10.055',-69.14393849
'0:10.059',-59.9798854
'0:10.063',-60.24455119
'0:10.066',-37.61562587
'0:10.070',-33.2817235
'0:10.074',-20.34618286
'0:10.078',-10.91746397
'0:10.082',-11.74454458
'0:10.086',-5.26023264
'0:10.090',-0.39699869
'0:10.094',12.00921037
'0:10.098',20.90859767
'0:10.102',4.73090105
'0:10.105',27.09516059
'0:10.109',15.51603213
'0:10.113',28.45157278
'0:10.117',37.05321106
'0:10.121',35.72988209
'0:10.125',42.1811108
'0:10.129',63.22204137
'0:10.133',60.24455119
'0:10.137',69.67327008
'0:10.141',68.34994111
'0:10.145',73.74250665
'0:10.148',63.22204137
'0:10.152',76.98466262
'0:10.156',69.67327008
'0:10.160',67.7875263
'0:10.164',72.91542605
'0:10.168',62.69270978
'0:10.172',46.25034737
'0:10.176',39.76603544
'0:10.180',35.4652163
'0:10.184',38.40962325
'0:10.188',28.98090436
'0:10.191',30.33731655
'0:10.195',24.68008522
'0:10.199',34.90280149
'0:10.203',21.17326346
'0:10.207',13.06787354
'0:10.211',30.86664814
'0:10.215',24.11767041
'0:10.219',34.10880411
'0:10.223',36.25921368
'0:10.227',28.45157278
'0:10.230',16.31002951
'0:10.234',41.38711342
'0:10.238',125.2200034
'0:10.242',247.8925986
'0:10.246',336.5887226
'0:10.250',413.7057181
'0:10.254',385.9158098
'0:10.258',286.6992206
'0:10.262',186.4239681
'0:10.266',120.9191843
'0:10.270',104.2121561
'0:10.273',117.6770283
'0:10.277',115.7912846
'0:10.281',71.29434806
'0:10.285',28.71623857
'0:10.289',-19.02285389
'0:10.293',-41.38711342
'0:10.297',-47.57367634
'0:10.301',-46.51501317
'0:10.305',-55.41440047
'0:10.309',-66.99352892
'0:10.313',-71.29434806
'0:10.316',-78.87040639
'0:10.320',-95.04810301
'0:10.324',-88.03445949
'0:10.328',-99.34892215
'0:10.332',-102.8557439
'0:10.336',-109.6047216
'0:10.340',-126.3117498
'0:10.344',-151.124168
'0:10.348',-146.260934
'0:10.352',-135.4758029
'0:10.355',-96.93384678
'0:10.359',-66.72886313
'0:10.363',-57.03547845
'0:10.367',-62.95737557
'0:10.371',-80.75615017
'0:10.375',-107.1565631
'0:10.379',-112.8137944
'0:10.383',-91.80594704
'0:10.387',-83.70055712
'0:10.391',-66.46419733
'0:10.395',-73.18009184
'0:10.398',-62.69270978
'0:10.402',-59.71521961
'0:10.406',-52.1722445
'0:10.410',-50.02183493
'0:10.414',-55.41440047
'0:10.418',-45.42326677
'0:10.422',-28.98090436
'0:10.426',-22.23192663
'0:10.430',-17.6664417
'0:10.434',-5.52489843
'0:10.438',-12.00921037
'0:10.441',-12.27387616
'0:10.445',9.29638599
'0:10.449',-2.54740826
'0:10.453',11.18212977
'0:10.457',20.90859767
'0:10.461',34.63813569
'0:10.465',39.76603544
'0:10.469',45.68793256
'0:10.473',44.89393518
'0:10.477',54.05798828
'0:10.480',65.90178252
'0:10.484',69.9710191
'0:10.488',61.60096338
'0:10.492',62.95737557
'0:10.496',55.67906626
'0:10.500',65.37245094
'0:10.504',83.17122553
'0:10.508',75.06583562
'0:10.512',79.39973798
'0:10.516',89.35778845
'0:10.520',81.28548176
'0:10.523',82.34414493
'0:10.527',74.80116982
'0:10.531',79.39973798
'0:10.535',73.74250665
'0:10.539',50.28650072
'0:10.543',50.81583231
'0:10.547',41.65177922
'0:10.551',45.68793256
'0:10.555',41.12244763
'0:10.559',50.02183493
'0:10.563',49.19475432
'0:10.566',56.20839785
'0:10.570',61.0716318
'0:10.574',58.09414162
'0:10.578',51.34516389
'0:10.582',34.3734699
'0:10.586',9.0317202
'0:10.590',-1.75341088
'0:10.594',-6.05423002
'0:10.598',-29.51023595
'0:10.602',-45.95259836
'0:10.605',-39.76603544
'0:10.609',-51.64291291
'0:10.613',-54.32265407
'0:10.617',-76.15758201
'0:10.621',-77.24932841
'0:10.625',-73.18009184
'0:10.629',-100.1429195
'0:10.633',-116.0559504
'0:10.637',-121.7131817
'0:10.641',-141.3977001
'0:10.645',-153.8039091
'0:10.648',-164.0597086
'0:10.652',-194.7940239
'0:10.656',-199.6241746
'0:10.660',-220.6651051
'0:10.664',-234.4277264
'0:10.668',-259.4717271
'0:10.672',-272.9696825
'0:10.676',-278.6269139
'0:10.680',-300.197176
'0:10.684',-313.9597973
'0:10.688',-307.4754853
'0:10.691',-290.2060423
'0:10.695',-295.0692763
'0:10.699',-282.927733
'0:10.703',-265.1620416
'0:10.707',-243.8564453
'0:10.711',-241.4082867
'0:10.715',-227.9434145
'0:10.719',-216.364286
'0:10.723',-200.4512552
'0:10.727',-180.2374052
'0:10.730',-176.4659177
'0:10.734',-161.61155
'0:10.738',-150.2970874
'0:10.742',-135.7404687
'0:10.746',-131.7043154
'0:10.750',-111.4904654
'0:10.754',-112.2844628
'0:10.758',-100.4406686
'0:10.762',-86.94271309
'0:10.766',-68.61460691
'0:10.770',-63.75137295
'0:10.773',-46.77967896
'0:10.777',-35.16746728
'0:10.781',-38.14495745
'0:10.785',-19.81685127
'0:10.789',-31.13131393
'0:10.793',-13.89495415
'0:10.797',-2.84515728
'0:10.801',9.0317202
'0:10.805',11.44679556
'0:10.809',17.6664417
'0:10.813',34.63813569
'0:10.816',29.77490174
'0:10.820',41.65177922
'0:10.824',43.2728572
'0:10.828',48.93008853
'0:10.832',50.81583231
'0:10.836',77.77866
'0:10.840',88.03445949
'0:10.844',90.18486906
'0:10.848',97.46317837
'0:10.852',100.1429195
'0:10.855',110.398719
'0:10.859',103.9144071
'0:10.863',105.8001509
'0:10.867',97.19851258
'0:10.871',100.1429195
'0:10.875',94.4856882
'0:10.879',88.03445949
'0:10.883',88.82845687
'0:10.887',79.92906957
'0:10.891',83.70055712
'0:10.895',78.87040639
'0:10.898',72.12142867
'0:10.902',72.12142867
'0:10.906',78.30799158
'0:10.910',66.72886313
'0:10.914',79.13507219
'0:10.918',87.47204468
'0:10.922',86.14871571
'0:10.926',93.12927601
'0:10.930',98.52184154
'0:10.934',95.57743459
'0:10.938',104.2121561
'0:10.941',132.4983128
'0:10.945',168.3605277
'0:10.949',283.4901478
'0:10.953',390.514378
'0:10.957',465.7125465
'0:10.961',517.4877923
'0:10.965',480.8315799
'0:10.969',409.10715
'0:10.973',355.1814946
'0:10.977',309.3612291
'0:10.980',303.141583
'0:10.984',294.8046105
'0:10.988',243.5917795
'0:10.992',197.473765
'0:10.996',153.2745775
'0:11.000',110.6633848
'0:11.004',97.99250996
'0:11.008',108.5129752
'0:11.012',111.4904654
'0:11.016',72.65076025
'0:11.020',50.02183493
'0:11.023',50.81583231
'0:11.027',40.85778184
'0:11.031',59.71521961
'0:11.035',55.11665145
'0:11.039',50.02183493
'0:11.043',35.72988209
'0:11.047',10.38813239
'0:11.051',-2.84515728
'0:11.055',-39.23670385
'0:11.059',-60.806966
'0:11.063',-61.60096338
'0:11.066',-57.56481004
'0:11.070',-69.40860428
'0:11.074',-70.76501648
'0:11.078',-90.97886644
'0:11.082',-92.59994442
'0:11.086',-90.18486906
'0:11.090',-87.20737888
'0:11.094',-71.85676287
'0:11.098',-59.45055381
'0:11.102',-60.806966
'0:11.105',-57.30014424
'0:11.109',-38.40962325
'0:11.113',-39.76603544
'0:11.117',-27.09516059
'0:11.121',-27.88915797
'0:11.125',-9.29638599
'0:11.129',-6.88131063
'0:11.133',8.50238861
'0:11.137',36.52387947
'0:11.141',65.90178252
'0:11.145',53.79332248
'0:11.148',44.62926939
'0:11.152',29.24557016
'0:11.156',38.14495745
'0:11.160',47.83834213
'0:11.164',65.90178252
'0:11.168',74.00717244
'0:11.172',93.12927601
'0:11.176',103.1204097
'0:11.180',112.2844628
'0:11.184',144.639856
'0:11.188',151.9181653
'0:11.191',157.0460651
'0:11.195',169.1545251
'0:11.199',161.61155
'0:11.203',160.8175526
'0:11.207',151.6534995
'0:11.211',172.1320153
'0:11.215',152.4474969
'0:11.219',146.260934
'0:11.223',144.9045218
'0:11.227',149.50309
'0:11.230',153.5392433
'0:11.234',136.2698003
'0:11.238',147.0549314
'0:11.242',128.4621594
'0:11.246',116.5852819
'0:11.250',120.9191843
'0:11.254',103.6497413
'0:11.258',98.81959056
'0:11.262',80.45840115
'0:11.266',68.08527532
'0:11.270',71.85676287
'0:11.273',54.58731986
'0:11.277',65.90178252
'0:11.281',47.57367634
'0:11.285',35.72988209
'0:11.289',39.76603544
'0:11.293',37.88029166
'0:11.297',48.13609115
'0:11.301',46.25034737
'0:11.305',50.81583231
'0:11.309',55.67906626
'0:11.313',54.32265407
'0:11.316',64.57845356
'0:11.320',61.86562918
'0:11.324',66.19953154
'0:11.328',86.6780473
'0:11.332',69.9710191
'0:11.336',81.55014755
'0:11.340',62.95737557
'0:11.344',50.55116651
'0:11.348',23.85300462
'0:11.352',7.675308
'0:11.355',1.48874509
'0:11.359',-33.84413831
'0:11.363',-61.33629759
'0:11.367',-71.59209708
'0:11.371',-89.09312266
'0:11.375',-110.9280506
'0:11.379',-129.5539058
'0:11.383',-141.6623659
'0:11.387',-168.095862
'0:11.391',-184.0088928
'0:11.395',-220.9297709
'0:11.398',-240.0849577
'0:11.402',-238.4638797
'0:11.406',-234.957058
'0:11.410',-264.8642926
'0:11.414',-281.604404
'0:11.418',-269.7275266
'0:11.422',-287.5263012
'0:11.426',-299.1054296
'0:11.430',-279.4209112
'0:11.434',-281.604404
'0:11.438',-285.1112258
'0:11.441',-269.7275266
'0:11.445',-266.7500364
'0:11.449',-262.9785488
'0:11.453',-247.6279328
'0:11.457',-235.7510554
'0:11.461',-221.4591025
'0:11.465',-217.687615
'0:11.469',-212.8574642
'0:11.473',-197.473765
'0:11.477',-186.6886339
'0:11.480',-188.5743777
'0:11.484',-184.2735586
'0:11.488',-163.7950428
'0:11.492',-149.50309
'0:11.496',-138.4532931
'0:11.500',-139.2472905
'0:11.504',-118.7687747
'0:11.508',-99.87825374
'0:11.512',-100.9700001
'0:11.516',-88.29912528
'0:11.520',-73.74250665
'0:11.523',-71.02968227
'0:11.527',-82.37722816
'0:11.531',-66.46419733
'0:11.535',-55.94373205
'0:11.539',-43.2728572
'0:11.543',-39.76603544
'0:11.547',-33.57947252
'0:11.551',-48.40075694
'0:11.555',-22.23192663
'0:11.559',-27.88915797
'0:11.563',-24.68008522
'0:11.566',-17.40177591
'0:11.570',-15.51603213
'0:11.574',-21.17326346
'0:11.578',-10.91746397
'0:11.582',5.78956423
'0:11.586',12.27387616
'0:11.590',16.5746953
'0:11.594',13.33253934
'0:11.598',7.14597642
'0:11.602',21.70259505
'0:11.605',10.91746397
'0:11.609',16.31002951
'0:11.613',29.77490174
'0:11.617',23.05900724
'0:11.621',6.31889581
'0:11.625',12.00921037
'0:11.629',0.1323329
'0:11.633',-2.28274247
'0:11.637',-8.50238861
'0:11.641',-10.12346659
'0:11.645',-5.52489843
'0:11.648',14.42428573
'0:11.652',28.18690698
'0:11.656',23.58833883
'0:11.660',23.58833883
'0:11.664',43.00819141
'0:11.668',29.77490174
'0:11.672',29.24557016
'0:11.676',40.85778184
'0:11.680',38.40962325
'0:11.684',72.38609446
'0:11.688',152.7121627
'0:11.691',275.6494237
'0:11.695',367.3230378
'0:11.699',451.4205937
'0:11.703',476.7623434
'0:11.707',389.4226316
'0:11.711',278.8915797
'0:11.715',205.8438207
'0:11.719',162.7032964
'0:11.723',191.8165337
'0:11.727',213.9161274
'0:11.730',175.1095055
'0:11.734',114.6995382
'0:11.738',59.9798854
'0:11.742',3.37448886
'0:11.746',-28.71623857
'0:11.750',-23.05900724
'0:11.754',-35.99454788
'0:11.758',-39.23670385
'0:11.762',-29.24557016
'0:11.766',-45.68793256
'0:11.770',-54.85198566
'0:11.773',-50.81583231
'0:11.777',-54.85198566
'0:11.781',-76.6869136
'0:11.785',-76.6869136
'0:11.789',-87.20737888
'0:11.793',-99.08425636
'0:11.797',-102.0286633
'0:11.801',-92.86461021
'0:11.805',-109.8693874
'0:11.809',-118.7687747
'0:11.813',-113.9055408
'0:11.816',-117.4123625
'0:11.820',-124.4260061
'0:11.824',-109.8693874
'0:11.828',-104.4768219
'0:11.832',-114.1702066
'0:11.836',-99.34892215
'0:11.840',-106.8918973
'0:11.844',-109.3069726
'0:11.848',-88.82845687
'0:11.852',-83.43589133
'0:11.855',-67.7875263
'0:11.859',-73.18009184
'0:11.863',-59.9798854
'0:11.867',-56.73772943
'0:11.871',-51.34516389
'0:11.875',-50.81583231
'0:11.879',-39.76603544
'0:11.883',-28.18690698
'0:11.887',-25.7387484
'0:11.891',-19.28751968
'0:11.895',-17.40177591
'0:11.898',-6.61664483
'0:11.902',3.63915466
'0:11.906',5.26023264
'0:11.910',12.53854196
'0:11.914',46.25034737
'0:11.918',40.85778184
'0:11.922',52.43691029
'0:11.926',69.9710191
'0:11.930',75.36358463
'0:11.934',78.30799158
'0:11.938',90.44953485
'0:11.941',69.40860428
'0:11.945',70.76501648
'0:11.949',90.71420064
'0:11.953',76.42224781
'0:11.957',90.18486906
'0:11.961',86.14871571
'0:11.965',101.4993317
'0:11.969',89.35778845
'0:11.973',92.86461021
'0:11.977',90.71420064
'0:11.980',86.14871571
'0:11.984',85.05696931
'0:11.988',72.91542605
'0:11.992',61.0716318
'0:11.996',59.45055381
'0:12.000',53.79332248
'0:12.004',51.60982969
'0:12.008',70.76501648
'0:12.012',74.80116982
'0:12.016',90.44953485
'0:12.020',101.7639975
'0:12.023',99.61358794
'0:12.027',87.47204468
'0:12.031',61.33629759
'0:12.035',45.15860098
'0:12.039',23.05900724
'0:12.043',3.10982307
'0:12.047',-10.12346659
'0:12.051',-20.61084865
'0:12.055',-35.72988209
'0:12.059',-56.47306364
'0:12.063',-76.15758201
'0:12.066',-90.18486906
'0:12.070',-101.4993317
'0:12.074',-116.3206161
'0:12.078',-135.4758029
'0:12.082',-154.8956555
'0:12.086',-185.3322217
'0:12.090',-212.2950494
'0:12.094',-227.1494171
'0:12.098',-247.363267
'0:12.102',-267.0477854
'0:12.105',-281.0419892
'0:12.109',-292.3895351
'0:12.113',-291.2977887
'0:12.117',-295.3339421
'0:12.121',-313.9597973
'0:12.125',-296.1610227
'0:12.129',-292.9188667
'0:12.133',-275.9140895
'0:12.137',-262.4492173
'0:12.141',-248.686596
'0:12.145',-231.1855704
'0:12.148',-212.0303836
'0:12.152',-210.1446399
'0:12.156',-195.852687
'0:12.160',-167.2687814
'0:12.164',-167.2687814
'0:12.168',-162.4386306
'0:12.172',-143.8458586
'0:12.176',-130.8772348
'0:12.180',-134.3840565
'0:12.184',-117.6770283
'0:12.188',-113.9055408
'0:12.191',-95.57743459
'0:12.195',-82.37722816
'0:12.199',-69.9710191
'0:12.203',-53.52865669
'0:12.207',-49.19475432
'0:12.211',-46.25034737
'0:12.215',-32.48772612
'0:12.219',-6.05423002
'0:12.223',-6.88131063
'0:12.227',-0.9594135
'0:12.230',19.28751968
'0:12.234',31.66064552
'0:12.238',41.65177922
'0:12.242',41.65177922
'0:12.246',63.22204137
'0:12.250',66.72886313
'0:12.254',64.57845356
'0:12.258',75.06583562
'0:12.262',73.47784086
'0:12.266',93.42702502
'0:12.270',81.81481334
'0:12.273',81.81481334
'0:12.277',92.07061283
'0:12.281',88.56379107
'0:12.285',92.07061283
'0:12.289',97.46317837
'0:12.293',82.07947914
'0:12.297',93.12927601
'0:12.301',88.29912528
'0:12.305',90.44953485
'0:12.309',96.10676618
'0:12.313',97.72784416
'0:12.316',124.1613403
'0:12.320',119.0334405
'0:12.324',137.0968809
'0:12.328',127.9328278
'0:12.332',130.612569
'0:12.336',140.8683685
'0:12.340',119.0334405
'0:12.344',120.9191843
'0:12.348',127.1057472
'0:12.352',128.7268252
'0:12.355',108.777641
'0:12.359',120.0921037
'0:12.363',119.5627721
'0:12.367',124.4260061
'0:12.371',127.668162
'0:12.375',140.6037027
'0:12.379',135.4758029
'0:12.383',150.8264189
'0:12.387',154.8956555
'0:12.391',158.6671431
'0:12.395',141.6623659
'0:12.398',137.6262125
'0:12.402',119.2981063
'0:12.406',121.7131817
'0:12.410',109.0423068
'0:12.414',108.777641
'0:12.418',104.7414877
'0:12.422',133.0276443
'0:12.426',226.8516681
'0:12.430',322.032104
'0:12.434',373.5096008
'0:12.438',426.376593
'0:12.441',365.9666256
'0:12.445',257.5859833
'0:12.449',176.7305835
'0:12.453',106.0978999
'0:12.457',99.34892215
'0:12.461',113.3762092
'0:12.465',102.8557439
'0:12.469',62.39496076
'0:12.473',30.86664814
'0:12.477',6.61664483
'0:12.480',-15.78069792
'0:12.484',2.28274247
'0:12.488',-6.35197904
'0:12.492',-3.10982307
'0:12.496',-23.58833883
'0:12.500',-60.50921699
'0:12.504',-106.0978999
'0:12.508',-116.883031
'0:12.512',-132.7629786
'0:12.516',-138.1555441
'0:12.520',-126.8410814
'0:12.523',-124.6906719
'0:12.527',-118.2063599
'0:12.531',-115.7912846
'0:12.535',-89.09312266
'0:12.539',-94.75035399
'0:12.543',-76.6869136
'0:12.547',-85.32163511
'0:12.551',-66.46419733
'0:12.555',-56.47306364
'0:12.559',-62.42804399
'0:12.563',-44.3646036
'0:12.566',-22.23192663
'0:12.570',-19.55218548
'0:12.574',-22.49659243
'0:12.578',-11.74454458
'0:12.582',-12.27387616
'0:12.586',-7.14597642
'0:12.590',12.27387616
'0:12.594',9.56105178
'0:12.598',20.90859767
'0:12.602',35.72988209
'0:12.605',39.76603544
'0:12.609',44.06685458
'0:12.613',58.62347321
'0:12.617',68.8792727
'0:12.621',67.25819471
'0:12.625',87.47204468
'0:12.629',91.54128125
'0:12.633',106.3625657
'0:12.637',101.4993317
'0:12.641',115.5266188
'0:12.645',118.4710257
'0:12.648',122.8049281
'0:12.652',122.8049281
'0:12.656',134.1193907
'0:12.660',130.8772348
'0:12.664',133.5900592
'0:12.668',138.1555441
'0:12.672',138.4202099
'0:12.676',149.50309
'0:12.680',161.3468842
'0:12.684',163.7619596
'0:12.688',169.4522741
'0:12.691',170.7756031
'0:12.695',181.5607342
'0:12.699',176.7305835
'0:12.703',147.882012
'0:12.707',154.3332407
'0:12.711',154.0685749
'0:12.715',132.233647
'0:12.719',128.7268252
'0:12.723',146.260934
'0:12.727',134.9464713
'0:12.730',137.0968809
'0:12.734',117.9416941
'0:12.738',98.25717575
'0:12.742',98.25717575
'0:12.746',85.05696931
'0:12.750',87.20737888
'0:12.754',69.40860428
'0:12.758',81.81481334
'0:12.762',80.19373536
'0:12.766',83.17122553
'0:12.770',101.7639975
'0:12.773',85.32163511
'0:12.777',67.7875263
'0:12.781',66.46419733
'0:12.785',50.81583231
'0:12.789',36.78854526
'0:12.793',21.43792925
'0:12.797',4.16848624
'0:12.801',-13.63028835
'0:12.805',-44.89393518
'0:12.809',-74.27183824
'0:12.813',-89.92020326
'0:12.816',-93.12927601
'0:12.820',-127.1057472
'0:12.824',-125.2200034
'0:12.828',-154.0685749
'0:12.832',-184.5382244
'0:12.836',-187.5157145
'0:12.840',-207.4648987
'0:12.844',-222.2861831
'0:12.848',-233.8653116
'0:12.852',-247.6279328
'0:12.855',-266.2207048
'0:12.859',-285.6405574
'0:12.863',-300.9911734
'0:12.867',-313.3973825
'0:12.871',-311.7763045
'0:12.875',-314.2244631
'0:12.879',-317.16887
'0:12.883',-300.7265076
'0:12.887',-313.1327167
'0:12.891',-294.2752789
'0:12.895',-281.0419892
'0:12.898',-284.2841452
'0:12.902',-251.928752
'0:12.906',-248.4219302
'0:12.910',-229.5644924
'0:12.914',-230.3584898
'0:12.918',-217.4229492
'0:12.922',-202.6016648
'0:12.926',-184.5382244
'0:12.930',-181.0314026
'0:12.934',-179.6749904
'0:12.938',-166.474784
'0:12.941',-153.8039091
'0:12.945',-137.3615467
'0:12.949',-148.4113436
'0:12.953',-113.9055408
'0:12.957',-117.6770283
'0:12.961',-105.2708193
'0:12.965',-88.56379107
'0:12.969',-84.26297193
'0:12.973',-81.02081596
'0:12.977',-67.52286051
'0:12.980',-72.12142867
'0:12.984',-56.47306364
'0:12.988',-52.43691029
'0:12.992',-33.2817235
'0:12.996',-19.55218548
'0:13.000',-7.675308
'0:13.004',7.675308
'0:13.008',11.71146135
'0:13.012',0.1323329
'0:13.016',14.68895153
'0:13.020',24.3823362
'0:13.023',22.23192663
'0:13.027',12.00921037
'0:13.031',17.6664417
'0:13.035',15.51603213
'0:13.039',-6.88131063
'0:13.043',-24.11767041
'0:13.047',-19.81685127
'0:13.051',-31.95839454
'0:13.055',-17.93110749
'0:13.059',-23.32367303
'0:13.063',-9.0317202
'0:13.066',-4.99556685
'0:13.070',-0.39699869
'0:13.074',14.42428573
'0:13.078',24.94475102
'0:13.082',22.79434145
'0:13.086',42.74352561
'0:13.090',31.66064552
'0:13.094',47.30901055
'0:13.098',41.65177922
'0:13.102',39.23670385
'0:13.105',73.47784086
'0:13.109',123.3342597
'0:13.113',247.065518
'0:13.117',336.5887226
'0:13.121',418.271203
'0:13.125',459.7906494
'0:13.129',389.9519632
'0:13.133',281.0419892
'0:13.137',208.2588961
'0:13.141',164.0597086
'0:13.145',207.4648987
'0:13.148',229.5644924
'0:13.152',223.9072611
'0:13.156',179.1456588
'0:13.160',140.0412879
'0:13.164',114.9972872
'0:13.168',83.17122553
'0:13.172',75.62825043
'0:13.176',79.39973798
'0:13.180',73.47784086
'0:13.184',34.90280149
'0:13.188',36.25921368
'0:13.191',10.91746397
'0:13.195',-1.48874509
'0:13.199',-6.61664483
'0:13.203',-29.24557016
'0:13.207',-44.3646036
'0:13.211',-53.52865669
'0:13.215',-65.90178252
'0:13.219',-70.76501648
'0:13.223',-77.5139942
'0:13.227',-92.86461021
'0:13.230',-101.4993317
'0:13.234',-82.37722816
'0:13.238',-87.76979369
'0:13.242',-93.42702502
'0:13.246',-91.80594704
'0:13.250',-85.5863009
'0:13.254',-82.90655974
'0:13.258',-86.6780473
'0:13.262',-91.54128125
'0:13.266',-91.24353223
'0:13.270',-86.4133815
'0:13.273',-83.43589133
'0:13.277',-70.50035068
'0:13.281',-59.71521961
'0:13.285',-74.80116982
'0:13.289',-68.8792727
'0:13.293',-66.19953154
'0:13.297',-54.58731986
'0:13.301',-59.71521961
'0:13.305',-43.00819141
'0:13.309',-37.61562587
'0:13.313',-18.72510487
'0:13.316',-21.70259505
'0:13.320',4.99556685
'0:13.324',4.73090105
'0:13.328',25.7387484
'0:13.332',29.51023595
'0:13.336',43.2728572
'0:13.340',53.79332248
'0:13.344',52.70157608
'0:13.348',57.82947583
'0:13.352',62.13029497
'0:13.355',75.36358463
'0:13.359',85.05696931
'0:13.363',68.61460691
'0:13.367',74.80116982
'0:13.371',78.30799158
'0:13.375',74.80116982
'0:13.379',84.79230352
'0:13.383',83.70055712
'0:13.387',74.00717244
'0:13.391',78.87040639
'0:13.395',59.9798854
'0:13.398',53.79332248
'0:13.402',35.99454788
'0:13.406',40.56003282
'0:13.410',29.24557016
'0:13.414',12.27387616
'0:13.418',6.88131063
'0:13.422',-12.00921037
'0:13.426',-8.7670544
'0:13.430',-20.08151706
'0:13.434',-4.73090105
'0:13.438',-25.4740826
'0:13.441',-27.09516059
'0:13.445',-24.68008522
'0:13.449',-36.78854526
'0:13.453',-51.9075787
'0:13.457',-40.03070123
'0:13.461',-44.3646036
'0:13.465',-42.4457766
'0:13.469',-37.35096008
'0:13.473',-35.72988209
'0:13.477',-23.85300462
'0:13.480',-27.88915797
'0:13.484',-10.65279818
'0:13.488',-6.05423002
'0:13.492',12.00921037
'0:13.496',8.7670544
'0:13.500',21.17326346
'0:13.504',37.05321106
'0:13.508',56.20839785
'0:13.512',74.53650403
'0:13.516',89.09312266
'0:13.520',71.02968227
'0:13.523',56.20839785
'0:13.527',43.00819141
'0:13.531',11.71146135
'0:13.535',-6.05423002
'0:13.539',-9.29638599
'0:13.543',-10.65279818
'0:13.547',-38.97203806
'0:13.551',-35.72988209
'0:13.555',-53.52865669
'0:13.559',-72.91542605
'0:13.563',-74.27183824
'0:13.566',-72.38609446
'0:13.570',-100.7053343
'0:13.574',-130.8772348
'0:13.578',-180.2374052
'0:13.582',-199.6241746
'0:13.586',-232.8066484
'0:13.590',-246.5361864
'0:13.594',-260.2988077
'0:13.598',-276.7411701
'0:13.602',-294.8046105
'0:13.605',-311.5116387
'0:13.609',-310.1552265
'0:13.613',-324.4471793
'0:13.617',-308.5672317
'0:13.621',-310.7176413
'0:13.625',-310.7176413
'0:13.629',-293.1835325
'0:13.633',-291.5624545
'0:13.637',-275.6494237
'0:13.641',-246.0068548
'0:13.645',-246.5361864
'0:13.648',-243.0293647
'0:13.652',-224.4365927
'0:13.656',-210.4093057
'0:13.660',-197.7384308
'0:13.664',-181.5607342
'0:13.668',-177.7892466
'0:13.672',-158.9318089
'0:13.676',-145.1691876
'0:13.680',-132.7629786
'0:13.684',-132.233647
'0:13.688',-112.2844628
'0:13.691',-94.75035399
'0:13.695',-96.37143197
'0:13.699',-67.52286051
'0:13.703',-67.7875263
'0:13.707',-48.40075694
'0:13.711',-30.33731655
'0:13.715',-16.04536372
'0:13.719',-3.10982307
'0:13.723',12.80320775
'0:13.727',16.04536372
'0:13.730',18.98977067
'0:13.734',33.2817235
'0:13.738',44.89393518
'0:13.742',59.45055381
'0:13.746',78.87040639
'0:13.750',82.64189395
'0:13.754',98.25717575
'0:13.758',109.6047216
'0:13.762',107.6858946
'0:13.766',110.9280506
'0:13.770',130.3479032
'0:13.773',129.2561568
'0:13.777',125.749335
'0:13.781',124.6906719
'0:13.785',142.2247807
'0:13.789',113.3762092
'0:13.793',99.08425636
'0:13.797',95.84210039
'0:13.801',91.24353223
'0:13.805',91.24353223
'0:13.809',79.92906957
'0:13.813',82.64189395
'0:13.816',95.01501978
'0:13.820',89.92020326
'0:13.824',105.8001509
'0:13.828',95.01501978
'0:13.832',99.08425636
'0:13.836',96.10676618
'0:13.840',90.18486906
'0:13.844',104.7414877
'0:13.848',93.42702502
'0:13.852',129.2561568
'0:13.855',188.3097119
'0:13.859',336.8533884
'0:13.863',443.6129527
'0:13.867',549.8431855
'0:13.871',611.311816
'0:13.875',567.6419601
'0:13.879',497.8032739
'0:13.883',441.1978774
'0:13.887',406.9567404
'0:13.891',395.3445287
'0:13.895',382.9714029
'0:13.898',318.5252822
'0:13.902',252.1934178
'0:13.906',186.4239681
'0:13.910',138.4202099
'0:13.914',137.0968809
'0:13.918',134.1193907
'0:13.922',117.6770283
'0:13.926',89.09312266
'0:13.930',75.62825043
'0:13.934',57.30014424
'0:13.938',37.05321106
'0:13.941',20.61084865
'0:13.945',7.9399738
'0:13.949',-20.90859767
'0:13.953',-22.49659243
'0:13.957',-43.2728572
'0:13.961',-60.24455119
'0:13.965',-72.38609446
'0:13.969',-85.05696931
'0:13.973',-102.5910781
'0:13.977',-106.8918973
'0:13.980',-109.0423068
'0:13.984',-106.3625657
'0:13.988',-133.0607276
'0:13.992',-132.233647
'0:13.996',-137.6262125
'0:14.000',-126.3117498
'0:14.004',-124.1613403
'0:14.008',-133.3253934
'0:14.012',-130.3479032
'0:14.016',-119.8274379
'0:14.020',-126.3117498
'0:14.023',-108.777641
'0:14.027',-102.0286633
'0:14.031',-97.99250996
'0:14.035',-86.14871571
'0:14.039',-76.98466262
'0:14.043',-61.33629759
'0:14.047',-54.58731986
'0:14.051',-49.19475432
'0:14.055',-36.25921368
'0:14.059',-27.88915797
'0:14.063',-13.89495415
'0:14.066',7.9399738
'0:14.070',14.15961994
'0:14.074',28.98090436
'0:14.078',37.61562587
'0:14.082',50.28650072
'0:14.086',55.11665145
'0:14.090',77.77866
'0:14.094',77.24932841
'0:14.098',86.94271309
'0:14.102',98.52184154
'0:14.105',117.6770283
'0:14.109',123.8635913
'0:14.113',125.749335
'0:14.117',136.5344661
'0:14.121',146.5255998
'0:14.125',147.882012
'0:14.129',154.8956555
'0:14.133',157.8400625
'0:14.137',153.2745775
'0:14.141',147.3195972
'0:14.145',131.9689812
'0:14.148',122.5402623
'0:14.152',109.8693874
'0:14.156',89.65553747
'0:14.160',83.17122553
'0:14.164',66.72886313
'0:14.168',56.73772943
'0:14.172',60.50921699
'0:14.176',56.47306364
'0:14.180',50.55116651
'0:14.184',50.02183493
'0:14.188',55.41440047
'0:14.191',59.18588802
'0:14.195',56.47306364
'0:14.199',51.34516389
'0:14.203',50.28650072
'0:14.207',38.93895483
'0:14.211',42.74352561
'0:14.215',40.29536703
'0:14.219',35.16746728
'0:14.223',34.10880411
'0:14.227',53.52865669
'0:14.230',56.73772943
'0:14.234',56.20839785
'0:14.238',68.34994111
'0:14.242',66.19953154
'0:14.246',68.8792727
'0:14.250',72.65076025
'0:14.254',72.38609446
'0:14.258',83.96522291
'0:14.262',81.28548176
'0:14.266',99.61358794
'0:14.270',103.3850755
'0:14.273',104.2121561
'0:14.277',85.85096669
'0:14.281',52.43691029
'0:14.285',22.23192663
'0:14.289',7.9399738
'0:14.293',-24.94475102
'0:14.297',-58.35880742
'0:14.301',-75.09891884
'0:14.305',-106.3625657
'0:14.309',-136.5344661
'0:14.313',-152.4474969
'0:14.316',-186.4239681
'0:14.320',-203.1309963
'0:14.324',-218.7793614
'0:14.328',-233.33598
'0:14.332',-248.686596
'0:14.336',-280.7773234
'0:14.340',-296.9550201
'0:14.344',-313.6620483
'0:14.348',-329.5750791
'0:14.352',-344.3963635
'0:14.355',-328.7810817
'0:14.359',-330.1044107
'0:14.363',-314.2244631
'0:14.367',-312.6033851
'0:14.371',-310.4529755
'0:14.375',-279.1562455
'0:14.379',-281.604404
'0:14.383',-280.5126576
'0:14.387',-261.9198857
'0:14.391',-260.8281393
'0:14.395',-246.2715206
'0:14.398',-232.2442336
'0:14.402',-216.066537
'0:14.406',-213.12213
'0:14.410',-195.0586896
'0:14.414',-196.1173528
'0:14.418',-182.3878148
'0:14.422',-167.2687814
'0:14.426',-164.853706
'0:14.430',-145.9962682
'0:14.434',-131.1749838
'0:14.438',-117.9416941
'0:14.441',-102.5910781
'0:14.445',-84.26297193
'0:14.449',-81.28548176
'0:14.453',-80.75615017
'0:14.457',-67.52286051
'0:14.461',-54.58731986
'0:14.465',-52.96624188
'0:14.469',-33.2817235
'0:14.473',-16.5746953
'0:14.477',-3.63915466
'0:14.480',-5.52489843
'0:14.484',-3.10982307
'0:14.488',-15.51603213
'0:14.492',0.39699869
'0:14.496',11.44679556
'0:14.500',9.0317202
'0:14.504',12.80320775
'0:14.508',17.40177591
'0:14.512',1.48874509
'0:14.516',-2.84515728
'0:14.520',-6.05423002
'0:14.523',-4.43315204
'0:14.527',-15.78069792
'0:14.531',-14.15961994
'0:14.535',-18.19577329
'0:14.539',-22.23192663
'0:14.543',-5.78956423
'0:14.547',-1.75341088
'0:14.551',1.22407929
'0:14.555',-0.66166448
'0:14.559',-4.43315204
'0:14.563',10.12346659
'0:14.566',12.80320775
'0:14.570',16.31002951
'0:14.574',0.92633028
'0:14.578',28.71623857
'0:14.582',86.4133815
'0:14.586',210.9717205
'0:14.590',308.8318975
'0:14.594',380.2585785
'0:14.598',402.0935064
'0:14.602',339.5662128
'0:14.605',243.0293647
'0:14.609',176.7305835
'0:14.613',125.2200034
'0:14.617',168.6251935
'0:14.621',197.2090992
'0:14.625',185.6299708
'0:14.629',146.5255998
'0:14.633',116.5852819
'0:14.637',76.6869136
'0:14.641',68.34994111
'0:14.645',53.23090767
'0:14.648',61.60096338
'0:14.652',50.02183493
'0:14.656',29.51023595
'0:14.660',6.61664483
'0:14.664',5.52489843
'0:14.668',-4.99556685
'0:14.672',-15.78069792
'0:14.676',-17.93110749
'0:14.680',-24.94475102
'0:14.684',-27.35982638
'0:14.688',-37.88029166
'0:14.691',-47.57367634
'0:14.695',-48.93008853
'0:14.699',-56.47306364
'0:14.703',-59.9798854
'0:14.707',-70.50035068
'0:14.711',-79.13507219
'0:14.715',-64.57845356
'0:14.719',-72.91542605
'0:14.723',-60.806966
'0:14.727',-71.02968227
'0:14.730',-62.95737557
'0:14.734',-63.48670716
'0:14.738',-71.29434806
'0:14.742',-75.62825043
'0:14.746',-55.94373205
'0:14.750',-49.19475432
'0:14.754',-47.83834213
'0:14.758',-37.35096008
'0:14.762',-42.4457766
'0:14.766',-39.76603544
'0:14.770',-33.2817235
'0:14.773',-31.69372874
'0:14.777',-20.90859767
'0:14.781',-26.00341419
'0:14.785',-23.58833883
'0:14.789',-2.01807667
'0:14.793',-0.66166448
'0:14.797',11.18212977
'0:14.801',7.14597642
'0:14.805',24.68008522
'0:14.809',28.98090436
'0:14.813',31.39597973
'0:14.816',44.06685458
'0:14.820',55.41440047
'0:14.824',55.67906626
'0:14.828',61.0716318
'0:14.832',64.01603875
'0:14.836',61.0716318
'0:14.840',71.59209708
'0:14.844',70.76501648
'0:14.848',60.50921699
'0:14.852',64.84311935
'0:14.855',76.98466262
'0:14.859',70.50035068
'0:14.863',70.23568489
'0:14.867',60.50921699
'0:14.871',64.84311935
'0:14.875',45.68793256
'0:14.879',54.85198566
'0:14.883',37.35096008
'0:14.887',27.88915797
'0:14.891',32.75239192
'0:14.895',13.89495415
'0:14.898',7.41064221
'0:14.902',5.26023264
'0:14.906',9.82571758
'0:14.910',14.68895153
'0:14.914',13.59720513
'0:14.918',8.50238861
'0:14.922',6.05423002
'0:14.926',9.29638599
'0:14.930',-2.01807667
'0:14.934',-1.75341088
'0:14.938',8.7670544
'0:14.941',20.34618286
'0:14.945',38.67428904
'0:14.949',44.89393518
'0:14.953',62.69270978
'0:14.957',73.74250665
'0:14.961',84.52763773
'0:14.965',102.0286633
'0:14.969',123.3342597
'0:14.973',110.9280506
'0:14.977',108.5129752
'0:14.980',87.73671047
'0:14.984',71.02968227
'0:14.988',59.18588802
'0:14.992',45.95259836
'0:14.996',28.18690698
'0:15.000',23.58833883
'0:15.004',6.05423002
'0:15.008',-5.78956423
'0:15.012',-18.19577329
'0:15.016',-20.08151706
'0:15.020',-40.85778184
'0:15.023',-72.91542605
'0:15.027',-84.52763773
'0:15.031',-98.25717575
'0:15.035',-116.883031
'0:15.039',-151.9181653
'0:15.043',-167.2687814
'0:15.047',-196.1173528
'0:15.051',-225.7930049
'0:15.055',-243.5917795
'0:15.059',-278.8915797
'0:15.063',-295.0692763
'0:15.066',-323.9178477
'0:15.070',-337.38272
'0:15.074',-339.5662128
'0:15.078',-343.6023661
'0:15.082',-328.2186669
'0:15.086',-324.7118451
'0:15.090',-320.6756918
'0:15.094',-305.5897416
'0:15.098',-309.3612291
'0:15.102',-279.1562455
'0:15.105',-276.4765043
'0:15.109',-255.9649053
'0:15.113',-255.1709079
'0:15.117',-242.5000331
'0:15.121',-214.1807932
'0:15.125',-212.5597152
'0:15.129',-191.2872021
'0:15.133',-188.8390435
'0:15.137',-175.9035029
'0:15.141',-164.5890402
'0:15.145',-148.4113436
'0:15.148',-127.668162
'0:15.152',-108.5129752
'0:15.156',-94.75035399
'0:15.160',-82.64189395
'0:15.164',-67.25819471
'0:15.168',-47.57367634
'0:15.172',-44.06685458
'0:15.176',-28.98090436
'0:15.180',-2.01807667
'0:15.184',-3.63915466
'0:15.188',16.5746953
'0:15.191',20.61084865
'0:15.195',35.72988209
'0:15.199',31.13131393
'0:15.203',45.15860098
'0:15.207',63.48670716
'0:15.211',67.25819471
'0:15.215',83.70055712
'0:15.219',95.84210039
'0:15.223',93.12927601
'0:15.227',95.84210039
'0:15.230',99.87825374
'0:15.234',99.87825374
'0:15.238',111.4904654
'0:15.242',108.5129752
'0:15.246',111.1927164
'0:15.250',99.87825374
'0:15.254',85.05696931
'0:15.258',96.10676618
'0:15.262',90.97886644
'0:15.266',92.86461021
'0:15.270',83.17122553
'0:15.273',85.5863009
'0:15.277',95.84210039
'0:15.281',89.92020326
'0:15.285',107.1565631
'0:15.289',113.3762092
'0:15.293',101.4993317
'0:15.297',97.99250996
'0:15.301',106.8918973
'0:15.305',105.0061535
'0:15.309',95.84210039
'0:15.313',117.1476968
'0:15.316',175.1095055
'0:15.320',305.5897416
'0:15.324',381.6149907
'0:15.328',473.8179364
'0:15.332',534.7241521
'0:15.336',518.8442045
'0:15.340',477.8540898
'0:15.344',424.1931002
'0:15.348',396.4362751
'0:15.352',401.5641748
'0:15.355',353.031085
'0:15.359',301.2558392
'0:15.363',235.2217238
'0:15.367',188.8390435
'0:15.371',158.1047283
'0:15.375',139.7766221
'0:15.379',135.4758029
'0:15.383',134.1193907
'0:15.387',137.0968809
'0:15.391',139.7766221
'0:15.395',107.9836437
'0:15.398',74.53650403
'0:15.402',56.73772943
'0:15.406',24.3823362
'0:15.410',10.12346659
'0:15.414',-5.52489843
'0:15.418',-7.41064221
'0:15.422',-40.56003282
'0:15.426',-54.85198566
'0:15.430',-69.40860428
'0:15.434',-101.4993317
'0:15.438',-103.1204097
'0:15.441',-105.5354851
'0:15.445',-105.2708193
'0:15.449',-102.8557439
'0:15.453',-85.85096669
'0:15.457',-56.73772943
'0:15.461',-58.62347321
'0:15.465',-71.29434806
'0:15.469',-97.99250996
'0:15.473',-113.640875
'0:15.477',-119.5627721
'0:15.480',-93.12927601
'0:15.484',-76.15758201
'0:15.488',-53.52865669
'0:15.492',-64.57845356
'0:15.496',-66.99352892
'0:15.500',-73.47784086
'0:15.504',-59.9798854
'0:15.508',-55.67906626
'0:15.512',-34.10880411
'0:15.516',-19.28751968
'0:15.520',-9.0317202
'0:15.523',-10.91746397
'0:15.527',9.0317202
'0:15.531',13.59720513
'0:15.535',44.06685458
'0:15.539',54.58731986
'0:15.543',53.52865669
'0:15.547',58.62347321
'0:15.551',78.30799158
'0:15.555',90.97886644
'0:15.559',86.4133815
'0:15.563',102.0286633
'0:15.566',121.4485159
'0:15.570',109.0423068
'0:15.574',124.1613403
'0:15.578',134.9464713
'0:15.582',132.7629786
'0:15.586',136.8322151
'0:15.590',141.1330343
'0:15.594',140.3390369
'0:15.598',135.2111371
'0:15.602',148.1466778
'0:15.605',150.5617532
'0:15.609',140.0412879
'0:15.613',125.749335
'0:15.617',105.5354851
'0:15.621',100.7053343
'0:15.625',69.40860428
'0:15.629',59.18588802
'0:15.633',45.15860098
'0:15.637',40.56003282
'0:15.641',34.90280149
'0:15.645',35.4652163
'0:15.648',25.7387484
'0:15.652',28.98090436
'0:15.656',40.29536703
'0:15.660',34.10880411
'0:15.664',34.90280149
'0:15.668',56.73772943
'0:15.672',44.06685458
'0:15.676',57.00239523
'0:15.680',51.34516389
'0:15.684',50.81583231
'0:15.688',40.56003282
'0:15.691',44.62926939
'0:15.695',56.47306364
'0:15.699',65.63711673
'0:15.703',80.75615017
'0:15.707',87.20737888
'0:15.711',92.59994442
'0:15.715',90.18486906
'0:15.719',98.81959056
'0:15.723',96.37143197
'0:15.727',101.7639975
'0:15.730',107.6858946
'0:15.734',121.7131817
'0:15.738',130.3479032
'0:15.742',127.668162
'0:15.746',133.5900592
'0:15.750',108.5129752
'0:15.754',76.98466262
'0:15.758',53.79332248
'0:15.762',31.95839454
'0:15.766',18.72510487
'0:15.770',9.56105178
'0:15.773',-4.43315204
'0:15.777',-25.7387484
'0:15.781',-46.77967896
'0:15.785',-76.98466262
'0:15.789',-86.6780473
'0:15.793',-116.5852819
'0:15.797',-136.8322151
'0:15.801',-158.1047283
'0:15.805',-173.4884275
'0:15.809',-199.6241746
'0:15.813',-212.0303836
'0:15.816',-247.363267
'0:15.820',-268.1064486
'0:15.824',-269.4628608
'0:15.828',-296.9550201
'0:15.832',-307.7401511
'0:15.836',-309.6258949
'0:15.840',-315.845541
'0:15.844',-302.3475856
'0:15.848',-298.0467665
'0:15.852',-291.5624545
'0:15.855',-275.9140895
'0:15.859',-265.956039
'0:15.863',-253.54983
'0:15.867',-233.6006458
'0:15.871',-211.5010521
'0:15.875',-210.4093057
'0:15.879',-198.5655114
'0:15.883',-186.9532997
'0:15.887',-184.8028902
'0:15.891',-163.232628
'0:15.895',-161.3468842
'0:15.898',-148.9406752
'0:15.902',-137.3615467
'0:15.906',-120.9191843
'0:15.910',-115.261953
'0:15.914',-96.10676618
'0:15.918',-83.70055712
'0:15.922',-72.65076025
'0:15.926',-71.85676287
'0:15.930',-50.55116651
'0:15.934',-47.83834213
'0:15.938',-34.63813569
'0:15.941',-8.23772282
'0:15.945',6.88131063
'0:15.949',12.80320775
'0:15.953',17.93110749
'0:15.957',16.04536372
'0:15.961',25.20941681
'0:15.965',38.14495745
'0:15.969',42.74352561
'0:15.973',34.10880411
'0:15.977',34.3734699
'0:15.980',42.4457766
'0:15.984',21.70259505
'0:15.988',26.565829
'0:15.992',17.93110749
'0:15.996',18.19577329
'0:16.000',10.91746397
'0:16.004',6.05423002
'0:16.008',9.29638599
'0:16.012',0.66166448
'0:16.016',2.54740826
'0:16.020',11.44679556
'0:16.023',20.61084865
'0:16.027',7.9399738
'0:16.031',1.75341088
'0:16.035',19.55218548
'0:16.039',26.83049479
'0:16.043',19.81685127
'0:16.047',39.50136965
'0:16.051',79.13507219
'0:16.055',189.1037093
'0:16.059',305.06041
'0:16.063',380.5232443
'0:16.066',424.1931002
'0:16.070',377.2810883
'0:16.074',285.9052232
'0:16.078',208.7882277
'0:16.082',160.5528868
'0:16.086',190.4601215
'0:16.090',217.4229492
'0:16.094',196.9444334
'0:16.098',163.7619596
'0:16.102',120.0921037
'0:16.105',96.93384678
'0:16.109',85.85096669
'0:16.113',95.01501978
'0:16.117',110.9280506
'0:16.121',102.3264123
'0:16.125',81.81481334
'0:16.129',71.59209708
'0:16.133',63.22204137
'0:16.137',62.13029497
'0:16.141',53.79332248
'0:16.145',49.19475432
'0:16.148',38.40962325
'0:16.152',30.60198235
'0:16.156',30.33731655
'0:16.160',21.96726084
'0:16.164',16.5746953
'0:16.168',5.52489843
'0:16.172',-1.75341088
'0:16.176',-1.48874509
'0:16.180',-9.82571758
'0:16.184',-15.51603213
'0:16.188',-27.09516059
'0:16.191',-18.72510487
'0:16.195',-18.19577329
'0:16.199',-25.4740826
'0:16.203',-30.60198235
'0:16.207',-27.09516059
'0:16.211',-35.72988209
'0:16.215',-33.84413831
'0:16.219',-40.29536703
'0:16.223',-45.95259836
'0:16.227',-43.80218879
'0:16.230',-37.08629428
'0:16.234',-19.02285389
'0:16.238',-24.11767041
'0:16.242',-28.45157278
'0:16.246',-26.565829
'0:16.250',-21.17326346
'0:16.254',-4.16848624
'0:16.258',6.88131063
'0:16.262',3.63915466
'0:16.266',6.31889581
'0:16.270',26.83049479
'0:16.273',27.09516059
'0:16.277',23.58833883
'0:16.281',36.78854526
'0:16.285',53.23090767
'0:16.289',57.00239523
'0:16.293',59.45055381
'0:16.297',57.56481004
'0:16.301',69.40860428
'0:16.305',68.34994111
'0:16.309',72.12142867
'0:16.313',75.36358463
'0:16.316',74.00717244
'0:16.320',69.9710191
'0:16.324',68.61460691
'0:16.328',71.29434806
'0:16.332',58.62347321
'0:16.336',58.62347321
'0:16.340',54.32265407
'0:16.344',51.9075787
'0:16.348',38.40962325
'0:16.352',42.4457766
'0:16.355',41.91644501
'0:16.359',22.49659243
'0:16.363',5.26023264
'0:16.367',7.14597642
'0:16.371',-6.61664483
'0:16.375',-6.88131063
'0:16.379',-25.20941681
'0:16.383',-10.91746397
'0:16.387',-10.65279818
'0:16.391',-8.23772282
'0:16.395',-6.88131063
'0:16.398',-8.23772282
'0:16.402',4.99556685
'0:16.406',4.43315204
'0:16.410',22.79434145
'0:16.414',24.68008522
'0:16.418',39.76603544
'0:16.422',68.34994111
'0:16.426',67.25819471
'0:16.430',102.0286633
'0:16.434',89.09312266
'0:16.438',89.92020326
'0:16.441',71.29434806
'0:16.445',38.14495745
'0:16.449',23.58833883
'0:16.453',24.11767041
'0:16.457',7.14597642
'0:16.461',6.05423002
'0:16.465',5.26023264
'0:16.469',-9.29638599
'0:16.473',-23.32367303
'0:16.477',-23.85300462
'0:16.480',-26.565829
'0:16.484',-27.88915797
'0:16.488',-41.65177922
'0:16.492',-54.05798828
'0:16.496',-70.23568489
'0:16.500',-89.35778845
'0:16.504',-107.4212288
'0:16.508',-121.7131817
'0:16.512',-134.6487223
'0:16.516',-150.0324216
'0:16.520',-153.0099117
'0:16.523',-171.3380179
'0:16.527',-185.3322217
'0:16.531',-213.12213
'0:16.535',-212.5597152
'0:16.539',-248.1572644
'0:16.543',-265.956039
'0:16.547',-280.2479919
'0:16.551',-308.8318975
'0:16.555',-308.2694827
'0:16.559',-312.0409703
'0:16.563',-314.7537947
'0:16.566',-296.9550201
'0:16.570',-293.1835325
'0:16.574',-275.6494237
'0:16.578',-278.0975823
'0:16.582',-264.334961
'0:16.586',-248.1572644
'0:16.590',-244.6504427
'0:16.594',-210.9717205
'0:16.598',-212.8574642
'0:16.602',-182.9171464
'0:16.605',-182.6524806
'0:16.609',-163.232628
'0:16.613',-161.3468842
'0:16.617',-146.7902656
'0:16.621',-133.854725
'0:16.625',-118.5041089
'0:16.629',-99.61358794
'0:16.633',-81.02081596
'0:16.637',-81.28548176
'0:16.641',-52.1722445
'0:16.645',-53.79332248
'0:16.648',-35.16746728
'0:16.652',-32.22306033
'0:16.656',-16.31002951
'0:16.660',-3.90382045
'0:16.664',10.12346659
'0:16.668',28.18690698
'0:16.672',47.30901055
'0:16.676',63.48670716
'0:16.680',61.33629759
'0:16.684',75.62825043
'0:16.688',92.07061283
'0:16.691',78.87040639
'0:16.695',81.02081596
'0:16.699',94.4856882
'0:16.703',90.71420064
'0:16.707',90.97886644
'0:16.711',79.39973798
'0:16.715',81.55014755
'0:16.719',78.30799158
'0:16.723',74.00717244
'0:16.727',74.27183824
'0:16.730',62.69270978
'0:16.734',80.75615017
'0:16.738',77.24932841
'0:16.742',89.09312266
'0:16.746',89.35778845
'0:16.750',78.57265738
'0:16.754',81.81481334
'0:16.758',78.04332579
'0:16.762',72.65076025
'0:16.766',72.65076025
'0:16.770',77.24932841
'0:16.773',95.84210039
'0:16.777',169.9816057
'0:16.781',303.141583
'0:16.785',381.3503249
'0:16.789',457.375574
'0:16.793',454.3980838
'0:16.797',392.135456
'0:16.801',303.141583
'0:16.805',261.9198857
'0:16.809',244.9151085
'0:16.813',251.1347546
'0:16.816',239.5225429
'0:16.820',190.1954557
'0:16.824',138.1555441
'0:16.828',103.9144071
'0:16.832',103.9144071
'0:16.836',120.0921037
'0:16.840',150.5617532
'0:16.844',150.0324216
'0:16.848',152.1828311
'0:16.852',169.1545251
'0:16.855',167.8311962
'0:16.859',166.2101182
'0:16.863',151.0910847
'0:16.867',137.3615467
'0:16.871',106.3625657
'0:16.875',88.82845687
'0:16.879',69.9710191
'0:16.883',53.23090767
'0:16.887',39.50136965
'0:16.891',25.20941681
'0:16.895',23.85300462
'0:16.898',20.34618286
'0:16.902',35.16746728
'0:16.906',37.05321106
'0:16.910',40.56003282
'0:16.914',9.82571758
'0:16.918',-23.32367303
'0:16.922',-41.65177922
'0:16.926',-59.18588802
'0:16.930',-73.74250665
'0:16.934',-87.47204468
'0:16.938',-88.03445949
'0:16.941',-75.36358463
'0:16.945',-92.59994442
'0:16.949',-89.35778845
'0:16.953',-71.29434806
'0:16.957',-72.91542605
'0:16.961',-75.09891884
'0:16.965',-44.06685458
'0:16.969',-42.74352561
'0:16.973',-39.50136965
'0:16.977',-23.32367303
'0:16.980',-10.38813239
'0:16.984',3.10982307
'0:16.988',5.26023264
'0:16.992',9.56105178
'0:16.996',25.7387484
'0:17.000',37.35096008
'0:17.004',50.28650072
'0:17.008',68.34994111
'0:17.012',57.82947583
'0:17.016',75.36358463
'0:17.020',101.4993317
'0:17.023',96.63609777
'0:17.027',115.7912846
'0:17.031',121.7131817
'0:17.035',108.2483095
'0:17.039',119.2981063
'0:17.043',113.0784602
'0:17.047',114.1702066
'0:17.051',120.3567695
'0:17.055',123.3342597
'0:17.059',119.2981063
'0:17.063',113.9055408
'0:17.066',113.9055408
'0:17.070',103.3850755
'0:17.074',106.6272315
'0:17.078',103.1204097
'0:17.082',97.46317837
'0:17.086',97.19851258
'0:17.090',71.02968227
'0:17.094',59.71521961
'0:17.098',55.94373205
'0:17.102',33.01705771
'0:17.105',31.95839454
'0:17.109',21.43792925
'0:17.113',10.65279818
'0:17.117',8.23772282
'0:17.121',1.22407929
'0:17.125',-1.22407929
'0:17.129',3.90382045
'0:17.133',9.29638599
'0:17.137',23.58833883
'0:17.141',32.75239192
'0:17.145',30.60198235
'0:17.148',51.60982969
'0:17.152',41.12244763
'0:17.156',40.85778184
'0:17.160',34.90280149
'0:17.164',31.13131393
'0:17.168',34.10880411
'0:17.172',39.76603544
'0:17.176',55.67906626
'0:17.180',50.55116651
'0:17.184',63.48670716
'0:17.188',65.90178252
'0:17.191',71.02968227
'0:17.195',87.47204468
'0:17.199',98.25717575
'0:17.203',95.01501978
'0:17.207',82.90655974
'0:17.211',103.6497413
'0:17.215',117.6770283
'0:17.219',128.1974936
'0:17.223',141.9270316
'0:17.227',115.5266188
'0:17.230',90.71420064
'0:17.234',58.09414162
'0:17.238',34.10880411
'0:17.242',12.80320775
'0:17.246',-14.68895153
'0:17.250',-23.05900724
'0:17.254',-38.97203806
'0:17.258',-61.86562918
'0:17.262',-82.64189395
'0:17.266',-110.6633848
'0:17.270',-119.5627721
'0:17.273',-135.4758029
'0:17.277',-157.5753967
'0:17.281',-193.1729459
'0:17.285',-190.1954557
'0:17.289',-201.5099184
'0:17.293',-216.364286
'0:17.297',-235.7510554
'0:17.301',-254.6415764
'0:17.305',-253.8144958
'0:17.309',-250.8700888
'0:17.313',-264.8642926
'0:17.316',-250.5723398
'0:17.320',-253.8144958
'0:17.324',-253.54983
'0:17.328',-234.4277264
'0:17.332',-232.5419826
'0:17.336',-217.687615
'0:17.340',-219.8711078
'0:17.344',-188.5743777
'0:17.348',-186.6886339
'0:17.352',-183.1818122
'0:17.355',-182.6524806
'0:17.359',-169.4522741
'0:17.363',-156.5167335
'0:17.367',-139.5119563
'0:17.371',-135.2111371
'0:17.375',-132.4983128
'0:17.379',-119.0334405
'0:17.383',-107.7189779
'0:17.387',-107.4212288
'0:17.391',-102.3264123
'0:17.395',-83.43589133
'0:17.398',-86.6780473
'0:17.402',-59.45055381
'0:17.406',-59.71521961
'0:17.410',-38.67428904
'0:17.414',-34.90280149
'0:17.418',-5.78956423
'0:17.422',-10.91746397
'0:17.426',-10.38813239
'0:17.430',10.38813239
'0:17.434',12.53854196
'0:17.438',26.00341419
'0:17.441',22.23192663
'0:17.445',22.79434145
'0:17.449',26.565829
'0:17.453',13.06787354
'0:17.457',11.18212977
'0:17.461',6.88131063
'0:17.465',5.78956423
'0:17.469',9.0317202
'0:17.473',-3.10982307
'0:17.477',-3.90382045
'0:17.480',-8.23772282
'0:17.484',-10.65279818
'0:17.488',-7.9399738
'0:17.492',-4.16848624
'0:17.496',-3.90382045
'0:17.500',-7.41064221
'0:17.504',5.52489843
'0:17.508',-8.50238861
'0:17.512',-3.90382045
'0:17.516',27.62449217
'0:17.520',69.14393849
'0:17.523',189.9307899
'0:17.527',300.9911734
'0:17.531',373.244935
'0:17.535',430.1480805
'0:17.539',353.2957508
'0:17.543',271.8779361
'0:17.547',202.6016648
'0:17.551',150.8264189
'0:17.555',181.0314026
'0:17.559',196.6797676
'0:17.563',183.446478
'0:17.566',124.6906719
'0:17.570',93.69169082
'0:17.574',71.59209708
'0:17.578',64.84311935
'0:17.582',81.02081596
'0:17.586',86.94271309
'0:17.590',75.89291622
'0:17.594',73.47784086
'0:17.598',66.72886313
'0:17.602',79.92906957
'0:17.605',68.61460691
'0:17.609',75.06583562
'0:17.613',58.62347321
'0:17.617',52.43691029
'0:17.621',47.83834213
'0:17.625',35.4652163
'0:17.629',26.26807998
'0:17.633',11.44679556
'0:17.637',5.26023264
'0:17.641',-0.66166448
'0:17.645',-14.15961994
'0:17.648',-22.49659243
'0:17.652',-20.34618286
'0:17.656',-42.4457766
'0:17.660',-63.22204137
'0:17.664',-61.60096338
'0:17.668',-56.47306364
'0:17.672',-54.85198566
'0:17.676',-73.74250665
'0:17.680',-76.98466262
'0:17.684',-77.24932841
'0:17.688',-74.00717244
'0:17.691',-71.85676287
'0:17.695',-73.18009184
'0:17.699',-60.50921699
'0:17.703',-61.33629759
'0:17.707',-58.09414162
'0:17.711',-55.11665145
'0:17.715',-56.20839785
'0:17.719',-59.45055381
'0:17.723',-45.15860098
'0:17.727',-43.2728572
'0:17.730',-39.76603544
'0:17.734',-38.97203806
'0:17.738',-26.565829
'0:17.742',-13.89495415
'0:17.746',-12.27387616
'0:17.750',-7.41064221
'0:17.754',9.82571758
'0:17.758',21.43792925
'0:17.762',33.57947252
'0:17.766',35.72988209
'0:17.770',41.38711342
'0:17.773',43.00819141
'0:17.777',38.67428904
'0:17.781',49.72408591
'0:17.785',50.55116651
'0:17.789',55.94373205
'0:17.793',43.53752299
'0:17.797',55.94373205
'0:17.801',49.72408591
'0:17.805',49.72408591
'0:17.809',39.76603544
'0:17.813',43.80218879
'0:17.816',24.68008522
'0:17.820',18.98977067
'0:17.824',2.01807667
'0:17.828',6.61664483
'0:17.832',-5.52489843
'0:17.836',-22.79434145
'0:17.840',-27.62449217
'0:17.844',-30.33731655
'0:17.848',-27.62449217
'0:17.852',-38.67428904
'0:17.855',-53.52865669
'0:17.859',-42.1811108
'0:17.863',-47.30901055
'0:17.867',-45.42326677
'0:17.871',-39.23670385
'0:17.875',-37.35096008
'0:17.879',-41.38711342
'0:17.883',-30.60198235
'0:17.887',-30.07265076
'0:17.891',-24.11767041
'0:17.895',-20.90859767
'0:17.898',-24.11767041
'0:17.902',-13.63028835
'0:17.906',-14.42428573
'0:17.910',-9.0317202
'0:17.914',10.65279818
'0:17.918',7.9399738
'0:17.922',18.98977067
'0:17.926',18.19577329
'0:17.930',38.14495745
'0:17.934',41.65177922
'0:17.938',55.94373205
'0:17.941',67.25819471
'0:17.945',96.93384678
'0:17.949',100.4075853
'0:17.953',121.4485159
'0:17.957',121.1838501
'0:17.961',101.7639975
'0:17.965',83.96522291
'0:17.969',69.9710191
'0:17.973',41.38711342
'0:17.977',40.85778184
'0:17.980',20.90859767
'0:17.984',3.10982307
'0:17.988',-10.38813239
'0:17.992',-23.05900724
'0:17.996',-39.50136965
'0:18.000',-58.62347321
'0:18.004',-76.42224781
'0:18.008',-106.0978999
'0:18.012',-134.1193907
'0:18.016',-165.9454524
'0:18.020',-185.8946366
'0:18.023',-205.2814059
'0:18.027',-234.957058
'0:18.031',-277.0058359
'0:18.035',-291.5624545
'0:18.039',-297.7821007
'0:18.043',-303.439332
'0:18.047',-316.3748726
'0:18.051',-308.8318975
'0:18.055',-307.2108195
'0:18.059',-296.9550201
'0:18.063',-302.3475856
'0:18.066',-283.4901478
'0:18.070',-261.3574709
'0:18.074',-258.6777297
'0:18.078',-261.9198857
'0:18.082',-234.957058
'0:18.086',-235.2217238
'0:18.090',-213.6514616
'0:18.094',-209.3506425
'0:18.098',-195.5880212
'0:18.102',-185.0675559
'0:18.105',-185.8946366
'0:18.109',-180.2374052
'0:18.113',-160.2882211
'0:18.117',-147.3195972
'0:18.121',-121.1838501
'0:18.125',-106.0978999
'0:18.129',-99.87825374
'0:18.133',-78.57265738
'0:18.137',-81.02081596
'0:18.141',-71.02968227
'0:18.145',-57.30014424
'0:18.148',-37.08629428
'0:18.152',-16.04536372
'0:18.156',-0.66166448
'0:18.160',25.7387484
'0:18.164',38.93895483
'0:18.168',58.62347321
'0:18.172',64.57845356
'0:18.176',65.37245094
'0:18.180',75.89291622
'0:18.184',86.94271309
'0:18.188',104.7414877
'0:18.191',110.9280506
'0:18.195',113.9055408
'0:18.199',125.2200034
'0:18.203',119.5627721
'0:18.207',89.65553747
'0:18.211',80.75615017
'0:18.215',82.07947914
'0:18.219',75.62825043
'0:18.223',69.9710191
'0:18.227',72.38609446
'0:18.230',78.87040639
'0:18.234',81.02081596
'0:18.238',91.54128125
'0:18.242',85.85096669
'0:18.246',88.03445949
'0:18.250',94.2210224
'0:18.254',96.37143197
'0:18.258',91.80594704
'0:18.262',86.6780473
'0:18.266',87.47204468
'0:18.270',138.9826247
'0:18.273',248.1572644
'0:18.277',352.5017534
'0:18.281',447.1197745
'0:18.285',534.1948205
'0:18.289',497.2739423
'0:18.293',439.0474678
'0:18.297',383.7654002
'0:18.301',339.8308786
'0:18.305',351.6746728
'0:18.309',373.5096008
'0:18.313',319.6170286
'0:18.316',274.8554263
'0:18.320',218.5146956
'0:18.324',176.9952493
'0:18.328',160.8175526
'0:18.332',152.7121627
'0:18.336',141.3977001
'0:18.340',121.1838501
'0:18.344',113.0784602
'0:18.348',110.9280506
'0:18.352',101.4993317
'0:18.355',92.07061283
'0:18.359',74.27183824
'0:18.363',66.19953154
'0:18.367',46.51501317
'0:18.371',35.99454788
'0:18.375',27.09516059
'0:18.379',10.12346659
'0:18.383',2.54740826
'0:18.387',-2.28274247
'0:18.391',-13.89495415
'0:18.395',-21.96726084
'0:18.398',-21.43792925
'0:18.402',-44.62926939
'0:18.406',-49.45942012
'0:18.410',-31.39597973
'0:18.414',36.25921368
'0:18.418',114.1702066
'0:18.422',96.63609777
'0:18.426',178.0539124
'0:18.430',456.8131592
'0:18.434',606.1839163
'0:18.438',526.6518454
'0:18.441',229.2998266
'0:18.445',-134.1193907
'0:18.449',-370.8298596
'0:18.453',-408.5778184
'0:18.457',-332.817235
'0:18.461',-218.5146956
'0:18.465',-127.1057472
'0:18.469',-80.75615017
'0:18.473',-88.82845687
'0:18.477',-64.84311935
'0:18.480',-11.44679556
'0:18.484',42.1811108
'0:18.488',63.22204137
'0:18.492',32.75239192
'0:18.496',39.76603544
'0:18.500',66.99352892
'0:18.504',113.9055408
'0:18.508',124.1613403
'0:18.512',102.8557439
'0:18.516',94.75035399
'0:18.520',114.1702066
'0:18.523',154.5979065
'0:18.527',167.5665304
'0:18.531',154.0685749
'0:18.535',133.0276443
'0:18.539',131.9689812
'0:18.543',165.6807866
'0:18.547',162.4386306
'0:18.551',155.1603213
'0:18.555',137.6262125
'0:18.559',117.4123625
'0:18.563',130.612569
'0:18.566',126.8410814
'0:18.570',106.8918973
'0:18.574',61.60096338
'0:18.578',55.67906626
'0:18.582',62.95737557
'0:18.586',57.30014424
'0:18.590',41.91644501
'0:18.594',32.22306033
'0:18.598',39.76603544
'0:18.602',28.18690698
'0:18.605',54.58731986
'0:18.609',56.73772943
'0:18.613',48.93008853
'0:18.617',41.91644501
'0:18.621',59.9798854
'0:18.625',67.52286051
'0:18.629',71.29434806
'0:18.633',66.72886313
'0:18.637',44.62926939
'0:18.641',60.50921699
'0:18.645',95.84210039
'0:18.648',67.7875263
'0:18.652',68.61460691
'0:18.656',79.66440377
'0:18.660',90.71420064
'0:18.664',92.86461021
'0:18.668',83.96522291
'0:18.672',86.4133815
'0:18.676',96.10676618
'0:18.680',105.0061535
'0:18.684',91.24353223
'0:18.688',84.52763773
'0:18.691',56.73772943
'0:18.695',19.55218548
'0:18.699',-20.08151706
'0:18.703',-36.78854526
'0:18.707',-47.04434475
'0:18.711',-74.27183824
'0:18.715',-107.7189779
'0:18.719',-129.5539058
'0:18.723',-164.3243744
'0:18.727',-176.1681687
'0:18.730',-203.1309963
'0:18.734',-234.957058
'0:18.738',-255.7002395
'0:18.742',-275.6494237
'0:18.746',-274.0283457
'0:18.750',-300.4618418
'0:18.754',-328.7810817
'0:18.758',-332.5525692
'0:18.762',-339.003798
'0:18.766',-355.1814946
'0:18.770',-348.4656001
'0:18.773',-344.3963635
'0:18.777',-331.9901544
'0:18.781',-306.9461537
'0:18.785',-306.9461537
'0:18.789',-298.8407638
'0:18.793',-277.8329165
'0:18.797',-266.2207048
'0:18.801',-257.3213175
'0:18.805',-241.4082867
'0:18.809',-234.1299774
'0:18.813',-212.8574642
'0:18.816',-215.8018712
'0:18.820',-191.0225363
'0:18.824',-192.3458653
'0:18.828',-169.9816057
'0:18.832',-164.0597086
'0:18.836',-150.0324216
'0:18.840',-141.1330343
'0:18.844',-143.018778
'0:18.848',-136.8322151
'0:18.852',-115.5266188
'0:18.855',-102.0286633
'0:18.859',-92.59994442
'0:18.863',-93.42702502
'0:18.867',-87.47204468
'0:18.871',-66.99352892
'0:18.875',-69.7063533
'0:18.879',-74.80116982
'0:18.883',-59.9798854
'0:18.887',-56.20839785
'0:18.891',-36.25921368
'0:18.895',-37.35096008
'0:18.898',-40.85778184
'0:18.902',-26.565829
'0:18.906',-24.68008522
'0:18.910',-20.90859767
'0:18.914',-20.34618286
'0:18.918',-23.32367303
'0:18.922',-10.38813239
'0:18.926',5.78956423
'0:18.930',24.94475102
'0:18.934',27.09516059
'0:18.938',26.565829
'0:18.941',39.50136965
'0:18.945',37.88029166
'0:18.949',40.29536703
'0:18.953',27.88915797
'0:18.957',43.2728572
'0:18.961',38.93895483
'0:18.965',21.70259505
'0:18.969',25.20941681
'0:18.973',12.27387616
'0:18.977',26.565829
'0:18.980',6.61664483
'0:18.984',21.43792925
'0:18.988',23.85300462
'0:18.992',27.09516059
'0:18.996',26.83049479
'0:19.000',23.85300462
'0:19.004',21.96726084
'0:19.008',23.58833883
'0:19.012',26.26807998
'0:19.016',26.565829
'0:19.020',39.50136965
'0:19.023',52.70157608
'0:19.027',54.32265407
'0:19.031',89.35778845
'0:19.035',197.473765
'0:19.039',301.2558392
'0:19.043',396.1716093
'0:19.047',468.6900367
'0:19.051',447.9137719
'0:19.055',341.7166223
'0:19.059',225.5283391
'0:19.063',166.2101182
'0:19.066',142.7541122
'0:19.070',176.4328344
'0:19.074',168.3605277
'0:19.078',111.1927164
'0:19.082',61.60096338
'0:19.086',4.99556685
'0:19.090',-31.69372874
'0:19.094',-44.3646036
'0:19.098',-39.23670385
'0:19.102',-39.50136965
'0:19.105',-59.9798854
'0:19.109',-77.77866
'0:19.113',-75.36358463
'0:19.117',-72.91542605
'0:19.121',-73.18009184
'0:19.125',-91.24353223
'0:19.129',-91.80594704
'0:19.133',-106.6272315
'0:19.137',-105.0061535
'0:19.141',-105.5354851
'0:19.145',-107.4212288
'0:19.148',-107.9836437
'0:19.152',-121.7131817
'0:19.156',-135.2111371
'0:19.160',-120.6545185
'0:19.164',-124.4260061
'0:19.168',-109.3069726
'0:19.172',-106.3625657
'0:19.176',-102.5910781
'0:19.180',-87.47204468
'0:19.184',-91.24353223
'0:19.188',-92.33527863
'0:19.191',-89.09312266
'0:19.195',-86.14871571
'0:19.199',-71.59209708
'0:19.203',-59.71521961
'0:19.207',-44.89393518
'0:19.211',-56.73772943
'0:19.215',-36.52387947
'0:19.219',-38.40962325
'0:19.223',-27.35982638
'0:19.227',-13.33253934
'0:19.230',-9.29638599
'0:19.234',-4.43315204
'0:19.238',10.65279818
'0:19.242',5.52489843
'0:19.246',18.98977067
'0:19.250',22.23192663
'0:19.254',58.09414162
'0:19.258',72.91542605
'0:19.262',69.67327008
'0:19.266',100.4075853
'0:19.270',71.29434806
'0:19.273',75.62825043
'0:19.277',89.92020326
'0:19.281',99.87825374
'0:19.285',98.25717575
'0:19.289',87.73671047
'0:19.293',92.86461021
'0:19.297',90.18486906
'0:19.301',99.08425636
'0:19.305',96.93384678
'0:19.309',86.94271309
'0:19.313',77.5139942
'0:19.316',59.9798854
'0:19.320',67.7875263
'0:19.324',78.30799158
'0:19.328',67.52286051
'0:19.332',61.33629759
'0:19.336',46.51501317
'0:19.340',22.23192663
'0:19.344',14.95361732
'0:19.348',17.40177591
'0:19.352',9.82571758
'0:19.355',13.33253934
'0:19.359',7.14597642
'0:19.363',-0.39699869
'0:19.367',-14.68895153
'0:19.371',8.7670544
'0:19.375',-4.16848624
'0:19.379',7.14597642
'0:19.383',0.66166448
'0:19.387',16.8393611
'0:19.391',22.79434145
'0:19.395',27.35982638
'0:19.398',55.41440047
'0:19.402',64.01603875
'0:19.406',64.01603875
'0:19.410',56.20839785
'0:19.414',45.68793256
'0:19.418',26.00341419
'0:19.422',17.40177591
'0:19.426',14.95361732
'0:19.430',5.52489843
'0:19.434',-3.10982307
'0:19.438',-5.26023264
'0:19.441',-29.24557016
'0:19.445',-48.13609115
'0:19.449',-43.00819141
'0:19.453',-53.23090767
'0:19.457',-69.40860428
'0:19.461',-90.97886644
'0:19.465',-94.75035399
'0:19.469',-123.5989255
'0:19.473',-148.6760094
'0:19.477',-179.1456588
'0:19.480',-200.9805868
'0:19.484',-207.4648987
'0:19.488',-237.3721333
'0:19.492',-260.5634735
'0:19.496',-273.2343483
'0:19.500',-280.2479919
'0:19.504',-288.0556328
'0:19.508',-301.818254
'0:19.512',-308.2694827
'0:19.516',-288.8827134
'0:19.520',-295.8963569
'0:19.523',-286.9969696
'0:19.527',-284.8134768
'0:19.531',-275.9140895
'0:19.535',-256.2626543
'0:19.539',-246.2715206
'0:19.543',-237.3721333
'0:19.547',-219.8711078
'0:19.551',-211.5010521
'0:19.555',-191.0225363
'0:19.559',-195.5880212
'0:19.563',-186.4239681
'0:19.566',-170.7756031
'0:19.570',-164.0597086
'0:19.574',-143.018778
'0:19.578',-130.3479032
'0:19.582',-120.9191843
'0:19.586',-105.8332341
'0:19.590',-99.61358794
'0:19.594',-78.30799158
'0:19.598',-65.37245094
'0:19.602',-55.94373205
'0:19.605',-41.12244763
'0:19.609',-35.4652163
'0:19.613',-14.15961994
'0:19.617',-0.9594135
'0:19.621',8.7670544
'0:19.625',7.675308
'0:19.629',28.98090436
'0:19.633',17.93110749
'0:19.637',32.48772612
'0:19.641',26.00341419
'0:19.645',39.50136965
'0:19.648',58.92122223
'0:19.652',48.66542274
'0:19.656',65.37245094
'0:19.660',59.71521961
'0:19.664',71.29434806
'0:19.668',73.74250665
'0:19.672',79.92906957
'0:19.676',81.55014755
'0:19.680',92.33527863
'0:19.684',118.2063599
'0:19.688',119.2981063
'0:19.691',127.1057472
'0:19.695',130.8772348
'0:19.699',125.749335
'0:19.703',134.6487223
'0:19.707',149.7677558
'0:19.711',140.8683685
'0:19.715',162.1739648
'0:19.719',158.3693941
'0:19.723',135.7404687
'0:19.727',134.9464713
'0:19.730',124.1613403
'0:19.734',112.8137944
'0:19.738',110.1340532
'0:19.742',118.7687747
'0:19.746',116.3206161
'0:19.750',137.3615467
'0:19.754',142.7541122
'0:19.758',141.9270316
'0:19.762',151.9181653
'0:19.766',163.7619596
'0:19.770',167.2687814
'0:19.773',173.7530933
'0:19.777',159.1964747
'0:19.781',169.1545251
'0:19.785',163.232628
'0:19.789',180.7667368
'0:19.793',217.687615
'0:19.797',343.3377003
'0:19.801',446.0280281
'0:19.805',492.94004
'0:19.809',536.0805643
'0:19.813',483.7759869
'0:19.816',404.8063308
'0:19.820',314.7537947
'0:19.824',272.440351
'0:19.828',271.3486046
'0:19.832',247.6279328
'0:19.836',191.8165337
'0:19.840',95.57743459
'0:19.844',38.93895483
'0:19.848',13.89495415
'0:19.852',-16.5746953
'0:19.855',-8.23772282
'0:19.859',-20.61084865
'0:19.863',-41.65177922
'0:19.867',-64.01603875
'0:19.871',-79.66440377
'0:19.875',-58.62347321
'0:19.879',-71.85676287
'0:19.883',-73.74250665
'0:19.887',-93.69169082
'0:19.891',-94.2210224
'0:19.895',-106.8918973
'0:19.898',-88.82845687
'0:19.902',-90.97886644
'0:19.906',-78.30799158
'0:19.910',-78.30799158
'0:19.914',-89.92020326
'0:19.918',-86.94271309
'0:19.922',-74.27183824
'0:19.926',-78.87040639
'0:19.930',-78.30799158
'0:19.934',-73.18009184
'0:19.938',-55.11665145
'0:19.941',-58.35880742
'0:19.945',-46.25034737
'0:19.949',-45.68793256
'0:19.953',-56.47306364
'0:19.957',-22.79434145
'0:19.961',-11.44679556
'0:19.965',-14.95361732
'0:19.969',3.37448886
'0:19.973',-7.41064221
'0:19.977',9.82571758
'0:19.980',20.61084865
'0:19.984',16.5746953
'0:19.988',34.90280149
'0:19.992',55.67906626
'0:19.996',57.00239523
'0:20.000',85.05696931
'0:20.004',81.28548176
'0:20.008',114.1702066
'0:20.012',118.4710257
'0:20.016',136.8322151
'0:20.020',149.7677558
'0:20.023',176.7305835
'0:20.027',161.61155
'0:20.031',167.5665304
'0:20.035',169.9816057
'0:20.039',181.2960684
'0:20.043',175.6388371
'0:20.047',176.9952493
'0:20.051',182.6524806
'0:20.055',200.4512552
'0:20.059',195.852687
'0:20.063',207.1671497
'0:20.066',192.6105311
'0:20.070',213.6514616
'0:20.074',214.743208
'0:20.078',195.5880212
'0:20.082',192.6105311
'0:20.086',176.9952493
'0:20.090',179.9396562
'0:20.094',149.7677558
'0:20.098',148.1466778
'0:20.102',128.1974936
'0:20.105',127.370413
'0:20.109',113.9055408
'0:20.113',100.9700001
'0:20.117',99.61358794
'0:20.121',95.3127688
'0:20.125',93.42702502
