'0:00.000',0.16
'0:00.008',0.18
'0:00.016',0.17
'0:00.023',0.18
'0:00.031',0.18
'0:00.039',0.17
'0:00.047',0.17
'0:00.055',0.13
'0:00.063',0.13
'0:00.070',0.1
'0:00.078',0.06
'0:00.086',0.04
'0:00.094',0.01
'0:00.102',-0.01
'0:00.109',-0.02
'0:00.117',-0.02
'0:00.125',-0.02
'0:00.133',-0.03
'0:00.141',0
'0:00.148',0
'0:00.156',0
'0:00.164',0.02
'0:00.172',0.03
'0:00.180',0.04
'0:00.188',0.03
'0:00.195',0.07
'0:00.203',0.05
'0:00.211',0.06
'0:00.219',0.05
'0:00.227',0.05
'0:00.234',0.05
'0:00.242',0.05
'0:00.250',0.06
'0:00.258',0.05
'0:00.266',0.05
'0:00.273',0.03
'0:00.281',0.03
'0:00.289',0.03
'0:00.297',0.02
'0:00.305',0.02
'0:00.313',0.02
'0:00.320',0.01
'0:00.328',0
'0:00.336',0
'0:00.344',0
'0:00.352',-0.01
'0:00.359',0
'0:00.367',-0.01
'0:00.375',-0.01
'0:00.383',-0.01
'0:00.391',-0.01
'0:00.398',-0.01
'0:00.406',-0.02
'0:00.414',-0.02
'0:00.422',-0.01
'0:00.430',-0.01
'0:00.438',0
'0:00.445',0.06
'0:00.453',0.05
'0:00.461',0.09
'0:00.469',0.11
'0:00.477',0.16
'0:00.484',0.13
'0:00.492',0.05
'0:00.500',0.03
'0:00.508',-0.09
'0:00.516',-0.12
'0:00.523',-0.09
'0:00.531',-0.08
'0:00.539',-0.09
'0:00.547',-0.08
'0:00.555',-0.08
'0:00.563',-0.07
'0:00.570',-0.08
'0:00.578',0.09
'0:00.586',0.45
'0:00.594',0.79
'0:00.602',-1.17
'0:00.609',-1.91
'0:00.617',-1.64
'0:00.625',-1.28
'0:00.633',-0.52
'0:00.641',-0.15
'0:00.648',-0.03
'0:00.656',-0.03
'0:00.664',0.01
'0:00.672',0.03
'0:00.680',0.05
'0:00.688',0.06
'0:00.695',0.08
'0:00.703',0.09
'0:00.711',0.1
'0:00.719',0.13
'0:00.727',0.14
'0:00.734',0.16
'0:00.742',0.15
'0:00.750',0.18
'0:00.758',0.2
'0:00.766',0.22
'0:00.773',0.22
'0:00.781',0.26
'0:00.789',0.28
'0:00.797',0.28
'0:00.805',0.3
'0:00.813',0.29
'0:00.820',0.29
'0:00.828',0.27
'0:00.836',0.24
'0:00.844',0.21
'0:00.852',0.17
'0:00.859',0.13
'0:00.867',0.1
'0:00.875',0.05
'0:00.883',0.03
'0:00.891',0.04
'0:00.898',0.05
'0:00.906',0.04
'0:00.914',0.05
'0:00.922',0.06
'0:00.930',0.06
'0:00.938',0.06
'0:00.945',0.06
'0:00.953',0.05
'0:00.961',0.04
'0:00.969',0.07
'0:00.977',0.06
'0:00.984',0.07
'0:00.992',0.06
'0:01.000',0.08
'0:01.008',0.08
'0:01.016',0.08
'0:01.023',0.09
'0:01.031',0.1
'0:01.039',0.1
'0:01.047',0.09
'0:01.055',0.09
'0:01.063',0.09
'0:01.070',0.08
'0:01.078',0.07
'0:01.086',0.07
'0:01.094',0.06
'0:01.102',0.05
'0:01.109',0.05
'0:01.117',0.05
'0:01.125',0.02
'0:01.133',0.04
'0:01.141',0.03
'0:01.148',0.01
'0:01.156',0.01
'0:01.164',0
'0:01.172',0.01
'0:01.180',0
'0:01.188',0
'0:01.195',0
'0:01.203',0
'0:01.211',-0.02
'0:01.219',-0.01
'0:01.227',-0.01
'0:01.234',-0.02
'0:01.242',-0.02
'0:01.250',-0.02
'0:01.258',-0.02
'0:01.266',0.02
'0:01.273',0.02
'0:01.281',0.06
'0:01.289',0.06
'0:01.297',0.14
'0:01.305',0.1
'0:01.313',0.02
'0:01.320',-0.02
'0:01.328',-0.13
'0:01.336',-0.13
'0:01.344',-0.13
'0:01.352',-0.1
'0:01.359',-0.1
'0:01.367',-0.1
'0:01.375',-0.11
'0:01.383',-0.11
'0:01.391',-0.09
'0:01.398',0.16
'0:01.406',0.43
'0:01.414',0.75
'0:01.422',-1.52
'0:01.430',-1.93
'0:01.438',-1.36
'0:01.445',-1.11
'0:01.453',-0.44
'0:01.461',-0.08
'0:01.469',-0.06
'0:01.477',-0.04
'0:01.484',0
'0:01.492',0.02
'0:01.500',0.05
'0:01.508',0.06
'0:01.516',0.06
'0:01.523',0.09
'0:01.531',0.09
'0:01.539',0.1
'0:01.547',0.12
'0:01.555',0.14
'0:01.563',0.14
'0:01.570',0.16
'0:01.578',0.19
'0:01.586',0.21
'0:01.594',0.21
'0:01.602',0.24
'0:01.609',0.25
'0:01.617',0.25
'0:01.625',0.25
'0:01.633',0.26
'0:01.641',0.24
'0:01.648',0.21
'0:01.656',0.19
'0:01.664',0.17
'0:01.672',0.11
'0:01.680',0.07
'0:01.688',0.05
'0:01.695',0.01
'0:01.703',0.01
'0:01.711',-0.01
'0:01.719',0.01
'0:01.727',0
'0:01.734',0.01
'0:01.742',0.02
'0:01.750',0.01
'0:01.758',0.01
'0:01.766',0.02
'0:01.773',0.02
'0:01.781',0.01
'0:01.789',0.01
'0:01.797',0.02
'0:01.805',0.02
'0:01.813',0.02
'0:01.820',0.02
'0:01.828',0.02
'0:01.836',0.02
'0:01.844',0.02
'0:01.852',0.03
'0:01.859',0.03
'0:01.867',0.02
'0:01.875',0.02
'0:01.883',0.02
'0:01.891',0.03
'0:01.898',0.01
'0:01.906',0.01
'0:01.914',0
'0:01.922',-0.02
'0:01.930',0
'0:01.938',-0.01
'0:01.945',-0.02
'0:01.953',-0.02
'0:01.961',-0.02
'0:01.969',-0.02
'0:01.977',-0.03
'0:01.984',-0.04
'0:01.992',-0.05
'0:02.000',-0.05
'0:02.008',-0.06
'0:02.016',-0.06
'0:02.023',-0.06
'0:02.031',-0.06
'0:02.039',-0.06
'0:02.047',-0.06
'0:02.055',-0.06
'0:02.063',-0.06
'0:02.070',-0.02
'0:02.078',-0.02
'0:02.086',-0.01
'0:02.094',0.03
'0:02.102',0.08
'0:02.109',0.09
'0:02.117',0
'0:02.125',-0.05
'0:02.133',-0.13
'0:02.141',-0.18
'0:02.148',-0.16
'0:02.156',-0.15
'0:02.164',-0.13
'0:02.172',-0.13
'0:02.180',-0.14
'0:02.188',-0.13
'0:02.195',-0.14
'0:02.203',-0.04
'0:02.211',0.34
'0:02.219',0.71
'0:02.227',-1.05
'0:02.234',-1.87
'0:02.242',-1.58
'0:02.250',-1.25
'0:02.258',-0.54
'0:02.266',-0.17
'0:02.273',-0.07
'0:02.281',-0.07
'0:02.289',-0.03
'0:02.297',-0.01
'0:02.305',0.01
'0:02.313',0.02
'0:02.320',0.03
'0:02.328',0.04
'0:02.336',0.04
'0:02.344',0.04
'0:02.352',0.06
'0:02.359',0.08
'0:02.367',0.08
'0:02.375',0.09
'0:02.383',0.1
'0:02.391',0.11
'0:02.398',0.12
'0:02.406',0.14
'0:02.414',0.15
'0:02.422',0.17
'0:02.430',0.15
'0:02.438',0.16
'0:02.445',0.14
'0:02.453',0.12
'0:02.461',0.12
'0:02.469',0.08
'0:02.477',0.04
'0:02.484',0.03
'0:02.492',0.01
'0:02.500',-0.02
'0:02.508',-0.03
'0:02.516',-0.01
'0:02.523',-0.03
'0:02.531',-0.01
'0:02.539',0
'0:02.547',0.01
'0:02.555',0.01
'0:02.563',0.02
'0:02.570',0.02
'0:02.578',0.01
'0:02.586',0
'0:02.594',0
'0:02.602',0.01
'0:02.609',0.01
'0:02.617',0.02
'0:02.625',0.01
'0:02.633',0.01
'0:02.641',0.03
'0:02.648',0.03
'0:02.656',0.01
'0:02.664',0.02
'0:02.672',0.01
'0:02.680',0.03
'0:02.688',0.01
'0:02.695',-0.01
'0:02.703',0.01
'0:02.711',0.01
'0:02.719',0
'0:02.727',-0.01
'0:02.734',-0.01
'0:02.742',-0.01
'0:02.750',-0.02
'0:02.758',-0.01
'0:02.766',-0.01
'0:02.773',-0.02
'0:02.781',-0.05
'0:02.789',-0.02
'0:02.797',-0.03
'0:02.805',-0.02
'0:02.813',-0.05
'0:02.820',-0.03
'0:02.828',-0.04
'0:02.836',-0.04
'0:02.844',-0.01
'0:02.852',0.03
'0:02.859',-0.02
'0:02.867',0.07
'0:02.875',0.06
'0:02.883',0.13
'0:02.891',0.1
'0:02.898',0.03
'0:02.906',-0.02
'0:02.914',-0.12
'0:02.922',-0.14
'0:02.930',-0.15
'0:02.938',-0.11
'0:02.945',-0.13
'0:02.953',-0.13
'0:02.961',-0.14
'0:02.969',-0.12
'0:02.977',-0.14
'0:02.984',0.08
'0:02.992',0.34
'0:03.000',0.67
'0:03.008',-0.81
'0:03.016',-1.64
'0:03.023',-1.35
'0:03.031',-1.11
'0:03.039',-0.61
'0:03.047',-0.21
'0:03.055',-0.11
'0:03.063',-0.09
'0:03.070',-0.06
'0:03.078',-0.03
'0:03.086',-0.03
'0:03.094',0
'0:03.102',0
'0:03.109',0.01
'0:03.117',0.02
'0:03.125',0.04
'0:03.133',0.05
'0:03.141',0.04
'0:03.148',0.06
'0:03.156',0.08
'0:03.164',0.08
'0:03.172',0.1
'0:03.180',0.12
'0:03.188',0.14
'0:03.195',0.15
'0:03.203',0.17
'0:03.211',0.17
'0:03.219',0.17
'0:03.227',0.16
'0:03.234',0.15
'0:03.242',0.14
'0:03.250',0.1
'0:03.258',0.1
'0:03.266',0.06
'0:03.273',0.02
'0:03.281',0
'0:03.289',0.01
'0:03.297',-0.02
'0:03.305',-0.02
'0:03.313',-0.01
'0:03.320',-0.02
'0:03.328',0.01
'0:03.336',0
'0:03.344',0
'0:03.352',0.01
'0:03.359',0.01
'0:03.367',0.01
'0:03.375',0.02
'0:03.383',0.02
'0:03.391',0.03
'0:03.398',0.02
'0:03.406',0.03
'0:03.414',0.03
'0:03.422',0.02
'0:03.430',0.03
'0:03.438',0.02
'0:03.445',0.01
'0:03.453',0.01
'0:03.461',0.01
'0:03.469',-0.01
'0:03.477',0
'0:03.484',0
'0:03.492',0.01
'0:03.500',-0.02
'0:03.508',0
'0:03.516',-0.01
'0:03.523',-0.02
'0:03.531',-0.01
'0:03.539',-0.01
'0:03.547',-0.02
'0:03.555',-0.02
'0:03.563',-0.02
'0:03.570',-0.02
'0:03.578',-0.02
'0:03.586',-0.03
'0:03.594',-0.02
'0:03.602',-0.02
'0:03.609',-0.04
'0:03.617',-0.02
'0:03.625',0.02
'0:03.633',0.04
'0:03.641',0.04
'0:03.648',0.08
'0:03.656',0.12
'0:03.664',0.15
'0:03.672',0.06
'0:03.680',0.01
'0:03.688',-0.05
'0:03.695',-0.14
'0:03.703',-0.11
'0:03.711',-0.12
'0:03.719',-0.11
'0:03.727',-0.1
'0:03.734',-0.1
'0:03.742',-0.08
'0:03.750',-0.1
'0:03.758',-0.03
'0:03.766',0.35
'0:03.773',0.61
'0:03.781',-0.46
'0:03.789',-1.88
'0:03.797',-1.9
'0:03.805',-1.25
'0:03.813',-0.63
'0:03.820',-0.26
'0:03.828',-0.03
'0:03.836',-0.04
'0:03.844',0
'0:03.852',0.02
'0:03.859',0.04
'0:03.867',0.05
'0:03.875',0.07
'0:03.883',0.07
'0:03.891',0.09
'0:03.898',0.1
'0:03.906',0.12
'0:03.914',0.11
'0:03.922',0.15
'0:03.930',0.15
'0:03.938',0.18
'0:03.945',0.19
'0:03.953',0.21
'0:03.961',0.22
'0:03.969',0.24
'0:03.977',0.25
'0:03.984',0.26
'0:03.992',0.26
'0:04.000',0.24
'0:04.008',0.23
'0:04.016',0.19
'0:04.023',0.17
'0:04.031',0.13
'0:04.039',0.09
'0:04.047',0.04
'0:04.055',0
'0:04.063',0
'0:04.070',-0.01
'0:04.078',-0.02
'0:04.086',-0.02
'0:04.094',0
'0:04.102',0
'0:04.109',0.01
'0:04.117',0
'0:04.125',0
'0:04.133',-0.01
'0:04.141',0.01
'0:04.148',0
'0:04.156',0
'0:04.164',0.02
'0:04.172',0.01
'0:04.180',0.02
'0:04.188',0.03
'0:04.195',0.03
'0:04.203',0.05
'0:04.211',0.05
'0:04.219',0.05
'0:04.227',0.05
'0:04.234',0.05
'0:04.242',0.04
'0:04.250',0.03
'0:04.258',0.04
'0:04.266',0.02
'0:04.273',0.03
'0:04.281',0.01
'0:04.289',0.02
'0:04.297',0
'0:04.305',0.01
'0:04.313',0.01
'0:04.320',0.01
'0:04.328',-0.01
'0:04.336',-0.01
'0:04.344',0
'0:04.352',-0.02
'0:04.359',-0.01
'0:04.367',-0.01
'0:04.375',-0.01
'0:04.383',-0.02
'0:04.391',-0.01
'0:04.398',-0.02
'0:04.406',-0.02
'0:04.414',-0.02
'0:04.422',-0.02
'0:04.430',0.02
'0:04.438',0.05
'0:04.445',0.02
'0:04.453',0.09
'0:04.461',0.1
'0:04.469',0.16
'0:04.477',0.07
'0:04.484',0.01
'0:04.492',-0.05
'0:04.500',-0.12
'0:04.508',-0.1
'0:04.516',-0.1
'0:04.523',-0.08
'0:04.531',-0.07
'0:04.539',-0.09
'0:04.547',-0.1
'0:04.555',-0.09
'0:04.563',-0.05
'0:04.570',0.34
'0:04.578',0.58
'0:04.586',-0.42
'0:04.594',-1.84
'0:04.602',-1.8
'0:04.609',-1.22
'0:04.617',-0.57
'0:04.625',-0.22
'0:04.633',-0.04
'0:04.641',-0.03
'0:04.648',-0.02
'0:04.656',0.01
'0:04.664',0.02
'0:04.672',0.05
'0:04.680',0.05
'0:04.688',0.04
'0:04.695',0.06
'0:04.703',0.08
'0:04.711',0.08
'0:04.719',0.11
'0:04.727',0.11
'0:04.734',0.12
'0:04.742',0.14
'0:04.750',0.14
'0:04.758',0.18
'0:04.766',0.18
'0:04.773',0.21
'0:04.781',0.21
'0:04.789',0.22
'0:04.797',0.22
'0:04.805',0.22
'0:04.813',0.19
'0:04.820',0.18
'0:04.828',0.16
'0:04.836',0.14
'0:04.844',0.09
'0:04.852',0.04
'0:04.859',0.02
'0:04.867',0
'0:04.875',0.01
'0:04.883',0.02
'0:04.891',0.01
'0:04.898',0.02
'0:04.906',0.03
'0:04.914',0.03
'0:04.922',0.04
'0:04.930',0.03
'0:04.938',0.04
'0:04.945',0.03
'0:04.953',0.03
'0:04.961',0.02
'0:04.969',0.04
'0:04.977',0.04
'0:04.984',0.03
'0:04.992',0.04
'0:05.000',0.04
'0:05.008',0.04
'0:05.016',0.04
'0:05.023',0.05
'0:05.031',0.06
'0:05.039',0.04
'0:05.047',0.04
'0:05.055',0.04
'0:05.063',0.02
'0:05.070',0.02
'0:05.078',0.02
'0:05.086',0.01
'0:05.094',0.01
'0:05.102',0
'0:05.109',-0.01
'0:05.117',-0.02
'0:05.125',-0.02
'0:05.133',-0.01
'0:05.141',-0.02
'0:05.148',-0.03
'0:05.156',-0.02
'0:05.164',-0.03
'0:05.172',-0.03
'0:05.180',-0.04
'0:05.188',-0.03
'0:05.195',-0.03
'0:05.203',-0.04
'0:05.211',-0.05
'0:05.219',-0.05
'0:05.227',-0.03
'0:05.234',-0.04
'0:05.242',0.01
'0:05.250',0.03
'0:05.258',0.01
'0:05.266',0.06
'0:05.273',0.09
'0:05.281',0.14
'0:05.289',0.04
'0:05.297',-0.01
'0:05.305',-0.07
'0:05.313',-0.14
'0:05.320',-0.12
'0:05.328',-0.1
'0:05.336',-0.08
'0:05.344',-0.08
'0:05.352',-0.1
'0:05.359',-0.06
'0:05.367',-0.1
'0:05.375',-0.05
'0:05.383',0.34
'0:05.391',0.59
'0:05.398',-0.41
'0:05.406',-1.79
'0:05.414',-1.75
'0:05.422',-1.16
'0:05.430',-0.56
'0:05.438',-0.21
'0:05.445',-0.01
'0:05.453',-0.01
'0:05.461',0.01
'0:05.469',0.04
'0:05.477',0.05
'0:05.484',0.07
'0:05.492',0.09
'0:05.500',0.08
'0:05.508',0.09
'0:05.516',0.09
'0:05.523',0.1
'0:05.531',0.11
'0:05.539',0.13
'0:05.547',0.13
'0:05.555',0.14
'0:05.563',0.16
'0:05.570',0.16
'0:05.578',0.19
'0:05.586',0.18
'0:05.594',0.2
'0:05.602',0.21
'0:05.609',0.21
'0:05.617',0.19
'0:05.625',0.17
'0:05.633',0.16
'0:05.641',0.15
'0:05.648',0.12
'0:05.656',0.09
'0:05.664',0.05
'0:05.672',0.03
'0:05.680',0.01
'0:05.688',0.02
'0:05.695',0.02
'0:05.703',0.02
'0:05.711',0.04
'0:05.719',0.03
'0:05.727',0.03
'0:05.734',0.02
'0:05.742',0.05
'0:05.750',0.04
'0:05.758',0.04
'0:05.766',0.04
'0:05.773',0.04
'0:05.781',0.04
'0:05.789',0.04
'0:05.797',0.06
'0:05.805',0.06
'0:05.813',0.07
'0:05.820',0.05
'0:05.828',0.07
'0:05.836',0.07
'0:05.844',0.06
'0:05.852',0.06
'0:05.859',0.07
'0:05.867',0.05
'0:05.875',0.06
'0:05.883',0.03
'0:05.891',0.02
'0:05.898',0.02
'0:05.906',0.03
'0:05.914',0.02
'0:05.922',0.01
'0:05.930',0.02
'0:05.938',0.01
'0:05.945',0
'0:05.953',0
'0:05.961',0
'0:05.969',0.01
'0:05.977',-0.02
'0:05.984',-0.01
'0:05.992',-0.01
'0:06.000',-0.02
'0:06.008',-0.02
'0:06.016',-0.02
'0:06.023',-0.01
'0:06.031',-0.02
'0:06.039',-0.02
'0:06.047',0.03
'0:06.055',0.05
'0:06.063',0.01
'0:06.070',0.09
'0:06.078',0.13
'0:06.086',0.14
'0:06.094',0.07
'0:06.102',0.02
'0:06.109',-0.05
'0:06.117',-0.11
'0:06.125',-0.09
'0:06.133',-0.09
'0:06.141',-0.09
'0:06.148',-0.1
'0:06.156',-0.1
'0:06.164',-0.09
'0:06.172',-0.12
'0:06.180',-0.06
'0:06.188',0.26
'0:06.195',0.56
'0:06.203',-0.05
'0:06.211',-1.59
'0:06.219',-1.53
'0:06.227',-1.15
'0:06.234',-0.62
'0:06.242',-0.3
'0:06.250',-0.04
'0:06.258',-0.05
'0:06.266',-0.03
'0:06.273',0
'0:06.281',0.03
'0:06.289',0.02
'0:06.297',0.04
'0:06.305',0.06
'0:06.313',0.08
'0:06.320',0.07
'0:06.328',0.09
'0:06.336',0.1
'0:06.344',0.09
'0:06.352',0.13
'0:06.359',0.13
'0:06.367',0.15
'0:06.375',0.14
'0:06.383',0.16
'0:06.391',0.18
'0:06.398',0.18
'0:06.406',0.19
'0:06.414',0.19
'0:06.422',0.19
'0:06.430',0.17
'0:06.438',0.17
'0:06.445',0.16
'0:06.453',0.13
'0:06.461',0.12
'0:06.469',0.09
'0:06.477',0.06
'0:06.484',0.03
'0:06.492',0.03
'0:06.500',0.02
'0:06.508',0.01
'0:06.516',0.04
'0:06.523',0.03
'0:06.531',0.03
'0:06.539',0.04
'0:06.547',0.03
'0:06.555',0.05
'0:06.563',0.05
'0:06.570',0.06
'0:06.578',0.06
'0:06.586',0.05
'0:06.594',0.07
'0:06.602',0.05
'0:06.609',0.05
'0:06.617',0.05
'0:06.625',0.06
'0:06.633',0.05
'0:06.641',0.04
'0:06.648',0.04
'0:06.656',0.04
'0:06.664',0.02
'0:06.672',0.02
'0:06.680',0.03
'0:06.688',0.02
'0:06.695',0.01
'0:06.703',0.02
'0:06.711',0.01
'0:06.719',0.02
'0:06.727',0.01
'0:06.734',0.01
'0:06.742',0
'0:06.750',0.01
'0:06.758',0
'0:06.766',0.01
'0:06.773',0.01
'0:06.781',0
'0:06.789',0
'0:06.797',0
'0:06.805',0
'0:06.813',-0.01
'0:06.820',0
'0:06.828',0.01
'0:06.836',0.04
'0:06.844',0.09
'0:06.852',0.05
'0:06.859',0.13
'0:06.867',0.1
'0:06.875',0.2
'0:06.883',0.1
'0:06.891',0.05
'0:06.898',0
'0:06.906',-0.11
'0:06.914',-0.1
'0:06.922',-0.11
'0:06.930',-0.08
'0:06.938',-0.06
'0:06.945',-0.09
'0:06.953',-0.09
'0:06.961',-0.08
'0:06.969',-0.07
'0:06.977',0.25
'0:06.984',0.5
'0:06.992',0.43
'0:07.000',-1.72
'0:07.008',-1.89
'0:07.016',-1.19
'0:07.023',-0.79
'0:07.031',-0.35
'0:07.039',-0.02
'0:07.047',0
'0:07.055',0
'0:07.063',0.02
'0:07.070',0.05
'0:07.078',0.06
'0:07.086',0.07
'0:07.094',0.1
'0:07.102',0.11
'0:07.109',0.11
'0:07.117',0.12
'0:07.125',0.14
'0:07.133',0.14
'0:07.141',0.16
'0:07.148',0.18
'0:07.156',0.19
'0:07.164',0.2
'0:07.172',0.22
'0:07.180',0.25
'0:07.188',0.25
'0:07.195',0.26
'0:07.203',0.26
'0:07.211',0.26
'0:07.219',0.24
'0:07.227',0.22
'0:07.234',0.22
'0:07.242',0.17
'0:07.250',0.12
'0:07.258',0.08
'0:07.266',0.05
'0:07.273',0.02
'0:07.281',0.01
'0:07.289',0.01
'0:07.297',0.03
'0:07.305',0.03
'0:07.313',0.04
'0:07.320',0.04
'0:07.328',0.05
'0:07.336',0.04
'0:07.344',0.06
'0:07.352',0.05
'0:07.359',0.04
'0:07.367',0.04
'0:07.375',0.05
'0:07.383',0.04
'0:07.391',0.04
'0:07.398',0.05
'0:07.406',0.05
'0:07.414',0.04
'0:07.422',0.05
'0:07.430',0.04
'0:07.438',0.04
'0:07.445',0.04
'0:07.453',0.04
'0:07.461',0.03
'0:07.469',0.02
'0:07.477',0.01
'0:07.484',0
'0:07.492',-0.01
'0:07.500',-0.01
'0:07.508',-0.01
'0:07.516',-0.01
'0:07.523',-0.02
'0:07.531',-0.02
'0:07.539',-0.03
'0:07.547',-0.02
'0:07.555',-0.04
'0:07.563',-0.04
'0:07.570',-0.04
'0:07.578',-0.05
'0:07.586',-0.05
'0:07.594',-0.05
'0:07.602',-0.05
'0:07.609',-0.07
'0:07.617',-0.06
'0:07.625',-0.04
'0:07.633',0.02
'0:07.641',-0.02
'0:07.648',0.05
'0:07.656',0.06
'0:07.664',0.13
'0:07.672',0.03
'0:07.680',-0.02
'0:07.688',-0.07
'0:07.695',-0.18
'0:07.703',-0.16
'0:07.711',-0.15
'0:07.719',-0.13
'0:07.727',-0.13
'0:07.734',-0.13
'0:07.742',-0.14
'0:07.750',-0.13
'0:07.758',-0.12
'0:07.766',0.21
'0:07.773',0.44
'0:07.781',0.55
'0:07.789',-1.75
'0:07.797',-1.93
'0:07.805',-1.22
'0:07.813',-0.94
'0:07.820',-0.38
'0:07.828',-0.04
'0:07.836',-0.05
'0:07.844',-0.02
'0:07.852',0.01
'0:07.859',0.02
'0:07.867',0.02
'0:07.875',0.05
'0:07.883',0.05
'0:07.891',0.06
'0:07.898',0.08
'0:07.906',0.09
'0:07.914',0.09
'0:07.922',0.1
'0:07.930',0.11
'0:07.938',0.13
'0:07.945',0.14
'0:07.953',0.16
'0:07.961',0.18
'0:07.969',0.2
'0:07.977',0.21
'0:07.984',0.23
'0:07.992',0.23
'0:08.000',0.22
'0:08.008',0.21
'0:08.016',0.18
'0:08.023',0.15
'0:08.031',0.13
'0:08.039',0.1
'0:08.047',0.05
'0:08.055',0.01
'0:08.063',-0.01
'0:08.070',-0.01
'0:08.078',-0.01
'0:08.086',-0.02
'0:08.094',0.01
'0:08.102',0.02
'0:08.109',0.04
'0:08.117',0.04
'0:08.125',0.04
'0:08.133',0.04
'0:08.141',0.04
'0:08.148',0.04
'0:08.156',0.04
'0:08.164',0.03
'0:08.172',0.05
'0:08.180',0.05
'0:08.188',0.04
'0:08.195',0.05
'0:08.203',0.08
'0:08.211',0.07
'0:08.219',0.08
'0:08.227',0.08
'0:08.234',0.08
'0:08.242',0.07
'0:08.250',0.06
'0:08.258',0.06
'0:08.266',0.07
'0:08.273',0.05
'0:08.281',0.04
'0:08.289',0.04
'0:08.297',0.04
'0:08.305',0.02
'0:08.313',0.05
'0:08.320',0.03
'0:08.328',0.02
'0:08.336',0
'0:08.344',0.02
'0:08.352',0.01
'0:08.359',-0.01
'0:08.367',0
'0:08.375',0
'0:08.383',-0.03
'0:08.391',-0.02
'0:08.398',-0.03
'0:08.406',-0.02
'0:08.414',-0.03
'0:08.422',-0.02
'0:08.430',-0.01
'0:08.438',0.03
'0:08.445',0.01
'0:08.453',0.04
'0:08.461',0.07
'0:08.469',0.14
'0:08.477',0.1
'0:08.484',0.04
'0:08.492',-0.01
'0:08.500',-0.13
'0:08.508',-0.14
'0:08.516',-0.12
'0:08.523',-0.12
'0:08.531',-0.12
'0:08.539',-0.11
'0:08.547',-0.11
'0:08.555',-0.1
'0:08.563',-0.11
'0:08.570',0.03
'0:08.578',0.34
'0:08.586',0.71
'0:08.594',-0.98
'0:08.602',-1.84
'0:08.609',-1.58
'0:08.617',-1.26
'0:08.625',-0.52
'0:08.633',-0.17
'0:08.641',-0.06
'0:08.648',-0.05
'0:08.656',-0.03
'0:08.664',-0.01
'0:08.672',0
'0:08.680',0.02
'0:08.688',0.04
'0:08.695',0.04
'0:08.703',0.07
'0:08.711',0.06
'0:08.719',0.08
'0:08.727',0.1
'0:08.734',0.11
'0:08.742',0.12
'0:08.750',0.13
'0:08.758',0.15
'0:08.766',0.15
'0:08.773',0.18
'0:08.781',0.18
'0:08.789',0.2
'0:08.797',0.2
'0:08.805',0.19
'0:08.813',0.2
'0:08.820',0.18
'0:08.828',0.16
'0:08.836',0.13
'0:08.844',0.12
'0:08.852',0.07
'0:08.859',0.03
'0:08.867',0
'0:08.875',-0.01
'0:08.883',-0.02
'0:08.891',-0.01
'0:08.898',0
'0:08.906',0.02
'0:08.914',0.01
'0:08.922',0.03
'0:08.930',0.03
'0:08.938',0.03
'0:08.945',0.04
'0:08.953',0.05
'0:08.961',0.05
'0:08.969',0.04
'0:08.977',0.05
'0:08.984',0.04
'0:08.992',0.07
'0:09.000',0.06
'0:09.008',0.07
'0:09.016',0.06
'0:09.023',0.06
'0:09.031',0.06
'0:09.039',0.06
'0:09.047',0.04
'0:09.055',0.04
'0:09.063',0.04
'0:09.070',0.04
'0:09.078',0.03
'0:09.086',0
'0:09.094',0.02
'0:09.102',0
'0:09.109',-0.01
'0:09.117',0
'0:09.125',0.01
'0:09.133',-0.01
'0:09.141',-0.01
'0:09.148',-0.02
'0:09.156',-0.02
'0:09.164',-0.02
'0:09.172',-0.04
'0:09.180',-0.02
'0:09.188',-0.02
'0:09.195',-0.03
'0:09.203',-0.02
'0:09.211',-0.03
'0:09.219',-0.04
'0:09.227',-0.03
'0:09.234',0
'0:09.242',0.04
'0:09.250',0
'0:09.258',0.08
'0:09.266',0.06
'0:09.273',0.16
'0:09.281',0.08
'0:09.289',0.03
'0:09.297',-0.01
'0:09.305',-0.15
'0:09.313',-0.1
'0:09.320',-0.11
'0:09.328',-0.1
'0:09.336',-0.08
'0:09.344',-0.11
'0:09.352',-0.09
'0:09.359',-0.09
'0:09.367',-0.09
'0:09.375',0.23
'0:09.383',0.49
'0:09.391',0.6
'0:09.398',-1.55
'0:09.406',-1.7
'0:09.414',-1.11
'0:09.422',-0.8
'0:09.430',-0.42
'0:09.438',-0.04
'0:09.445',-0.05
'0:09.453',-0.01
'0:09.461',0.01
'0:09.469',0.02
'0:09.477',0.03
'0:09.484',0.04
'0:09.492',0.07
'0:09.500',0.06
'0:09.508',0.07
'0:09.516',0.09
'0:09.523',0.08
'0:09.531',0.09
'0:09.539',0.1
'0:09.547',0.11
'0:09.555',0.11
'0:09.563',0.14
'0:09.570',0.14
'0:09.578',0.15
'0:09.586',0.14
'0:09.594',0.14
'0:09.602',0.14
'0:09.609',0.14
'0:09.617',0.13
'0:09.625',0.11
'0:09.633',0.09
'0:09.641',0.07
'0:09.648',0.06
'0:09.656',0.02
'0:09.664',0.02
'0:09.672',0.01
'0:09.680',-0.01
'0:09.688',-0.03
'0:09.695',-0.02
'0:09.703',-0.02
'0:09.711',0.01
'0:09.719',-0.01
'0:09.727',0
'0:09.734',-0.01
'0:09.742',-0.01
'0:09.750',-0.01
'0:09.758',-0.01
'0:09.766',-0.01
'0:09.773',-0.01
'0:09.781',-0.02
'0:09.789',-0.01
'0:09.797',-0.01
'0:09.805',-0.02
'0:09.813',0
'0:09.820',0.01
'0:09.828',-0.01
'0:09.836',-0.02
'0:09.844',-0.03
'0:09.852',-0.01
'0:09.859',-0.02
'0:09.867',-0.03
'0:09.875',-0.02
'0:09.883',-0.01
'0:09.891',-0.02
'0:09.898',-0.02
'0:09.906',-0.02
'0:09.914',-0.03
'0:09.922',-0.02
'0:09.930',-0.02
'0:09.938',-0.04
'0:09.945',-0.04
'0:09.953',-0.03
'0:09.961',-0.03
'0:09.969',-0.03
'0:09.977',-0.04
'0:09.984',-0.04
'0:09.992',-0.05
'0:10.000',-0.04
'0:10.008',-0.04
'0:10.016',-0.03
'0:10.023',-0.03
'0:10.031',0.03
'0:10.039',-0.01
'0:10.047',0.06
'0:10.055',0.04
'0:10.063',0.15
'0:10.070',0.09
'0:10.078',0.02
'0:10.086',-0.02
'0:10.094',-0.12
'0:10.102',-0.13
'0:10.109',-0.13
'0:10.117',-0.1
'0:10.125',-0.11
'0:10.133',-0.12
'0:10.141',-0.13
'0:10.148',-0.11
'0:10.156',-0.12
'0:10.164',0.15
'0:10.172',0.44
'0:10.180',0.73
'0:10.188',-1.12
'0:10.195',-1.58
'0:10.203',-1.23
'0:10.211',-0.9
'0:10.219',-0.54
'0:10.227',-0.09
'0:10.234',-0.06
'0:10.242',-0.05
'0:10.250',-0.02
'0:10.258',0.01
'0:10.266',0.03
'0:10.273',0.04
'0:10.281',0.06
'0:10.289',0.05
'0:10.297',0.08
'0:10.305',0.08
'0:10.313',0.1
'0:10.320',0.12
'0:10.328',0.13
'0:10.336',0.14
'0:10.344',0.18
'0:10.352',0.18
'0:10.359',0.19
'0:10.367',0.23
'0:10.375',0.25
'0:10.383',0.25
'0:10.391',0.26
'0:10.398',0.27
'0:10.406',0.25
'0:10.414',0.24
'0:10.422',0.22
'0:10.430',0.2
'0:10.438',0.15
'0:10.445',0.1
'0:10.453',0.08
'0:10.461',0.05
'0:10.469',0.04
'0:10.477',0.03
'0:10.484',0.03
'0:10.492',0.03
'0:10.500',0.04
'0:10.508',0.04
'0:10.516',0.05
'0:10.523',0.05
'0:10.531',0.06
'0:10.539',0.05
'0:10.547',0.07
'0:10.555',0.05
'0:10.563',0.08
'0:10.570',0.07
'0:10.578',0.07
'0:10.586',0.08
'0:10.594',0.07
'0:10.602',0.07
'0:10.609',0.07
'0:10.617',0.07
'0:10.625',0.06
'0:10.633',0.05
'0:10.641',0.05
'0:10.648',0.05
'0:10.656',0.04
'0:10.664',0.03
'0:10.672',0.05
'0:10.680',0.03
'0:10.688',0.03
'0:10.695',0.02
'0:10.703',0.02
'0:10.711',0.02
'0:10.719',0.02
'0:10.727',0.03
'0:10.734',0.03
'0:10.742',0.02
'0:10.750',0.02
'0:10.758',0.02
'0:10.766',0.01
'0:10.773',0.01
'0:10.781',0.01
'0:10.789',0.01
'0:10.797',0.01
'0:10.805',0
'0:10.813',0
'0:10.820',0
'0:10.828',-0.01
'0:10.836',0
'0:10.844',0.02
'0:10.852',0.06
'0:10.859',0.05
'0:10.867',0.08
'0:10.875',0.1
'0:10.883',0.18
'0:10.891',0.13
'0:10.898',0.07
'0:10.906',0.01
'0:10.914',-0.1
'0:10.922',-0.1
'0:10.930',-0.09
'0:10.938',-0.08
'0:10.945',-0.08
'0:10.953',-0.06
'0:10.961',-0.09
'0:10.969',-0.08
'0:10.977',-0.07
'0:10.984',0.11
'0:10.992',0.42
'0:11.000',0.82
'0:11.008',-1.3
'0:11.016',-1.87
'0:11.023',-1.53
'0:11.031',-1.22
'0:11.039',-0.43
'0:11.047',-0.07
'0:11.055',-0.02
'0:11.063',0.01
'0:11.070',0.02
'0:11.078',0.03
'0:11.086',0.06
'0:11.094',0.08
'0:11.102',0.09
'0:11.109',0.09
'0:11.117',0.11
'0:11.125',0.13
'0:11.133',0.14
'0:11.141',0.14
'0:11.148',0.17
'0:11.156',0.16
'0:11.164',0.18
'0:11.172',0.2
'0:11.180',0.21
'0:11.188',0.23
'0:11.195',0.23
'0:11.203',0.27
'0:11.211',0.25
'0:11.219',0.26
'0:11.227',0.26
'0:11.234',0.24
'0:11.242',0.22
'0:11.250',0.19
'0:11.258',0.16
'0:11.266',0.12
'0:11.273',0.07
'0:11.281',0.04
'0:11.289',0.04
'0:11.297',0.02
'0:11.305',0.02
'0:11.313',0.03
'0:11.320',0.04
'0:11.328',0.03
'0:11.336',0.04
'0:11.344',0.04
'0:11.352',0.04
'0:11.359',0.04
'0:11.367',0.03
'0:11.375',0.03
'0:11.383',0.04
'0:11.391',0.04
'0:11.398',0.03
'0:11.406',0.05
'0:11.414',0.05
'0:11.422',0.05
'0:11.430',0.05
'0:11.438',0.05
'0:11.445',0.06
'0:11.453',0.06
'0:11.461',0.06
'0:11.469',0.04
'0:11.477',0.06
'0:11.484',0.06
'0:11.492',0.03
'0:11.500',0.05
'0:11.508',0.04
'0:11.516',0.03
'0:11.523',0.02
'0:11.531',0.02
'0:11.539',0.02
'0:11.547',0
'0:11.555',0.02
'0:11.563',0
'0:11.570',0.01
'0:11.578',0
'0:11.586',0.01
'0:11.594',0
'0:11.602',0.01
'0:11.609',0.01
'0:11.617',0.01
'0:11.625',0
'0:11.633',0
'0:11.641',0
'0:11.648',0
'0:11.656',0.01
'0:11.664',0.06
'0:11.672',0.06
'0:11.680',0.05
'0:11.688',0.1
'0:11.695',0.14
'0:11.703',0.16
'0:11.711',0.06
'0:11.719',0.03
'0:11.727',-0.08
'0:11.734',-0.12
'0:11.742',-0.11
'0:11.750',-0.09
'0:11.758',-0.08
'0:11.766',-0.08
'0:11.773',-0.1
'0:11.781',-0.09
'0:11.789',-0.1
'0:11.797',0.02
'0:11.805',0.39
'0:11.813',0.76
'0:11.820',-1.1
'0:11.828',-1.85
'0:11.836',-1.54
'0:11.844',-1.23
'0:11.852',-0.51
'0:11.859',-0.14
'0:11.867',-0.04
'0:11.875',-0.03
'0:11.883',-0.02
'0:11.891',0.03
'0:11.898',0.04
'0:11.906',0.06
'0:11.914',0.07
'0:11.922',0.09
'0:11.930',0.09
'0:11.938',0.1
'0:11.945',0.12
'0:11.953',0.13
'0:11.961',0.15
'0:11.969',0.15
'0:11.977',0.17
'0:11.984',0.19
'0:11.992',0.18
'0:12.000',0.2
'0:12.008',0.21
'0:12.016',0.23
'0:12.023',0.24
'0:12.031',0.24
'0:12.039',0.23
'0:12.047',0.21
'0:12.055',0.19
'0:12.063',0.19
'0:12.070',0.14
'0:12.078',0.09
'0:12.086',0.08
'0:12.094',0.04
'0:12.102',0.01
'0:12.109',0.02
'0:12.117',0.02
'0:12.125',0.03
'0:12.133',0.01
'0:12.141',0.03
'0:12.148',0.05
'0:12.156',0.03
'0:12.164',0.04
'0:12.172',0.05
'0:12.180',0.04
'0:12.188',0.03
'0:12.195',0.04
'0:12.203',0.05
'0:12.211',0.04
'0:12.219',0.05
'0:12.227',0.07
'0:12.234',0.06
'0:12.242',0.05
'0:12.250',0.06
'0:12.258',0.07
'0:12.266',0.07
'0:12.273',0.06
'0:12.281',0.06
'0:12.289',0.04
'0:12.297',0.03
'0:12.305',0.02
'0:12.313',0.02
'0:12.320',0
'0:12.328',-0.01
'0:12.336',0
'0:12.344',-0.01
'0:12.352',-0.02
'0:12.359',-0.03
'0:12.367',-0.04
'0:12.375',-0.04
'0:12.383',-0.05
'0:12.391',-0.03
'0:12.398',-0.04
'0:12.406',-0.05
'0:12.414',-0.06
'0:12.422',-0.06
'0:12.430',-0.07
'0:12.438',-0.08
'0:12.445',-0.07
'0:12.453',-0.09
'0:12.461',-0.09
'0:12.469',-0.08
'0:12.477',-0.05
'0:12.484',-0.01
'0:12.492',-0.04
'0:12.500',0.04
'0:12.508',0.04
'0:12.516',0.1
'0:12.523',0.01
'0:12.531',-0.03
'0:12.539',-0.07
'0:12.547',-0.19
'0:12.555',-0.16
'0:12.563',-0.17
'0:12.570',-0.14
'0:12.578',-0.14
'0:12.586',-0.13
'0:12.594',-0.13
'0:12.602',-0.14
'0:12.609',-0.11
'0:12.617',0.24
'0:12.625',0.47
'0:12.633',0.21
'0:12.641',-1.74
'0:12.648',-1.8
'0:12.656',-1.15
'0:12.664',-0.75
'0:12.672',-0.38
'0:12.680',-0.07
'0:12.688',-0.08
'0:12.695',-0.03
'0:12.703',-0.02
'0:12.711',-0.01
'0:12.719',0
'0:12.727',0.02
'0:12.734',0.04
'0:12.742',0.03
'0:12.750',0.06
'0:12.758',0.08
'0:12.766',0.09
'0:12.773',0.1
'0:12.781',0.12
'0:12.789',0.14
'0:12.797',0.12
'0:12.805',0.13
'0:12.813',0.15
'0:12.820',0.15
'0:12.828',0.16
'0:12.836',0.16
'0:12.844',0.18
'0:12.852',0.13
'0:12.859',0.14
'0:12.867',0.11
'0:12.875',0.08
'0:12.883',0.06
'0:12.891',0.08
'0:12.898',0.03
'0:12.906',0.01
'0:12.914',-0.01
'0:12.922',-0.02
'0:12.930',-0.03
'0:12.938',-0.03
'0:12.945',-0.01
'0:12.953',-0.01
'0:12.961',-0.01
'0:12.969',-0.01
'0:12.977',-0.01
'0:12.984',-0.03
'0:12.992',-0.01
'0:13.000',0.01
'0:13.008',0.02
'0:13.016',0
'0:13.023',-0.01
'0:13.031',0.01
'0:13.039',0.02
'0:13.047',0.01
'0:13.055',0.02
'0:13.063',0.02
'0:13.070',0.04
'0:13.078',0.02
'0:13.086',0.02
'0:13.094',0.01
'0:13.102',0
'0:13.109',0.02
'0:13.117',-0.01
'0:13.125',0
'0:13.133',-0.03
'0:13.141',-0.03
'0:13.148',0
'0:13.156',0
'0:13.164',-0.02
'0:13.172',-0.01
'0:13.180',-0.02
'0:13.188',-0.03
'0:13.195',-0.02
'0:13.203',-0.03
'0:13.211',-0.02
'0:13.219',-0.04
'0:13.227',-0.03
'0:13.234',-0.03
'0:13.242',-0.03
'0:13.250',-0.03
'0:13.258',-0.04
'0:13.266',-0.01
'0:13.273',0.04
'0:13.281',0
'0:13.289',0.08
'0:13.297',0.08
'0:13.305',0.16
'0:13.313',0.1
'0:13.320',0.05
'0:13.328',0
'0:13.336',-0.11
'0:13.344',-0.11
'0:13.352',-0.12
'0:13.359',-0.09
'0:13.367',-0.1
'0:13.375',-0.11
'0:13.383',-0.12
'0:13.391',-0.1
'0:13.398',-0.12
'0:13.406',0.15
'0:13.414',0.47
'0:13.422',0.69
'0:13.430',-1.18
'0:13.438',-1.54
'0:13.445',-1.19
'0:13.453',-0.85
'0:13.461',-0.53
'0:13.469',-0.09
'0:13.477',-0.06
'0:13.484',-0.03
'0:13.492',-0.01
'0:13.500',0.01
'0:13.508',0.04
'0:13.516',0.04
'0:13.523',0.05
'0:13.531',0.07
'0:13.539',0.06
'0:13.547',0.07
'0:13.555',0.09
'0:13.563',0.1
'0:13.570',0.1
'0:13.578',0.13
'0:13.586',0.13
'0:13.594',0.15
'0:13.602',0.16
'0:13.609',0.19
'0:13.617',0.2
'0:13.625',0.22
'0:13.633',0.2
'0:13.641',0.21
'0:13.648',0.21
'0:13.656',0.18
'0:13.664',0.17
'0:13.672',0.15
'0:13.680',0.11
'0:13.688',0.08
'0:13.695',0.05
'0:13.703',0.04
'0:13.711',0.03
'0:13.719',0.04
'0:13.727',0.04
'0:13.734',0.03
'0:13.742',0.03
'0:13.750',0.03
'0:13.758',0.05
'0:13.766',0.05
'0:13.773',0.05
'0:13.781',0.05
'0:13.789',0.05
'0:13.797',0.06
'0:13.805',0.07
'0:13.813',0.07
'0:13.820',0.07
'0:13.828',0.08
'0:13.836',0.07
'0:13.844',0.06
'0:13.852',0.06
'0:13.859',0.06
'0:13.867',0.06
'0:13.875',0.05
'0:13.883',0.05
'0:13.891',0.05
'0:13.898',0.04
'0:13.906',0.02
'0:13.914',0.03
'0:13.922',0.03
'0:13.930',0.01
'0:13.938',0.02
'0:13.945',0.01
'0:13.953',0
'0:13.961',0
'0:13.969',0.01
'0:13.977',-0.01
'0:13.984',-0.01
'0:13.992',0
'0:14.000',-0.02
'0:14.008',-0.02
'0:14.016',-0.03
'0:14.023',-0.01
'0:14.031',-0.03
'0:14.039',-0.03
'0:14.047',-0.03
'0:14.055',-0.04
'0:14.063',-0.04
'0:14.070',-0.03
'0:14.078',0.03
'0:14.086',0.03
'0:14.094',0.05
'0:14.102',0.06
'0:14.109',0.14
'0:14.117',0.14
'0:14.125',0.04
'0:14.133',0.02
'0:14.141',-0.07
'0:14.148',-0.12
'0:14.156',-0.1
'0:14.164',-0.09
'0:14.172',-0.07
'0:14.180',-0.08
'0:14.188',-0.08
'0:14.195',-0.07
'0:14.203',-0.07
'0:14.211',0.09
'0:14.219',0.43
'0:14.227',0.82
'0:14.234',-1.2
'0:14.242',-1.89
'0:14.250',-1.56
'0:14.258',-1.26
'0:14.266',-0.47
'0:14.273',-0.1
'0:14.281',-0.02
'0:14.289',-0.02
'0:14.297',0.03
'0:14.305',0.05
'0:14.313',0.05
'0:14.320',0.07
'0:14.328',0.09
'0:14.336',0.09
'0:14.344',0.1
'0:14.352',0.11
'0:14.359',0.13
'0:14.367',0.13
'0:14.375',0.14
'0:14.383',0.16
'0:14.391',0.19
'0:14.398',0.18
'0:14.406',0.22
'0:14.414',0.23
'0:14.422',0.24
'0:14.430',0.26
'0:14.438',0.28
'0:14.445',0.28
'0:14.453',0.26
'0:14.461',0.25
'0:14.469',0.24
'0:14.477',0.21
'0:14.484',0.15
'0:14.492',0.12
'0:14.500',0.07
'0:14.508',0.03
'0:14.516',0.01
'0:14.523',0.02
'0:14.531',0.01
'0:14.539',0.01
'0:14.547',0.02
'0:14.555',0.02
'0:14.563',0.04
'0:14.570',0.02
'0:14.578',0.03
'0:14.586',0.02
'0:14.594',0.03
'0:14.602',0.02
'0:14.609',0.04
'0:14.617',0.02
'0:14.625',0.04
'0:14.633',0.04
'0:14.641',0.04
'0:14.648',0.05
'0:14.656',0.05
'0:14.664',0.05
'0:14.672',0.06
'0:14.680',0.05
'0:14.688',0.06
'0:14.695',0.07
'0:14.703',0.05
'0:14.711',0.06
'0:14.719',0.05
'0:14.727',0.03
'0:14.734',0.02
'0:14.742',0.04
'0:14.750',0.03
'0:14.758',0.02
'0:14.766',0
'0:14.773',0
'0:14.781',0
'0:14.789',0
'0:14.797',0
'0:14.805',0.01
'0:14.813',0
'0:14.820',-0.01
'0:14.828',0
'0:14.836',0
'0:14.844',-0.01
'0:14.852',-0.01
'0:14.859',0
'0:14.867',-0.01
'0:14.875',0
'0:14.883',0.04
'0:14.891',0.06
'0:14.898',0.04
'0:14.906',0.12
'0:14.914',0.14
'0:14.922',0.18
'0:14.930',0.07
'0:14.938',0.05
'0:14.945',-0.03
'0:14.953',-0.11
'0:14.961',-0.08
'0:14.969',-0.1
'0:14.977',-0.08
'0:14.984',-0.07
'0:14.992',-0.08
'0:15.000',-0.07
'0:15.008',-0.08
'0:15.016',-0.05
'0:15.023',0.36
'0:15.031',0.55
'0:15.039',-0.24
'0:15.047',-1.83
'0:15.055',-1.83
'0:15.063',-1.17
'0:15.070',-0.62
'0:15.078',-0.26
'0:15.086',-0.02
'0:15.094',-0.02
'0:15.102',0.02
'0:15.109',0.04
'0:15.117',0.05
'0:15.125',0.06
'0:15.133',0.08
'0:15.141',0.09
'0:15.148',0.09
'0:15.156',0.1
'0:15.164',0.12
'0:15.172',0.12
'0:15.180',0.13
'0:15.188',0.15
'0:15.195',0.18
'0:15.203',0.18
'0:15.211',0.2
'0:15.219',0.22
'0:15.227',0.23
'0:15.234',0.24
'0:15.242',0.26
'0:15.250',0.26
'0:15.258',0.24
'0:15.266',0.22
'0:15.273',0.19
'0:15.281',0.17
'0:15.289',0.13
'0:15.297',0.09
'0:15.305',0.06
'0:15.313',0.03
'0:15.320',0
'0:15.328',0
'0:15.336',-0.01
'0:15.344',-0.01
'0:15.352',0
'0:15.359',0.03
'0:15.367',0
'0:15.375',0.02
'0:15.383',0.02
'0:15.391',0.01
'0:15.398',0.01
'0:15.406',0.01
'0:15.414',0.02
'0:15.422',0.02
'0:15.430',0.02
'0:15.438',0.01
'0:15.445',0.02
'0:15.453',0.01
'0:15.461',0.03
'0:15.469',0.02
'0:15.477',0.02
'0:15.484',0.02
'0:15.492',0.03
'0:15.500',0.02
'0:15.508',0
'0:15.516',0.03
'0:15.523',0
'0:15.531',0
'0:15.539',-0.02
'0:15.547',-0.01
'0:15.555',-0.04
'0:15.563',-0.03
'0:15.570',-0.03
'0:15.578',-0.04
'0:15.586',-0.03
'0:15.594',-0.05
'0:15.602',-0.05
'0:15.609',-0.04
'0:15.617',-0.04
'0:15.625',-0.04
'0:15.633',-0.04
'0:15.641',-0.03
'0:15.648',-0.03
'0:15.656',-0.02
'0:15.664',-0.01
'0:15.672',0.02
'0:15.680',0.04
'0:15.688',0.03
'0:15.695',0.1
'0:15.703',0.1
'0:15.711',0.17
'0:15.719',0.07
'0:15.727',0.04
'0:15.734',-0.05
'0:15.742',-0.1
'0:15.750',-0.09
'0:15.758',-0.11
'0:15.766',-0.07
'0:15.773',-0.06
'0:15.781',-0.08
'0:15.789',-0.08
'0:15.797',-0.09
'0:15.805',-0.07
'0:15.813',0.33
'0:15.820',0.54
'0:15.828',-0.15
'0:15.836',-1.77
'0:15.844',-1.75
'0:15.852',-1.14
'0:15.859',-0.6
'0:15.867',-0.28
'0:15.875',-0.02
'0:15.883',-0.03
'0:15.891',-0.01
'0:15.898',0.01
'0:15.906',0.04
'0:15.914',0.05
'0:15.922',0.05
'0:15.930',0.07
'0:15.938',0.06
'0:15.945',0.07
'0:15.953',0.08
'0:15.961',0.09
'0:15.969',0.11
'0:15.977',0.1
'0:15.984',0.13
'0:15.992',0.15
'0:16.000',0.14
'0:16.008',0.14
'0:16.016',0.16
'0:16.023',0.16
'0:16.031',0.17
'0:16.039',0.17
'0:16.047',0.16
'0:16.055',0.13
'0:16.063',0.12
'0:16.070',0.1
'0:16.078',0.09
'0:16.086',0.05
'0:16.094',0.02
'0:16.102',0.01
'0:16.109',0
'0:16.117',-0.01
'0:16.125',0
'0:16.133',0
'0:16.141',-0.01
'0:16.148',0.02
'0:16.156',0.04
'0:16.164',0.04
'0:16.172',0.03
'0:16.180',0.03
'0:16.188',0.03
'0:16.195',0.04
'0:16.203',0.05
'0:16.211',0.05
'0:16.219',0.05
'0:16.227',0.05
'0:16.234',0.06
'0:16.242',0.07
'0:16.250',0.05
'0:16.258',0.06
'0:16.266',0.06
'0:16.273',0.05
'0:16.281',0.05
'0:16.289',0.04
'0:16.297',0.04
'0:16.305',0.01
'0:16.313',0.03
'0:16.320',0.04
'0:16.328',0.02
'0:16.336',0.02
'0:16.344',0.01
'0:16.352',0
'0:16.359',0
'0:16.367',-0.02
'0:16.375',-0.01
'0:16.383',-0.01
'0:16.391',-0.01
'0:16.398',-0.01
'0:16.406',-0.01
'0:16.414',-0.01
'0:16.422',-0.02
'0:16.430',0
'0:16.438',-0.01
'0:16.445',-0.02
'0:16.453',0
'0:16.461',0.04
'0:16.469',0.06
'0:16.477',0.03
'0:16.484',0.11
'0:16.492',0.15
'0:16.500',0.19
'0:16.508',0.12
'0:16.516',0.09
'0:16.523',0.01
'0:16.531',-0.08
'0:16.539',-0.05
'0:16.547',-0.04
'0:16.555',-0.08
'0:16.563',-0.04
'0:16.570',-0.06
'0:16.578',-0.07
'0:16.586',-0.09
'0:16.594',-0.01
'0:16.602',0.3
'0:16.609',0.61
'0:16.617',-0.01
'0:16.625',-1.5
'0:16.633',-1.44
'0:16.641',-1.12
'0:16.648',-0.62
'0:16.656',-0.34
'0:16.664',-0.04
'0:16.672',-0.04
'0:16.680',-0.03
'0:16.688',0.01
'0:16.695',0.02
'0:16.703',0.02
'0:16.711',0.05
'0:16.719',0.04
'0:16.727',0.06
'0:16.734',0.07
'0:16.742',0.08
'0:16.750',0.07
'0:16.758',0.1
'0:16.766',0.1
'0:16.773',0.11
'0:16.781',0.13
'0:16.789',0.14
'0:16.797',0.16
'0:16.805',0.16
'0:16.813',0.18
'0:16.820',0.17
'0:16.828',0.19
'0:16.836',0.17
'0:16.844',0.18
'0:16.852',0.16
'0:16.859',0.14
'0:16.867',0.12
'0:16.875',0.11
'0:16.883',0.06
'0:16.891',0.04
'0:16.898',0.04
'0:16.906',0.02
'0:16.914',0.01
'0:16.922',0.03
'0:16.930',0.02
'0:16.938',0.03
'0:16.945',0.05
'0:16.953',0.05
'0:16.961',0.07
'0:16.969',0.06
'0:16.977',0.07
'0:16.984',0.08
'0:16.992',0.08
'0:17.000',0.09
'0:17.008',0.1
'0:17.016',0.1
'0:17.023',0.09
'0:17.031',0.09
'0:17.039',0.1
'0:17.047',0.09
'0:17.055',0.09
'0:17.063',0.09
'0:17.070',0.07
'0:17.078',0.07
'0:17.086',0.06
'0:17.094',0.07
'0:17.102',0.06
'0:17.109',0.05
'0:17.117',0.05
'0:17.125',0.04
'0:17.133',0.05
'0:17.141',0.03
'0:17.148',0.04
'0:17.156',0.02
'0:17.164',0.03
'0:17.172',0.02
'0:17.180',0.03
'0:17.188',0.03
'0:17.195',0.01
'0:17.203',0.01
'0:17.211',0.02
'0:17.219',0.01
'0:17.227',0
'0:17.234',0.01
'0:17.242',0.02
'0:17.250',0.07
'0:17.258',0.05
'0:17.266',0.11
'0:17.273',0.11
'0:17.281',0.2
'0:17.289',0.17
'0:17.297',0.08
'0:17.305',0.04
'0:17.313',-0.05
'0:17.320',-0.1
'0:17.328',-0.07
'0:17.336',-0.06
'0:17.344',-0.06
'0:17.352',-0.05
'0:17.359',-0.06
'0:17.367',-0.04
'0:17.375',-0.05
'0:17.383',0.08
'0:17.391',0.44
'0:17.398',0.77
'0:17.406',-0.85
'0:17.414',-1.85
'0:17.422',-1.67
'0:17.430',-1.23
'0:17.438',-0.5
'0:17.445',-0.14
'0:17.453',0.01
'0:17.461',0.02
'0:17.469',0.05
'0:17.477',0.08
'0:17.484',0.09
'0:17.492',0.1
'0:17.500',0.11
'0:17.508',0.12
'0:17.516',0.14
'0:17.523',0.14
'0:17.531',0.15
'0:17.539',0.17
'0:17.547',0.18
'0:17.555',0.19
'0:17.563',0.22
'0:17.570',0.23
'0:17.578',0.25
'0:17.586',0.26
'0:17.594',0.28
'0:17.602',0.3
'0:17.609',0.3
'0:17.617',0.31
'0:17.625',0.31
'0:17.633',0.29
'0:17.641',0.27
'0:17.648',0.25
'0:17.656',0.21
'0:17.664',0.16
'0:17.672',0.13
'0:17.680',0.09
'0:17.688',0.08
'0:17.695',0.04
'0:17.703',0.06
'0:17.711',0.06
'0:17.719',0.06
'0:17.727',0.08
'0:17.734',0.09
'0:17.742',0.07
'0:17.750',0.08
'0:17.758',0.07
'0:17.766',0.07
'0:17.773',0.07
'0:17.781',0.08
'0:17.789',0.07
'0:17.797',0.08
'0:17.805',0.07
'0:17.813',0.08
'0:17.820',0.09
'0:17.828',0.07
'0:17.836',0.08
'0:17.844',0.09
'0:17.852',0.09
'0:17.859',0.09
'0:17.867',0.09
'0:17.875',0.09
'0:17.883',0.07
'0:17.891',0.07
'0:17.898',0.06
'0:17.906',0.05
'0:17.914',0.03
'0:17.922',0.04
'0:17.930',0.02
'0:17.938',0.02
'0:17.945',0.01
'0:17.953',0.01
'0:17.961',0
'0:17.969',0
'0:17.977',0
'0:17.984',0
'0:17.992',0
'0:18.000',-0.02
'0:18.008',-0.01
'0:18.016',-0.02
'0:18.023',-0.01
'0:18.031',0
'0:18.039',0.04
'0:18.047',0.06
'0:18.055',0.04
'0:18.063',0.12
'0:18.070',0.12
'0:18.078',0.18
'0:18.086',0.08
'0:18.094',0.04
'0:18.102',-0.05
'0:18.109',-0.14
'0:18.117',-0.11
'0:18.125',-0.12
'0:18.133',-0.1
'0:18.141',-0.09
'0:18.148',-0.1
'0:18.156',-0.09
'0:18.164',-0.11
'0:18.172',-0.09
'0:18.180',0.26
'0:18.188',0.45
'0:18.195',0.37
'0:18.203',-1.82
'0:18.211',-1.94
'0:18.219',-1.19
'0:18.227',-0.84
'0:18.234',-0.36
'0:18.242',-0.03
'0:18.250',-0.04
'0:18.258',-0.02
'0:18.266',0
'0:18.273',0.04
'0:18.281',0.05
'0:18.289',0.06
'0:18.297',0.08
'0:18.305',0.07
'0:18.313',0.08
'0:18.320',0.09
'0:18.328',0.1
'0:18.336',0.11
'0:18.344',0.14
'0:18.352',0.14
'0:18.359',0.15
'0:18.367',0.17
'0:18.375',0.19
'0:18.383',0.19
'0:18.391',0.21
'0:18.398',0.22
'0:18.406',0.22
'0:18.414',0.21
'0:18.422',0.2
'0:18.430',0.19
'0:18.438',0.16
'0:18.445',0.13
'0:18.453',0.1
'0:18.461',0.05
'0:18.469',0.01
'0:18.477',0.01
'0:18.484',-0.01
'0:18.492',-0.01
'0:18.500',-0.01
'0:18.508',0.01
'0:18.516',0.01
'0:18.523',0.01
'0:18.531',0.01
'0:18.539',0.02
'0:18.547',0
'0:18.555',0.01
'0:18.563',0.01
'0:18.570',0.01
'0:18.578',0.01
'0:18.586',0.01
'0:18.594',0.02
'0:18.602',0.03
'0:18.609',0.04
'0:18.617',0.03
'0:18.625',0.04
'0:18.633',0.03
'0:18.641',0.04
'0:18.648',0.05
'0:18.656',0.04
'0:18.664',0.02
'0:18.672',0.03
'0:18.680',0.03
'0:18.688',0.02
'0:18.695',0.02
'0:18.703',0.03
'0:18.711',0.01
'0:18.719',0.01
'0:18.727',0.01
'0:18.734',0
'0:18.742',0
'0:18.750',-0.01
'0:18.758',-0.01
'0:18.766',-0.01
'0:18.773',-0.03
'0:18.781',-0.01
'0:18.789',-0.02
'0:18.797',-0.02
'0:18.805',-0.03
'0:18.813',-0.01
'0:18.820',0.04
'0:18.828',0.05
'0:18.836',0.05
'0:18.844',0.1
'0:18.852',0.2
'0:18.859',0.14
'0:18.867',0.09
'0:18.875',0.05
'0:18.883',-0.08
'0:18.891',-0.09
'0:18.898',-0.1
'0:18.906',-0.09
'0:18.914',-0.08
'0:18.922',-0.09
'0:18.930',-0.1
'0:18.938',-0.1
'0:18.945',-0.1
'0:18.953',0.05
'0:18.961',0.38
'0:18.969',0.72
'0:18.977',-1.19
'0:18.984',-1.87
'0:18.992',-1.49
'0:19.000',-1.23
'0:19.008',-0.5
'0:19.016',-0.14
'0:19.023',-0.07
'0:19.031',-0.06
'0:19.039',-0.05
'0:19.047',-0.01
'0:19.055',0.01
'0:19.063',0.02
'0:19.070',0.01
'0:19.078',0.03
'0:19.086',0.04
'0:19.094',0.05
'0:19.102',0.07
'0:19.109',0.07
'0:19.117',0.09
'0:19.125',0.1
'0:19.133',0.1
'0:19.141',0.12
'0:19.148',0.14
'0:19.156',0.15
'0:19.164',0.16
'0:19.172',0.17
'0:19.180',0.14
'0:19.188',0.16
'0:19.195',0.16
'0:19.203',0.14
'0:19.211',0.11
'0:19.219',0.1
'0:19.227',0.08
'0:19.234',0.06
'0:19.242',0.02
'0:19.250',-0.01
'0:19.258',0
'0:19.266',0
'0:19.273',0
'0:19.281',0
'0:19.289',0
'0:19.297',0.02
'0:19.305',0.01
'0:19.313',0.04
'0:19.320',0.03
'0:19.328',0.03
'0:19.336',0.01
'0:19.344',0.04
'0:19.352',0.03
'0:19.359',0.03
'0:19.367',0.03
'0:19.375',0.03
'0:19.383',0.02
'0:19.391',0.03
'0:19.398',0.03
'0:19.406',0.02
'0:19.414',0.03
'0:19.422',0.03
'0:19.430',0.01
'0:19.438',0.02
'0:19.445',-0.01
'0:19.453',0.02
'0:19.461',0.01
'0:19.469',-0.01
'0:19.477',-0.02
'0:19.484',-0.02
'0:19.492',-0.03
'0:19.500',-0.04
'0:19.508',-0.04
'0:19.516',-0.04
'0:19.523',-0.06
'0:19.531',-0.04
'0:19.539',-0.06
'0:19.547',-0.04
'0:19.555',-0.06
'0:19.563',-0.06
'0:19.570',-0.06
'0:19.578',-0.06
'0:19.586',-0.07
'0:19.594',-0.06
'0:19.602',-0.02
'0:19.609',0.01
'0:19.617',-0.01
'0:19.625',0.07
'0:19.633',0.09
'0:19.641',0.12
'0:19.648',0.1
'0:19.656',0.03
'0:19.664',-0.02
'0:19.672',-0.11
'0:19.680',-0.13
'0:19.688',-0.11
'0:19.695',-0.12
'0:19.703',-0.12
'0:19.711',-0.13
'0:19.719',-0.12
'0:19.727',-0.15
'0:19.734',-0.15
'0:19.742',0.15
'0:19.750',0.45
'0:19.758',0.57
'0:19.766',-1.34
'0:19.773',-1.58
'0:19.781',-1.2
'0:19.789',-0.86
'0:19.797',-0.57
'0:19.805',-0.13
'0:19.813',-0.1
'0:19.820',-0.06
'0:19.828',-0.07
'0:19.836',-0.04
'0:19.844',-0.04
'0:19.852',-0.01
'0:19.859',-0.01
'0:19.867',0.01
'0:19.875',0.01
'0:19.883',0.02
'0:19.891',0.03
'0:19.898',0.05
'0:19.906',0.06
'0:19.914',0.06
'0:19.922',0.09
'0:19.930',0.1
'0:19.938',0.1
'0:19.945',0.12
'0:19.953',0.12
'0:19.961',0.13
'0:19.969',0.13
'0:19.977',0.12
'0:19.984',0.16
'0:19.992',0.14
'0:20.000',0.12
'0:20.008',0.09
'0:20.016',0.08
'0:20.023',0.07
'0:20.031',0.02
'0:20.039',0.01
'0:20.047',0
'0:20.055',-0.02
'0:20.063',-0.03
'0:20.070',-0.02
'0:20.078',-0.03
'0:20.086',-0.03
'0:20.094',-0.01
'0:20.102',0
'0:20.109',-0.02
'0:20.117',-0.01
'0:20.125',0.02
'0:20.133',0.02
'0:20.141',0.02
'0:20.148',0.02
'0:20.156',0.03
'0:20.164',0.02
'0:20.172',0.01
'0:20.180',0.02
'0:20.188',0.02
'0:20.195',0.01
'0:20.203',0.01
'0:20.211',0
'0:20.219',-0.01
'0:20.227',-0.01
'0:20.234',0.01
'0:20.242',0
'0:20.250',-0.02
'0:20.258',0
'0:20.266',-0.02
'0:20.273',-0.02
'0:20.281',-0.03
'0:20.289',-0.02
'0:20.297',-0.02
'0:20.305',-0.03
'0:20.313',-0.02
'0:20.320',-0.04
'0:20.328',-0.02
'0:20.336',-0.03
'0:20.344',-0.02
'0:20.352',-0.02
'0:20.359',0.04
'0:20.367',0.02
'0:20.375',0.07
'0:20.383',0.09
'0:20.391',0.18
'0:20.398',0.12
'0:20.406',0.1
'0:20.414',0.03
'0:20.422',-0.07
'0:20.430',-0.08
'0:20.438',-0.08
'0:20.445',-0.09
'0:20.453',-0.07
'0:20.461',-0.08
'0:20.469',-0.08
'0:20.477',-0.09
'0:20.484',-0.06
'0:20.492',0.23
'0:20.500',0.54
'0:20.508',0.69
'0:20.516',-1.64
'0:20.523',-1.92
'0:20.531',-1.37
'0:20.539',-1.1
'0:20.547',-0.48
'0:20.555',-0.05
'0:20.563',-0.03
'0:20.570',0
'0:20.578',0.02
'0:20.586',0.02
'0:20.594',0.06
'0:20.602',0.07
'0:20.609',0.07
'0:20.617',0.07
'0:20.625',0.09
'0:20.633',0.1
'0:20.641',0.12
'0:20.648',0.14
'0:20.656',0.16
'0:20.664',0.18
'0:20.672',0.19
'0:20.680',0.22
'0:20.688',0.24
'0:20.695',0.25
'0:20.703',0.27
'0:20.711',0.29
'0:20.719',0.29
'0:20.727',0.29
'0:20.734',0.29
'0:20.742',0.26
'0:20.750',0.25
'0:20.758',0.21
'0:20.766',0.17
'0:20.773',0.12
'0:20.781',0.07
'0:20.789',0.04
'0:20.797',0.04
'0:20.805',0.01
'0:20.813',0.02
'0:20.820',0.02
'0:20.828',0.03
'0:20.836',0.01
'0:20.844',0.04
'0:20.852',0.03
'0:20.859',0.04
'0:20.867',0.03
'0:20.875',0.03
'0:20.883',0.04
'0:20.891',0.03
'0:20.898',0.05
'0:20.906',0.06
'0:20.914',0.06
'0:20.922',0.06
'0:20.930',0.07
'0:20.938',0.07
'0:20.945',0.07
'0:20.953',0.07
'0:20.961',0.08
'0:20.969',0.06
'0:20.977',0.06
'0:20.984',0.06
'0:20.992',0.05
'0:21.000',0.05
'0:21.008',0.05
'0:21.016',0.04
'0:21.023',0.04
'0:21.031',0.03
'0:21.039',0.03
'0:21.047',0.02
'0:21.055',0
'0:21.063',0.02
'0:21.070',0
'0:21.078',0
'0:21.086',-0.01
'0:21.094',0
'0:21.102',-0.02
'0:21.109',0
'0:21.117',0
'0:21.125',0.04
'0:21.133',0.06
'0:21.141',0.04
'0:21.148',0.09
'0:21.156',0.19
'0:21.164',0.14
'0:21.172',0.1
'0:21.180',0.06
'0:21.188',-0.06
'0:21.195',-0.11
'0:21.203',-0.08
'0:21.211',-0.07
'0:21.219',-0.07
'0:21.227',-0.08
'0:21.234',-0.08
'0:21.242',-0.09
'0:21.250',-0.09
'0:21.258',0.04
'0:21.266',0.41
'0:21.273',0.71
'0:21.281',-1.08
'0:21.289',-1.98
'0:21.297',-1.71
'0:21.305',-1.3
'0:21.313',-0.5
'0:21.320',-0.15
'0:21.328',-0.03
'0:21.336',-0.03
'0:21.344',0.01
'0:21.352',0.02
'0:21.359',0.05
'0:21.367',0.07
'0:21.375',0.08
'0:21.383',0.09
'0:21.391',0.09
'0:21.398',0.1
'0:21.406',0.12
'0:21.414',0.13
'0:21.422',0.14
'0:21.430',0.17
'0:21.438',0.18
'0:21.445',0.18
'0:21.453',0.2
'0:21.461',0.22
'0:21.469',0.24
'0:21.477',0.26
'0:21.484',0.27
'0:21.492',0.25
'0:21.500',0.23
'0:21.508',0.24
'0:21.516',0.21
'0:21.523',0.18
'0:21.531',0.15
'0:21.539',0.1
'0:21.547',0.06
'0:21.555',0.03
'0:21.563',0.01
'0:21.570',0
'0:21.578',0
'0:21.586',0
'0:21.594',0.02
'0:21.602',0.02
'0:21.609',0.01
'0:21.617',0.03
'0:21.625',0.04
'0:21.633',0.02
'0:21.641',0.01
'0:21.648',0.03
'0:21.656',0.02
'0:21.664',0.02
'0:21.672',0.04
'0:21.680',0.04
'0:21.688',0.05
'0:21.695',0.05
'0:21.703',0.06
'0:21.711',0.06
'0:21.719',0.07
'0:21.727',0.06
'0:21.734',0.06
'0:21.742',0.06
'0:21.750',0.06
'0:21.758',0.06
'0:21.766',0.06
'0:21.773',0.03
'0:21.781',0.04
'0:21.789',0.03
'0:21.797',0.03
'0:21.805',0.01
'0:21.813',0.01
'0:21.820',0.01
'0:21.828',0.02
'0:21.836',-0.01
'0:21.844',0
'0:21.852',-0.01
'0:21.859',-0.01
'0:21.867',-0.01
'0:21.875',0.01
'0:21.883',0.02
'0:21.891',0.06
'0:21.898',0.04
'0:21.906',0.1
'0:21.914',0.18
'0:21.922',0.15
'0:21.930',0.13
'0:21.938',0.05
'0:21.945',-0.05
'0:21.953',-0.08
'0:21.961',-0.11
'0:21.969',-0.08
'0:21.977',-0.09
'0:21.984',-0.09
'0:21.992',-0.1
'0:22.000',-0.1
'0:22.008',-0.11
'0:22.016',-0.05
'0:22.023',0.32
'0:22.031',0.56
'0:22.039',-0.61
'0:22.047',-1.93
'0:22.055',-1.86
'0:22.063',-1.27
'0:22.070',-0.6
'0:22.078',-0.25
'0:22.086',-0.05
'0:22.094',-0.04
'0:22.102',0
'0:22.109',0
'0:22.117',0.04
'0:22.125',0.04
'0:22.133',0.06
'0:22.141',0.05
'0:22.148',0.08
'0:22.156',0.1
'0:22.164',0.1
'0:22.172',0.09
'0:22.180',0.11
'0:22.188',0.13
'0:22.195',0.13
'0:22.203',0.15
'0:22.211',0.16
'0:22.219',0.18
'0:22.227',0.19
'0:22.234',0.2
'0:22.242',0.2
'0:22.250',0.2
'0:22.258',0.18
'0:22.266',0.17
'0:22.273',0.14
'0:22.281',0.11
'0:22.289',0.09
'0:22.297',0.04
'0:22.305',0.02
'0:22.313',-0.01
'0:22.320',-0.03
'0:22.328',-0.05
'0:22.336',-0.03
'0:22.344',-0.02
'0:22.352',-0.01
'0:22.359',-0.01
'0:22.367',-0.01
'0:22.375',-0.01
'0:22.383',0
'0:22.391',0
'0:22.398',0
'0:22.406',0
'0:22.414',-0.01
'0:22.422',0
'0:22.430',0.01
'0:22.438',0.02
'0:22.445',0.01
'0:22.453',0.03
'0:22.461',0.03
'0:22.469',0.02
'0:22.477',0.02
'0:22.484',0.03
'0:22.492',0.02
'0:22.500',0.02
'0:22.508',0.02
'0:22.516',0.02
'0:22.523',0.01
'0:22.531',-0.01
'0:22.539',-0.01
'0:22.547',0
'0:22.555',0
'0:22.563',-0.03
'0:22.570',-0.01
'0:22.578',-0.03
'0:22.586',-0.04
'0:22.594',-0.03
'0:22.602',-0.04
'0:22.609',-0.04
'0:22.617',-0.06
'0:22.625',-0.04
'0:22.633',-0.05
'0:22.641',-0.05
'0:22.648',-0.05
'0:22.656',-0.03
'0:22.664',0.01
'0:22.672',0.01
'0:22.680',0
'0:22.688',0.07
'0:22.695',0.14
'0:22.703',0.12
'0:22.711',0.07
'0:22.719',0.04
'0:22.727',-0.06
'0:22.734',-0.12
'0:22.742',-0.12
'0:22.750',-0.12
'0:22.758',-0.12
'0:22.766',-0.12
'0:22.773',-0.14
'0:22.781',-0.15
'0:22.789',-0.15
'0:22.797',-0.1
'0:22.805',0.27
'0:22.813',0.51
'0:22.820',-0.28
'0:22.828',-1.83
'0:22.836',-1.72
'0:22.844',-1.26
'0:22.852',-0.65
'0:22.859',-0.31
'0:22.867',-0.09
'0:22.875',-0.08
'0:22.883',-0.05
'0:22.891',-0.03
'0:22.898',-0.02
'0:22.906',0
'0:22.914',0.01
'0:22.922',0.03
'0:22.930',0.02
'0:22.938',0.04
'0:22.945',0.05
'0:22.953',0.05
'0:22.961',0.07
'0:22.969',0.09
'0:22.977',0.1
'0:22.984',0.09
'0:22.992',0.1
'0:23.000',0.12
'0:23.008',0.13
'0:23.016',0.14
'0:23.023',0.14
'0:23.031',0.15
'0:23.039',0.14
'0:23.047',0.11
'0:23.055',0.11
'0:23.063',0.1
'0:23.070',0.11
'0:23.078',0.07
'0:23.086',0.04
'0:23.094',0.02
'0:23.102',0
'0:23.109',0
'0:23.117',0
'0:23.125',-0.03
'0:23.133',-0.02
'0:23.141',0
'0:23.148',-0.02
'0:23.156',0
'0:23.164',0
'0:23.172',-0.02
'0:23.180',0
'0:23.188',0
'0:23.195',0
'0:23.203',0.01
'0:23.211',-0.01
'0:23.219',0.02
'0:23.227',0.01
'0:23.234',0.01
'0:23.242',0
'0:23.250',0.01
'0:23.258',0.01
'0:23.266',0
'0:23.273',0.01
'0:23.281',-0.02
'0:23.289',-0.02
'0:23.297',-0.01
'0:23.305',-0.03
'0:23.313',-0.03
'0:23.320',-0.04
'0:23.328',-0.03
'0:23.336',-0.05
'0:23.344',-0.06
'0:23.352',-0.05
'0:23.359',-0.05
'0:23.367',-0.09
'0:23.375',-0.06
'0:23.383',-0.07
'0:23.391',-0.08
'0:23.398',-0.07
'0:23.406',-0.06
'0:23.414',-0.03
'0:23.422',-0.04
'0:23.430',0.01
'0:23.438',0.04
'0:23.445',0.1
'0:23.453',0.07
'0:23.461',0.02
'0:23.469',-0.02
'0:23.477',-0.13
'0:23.484',-0.13
'0:23.492',-0.13
'0:23.500',-0.16
'0:23.508',-0.17
'0:23.516',-0.17
'0:23.523',-0.16
'0:23.531',-0.19
'0:23.539',-0.17
'0:23.547',0.14
'0:23.555',0.5
'0:23.563',0.25
'0:23.570',-1.55
'0:23.578',-1.6
'0:23.586',-1.33
'0:23.594',-0.8
'0:23.602',-0.51
'0:23.609',-0.12
'0:23.617',-0.13
'0:23.625',-0.08
'0:23.633',-0.07
'0:23.641',-0.05
'0:23.648',-0.03
'0:23.656',-0.01
'0:23.664',-0.01
'0:23.672',0.01
'0:23.680',0.03
'0:23.688',0.03
'0:23.695',0.05
'0:23.703',0.07
'0:23.711',0.08
'0:23.719',0.1
'0:23.727',0.14
'0:23.734',0.14
'0:23.742',0.17
'0:23.750',0.19
'0:23.758',0.21
'0:23.766',0.23
'0:23.773',0.24
'0:23.781',0.24
'0:23.789',0.24
'0:23.797',0.22
'0:23.805',0.21
'0:23.813',0.18
'0:23.820',0.15
'0:23.828',0.11
'0:23.836',0.09
'0:23.844',0.07
'0:23.852',0.04
'0:23.859',0.03
'0:23.867',0.01
'0:23.875',0.02
'0:23.883',0.02
'0:23.891',0.03
'0:23.898',0.02
'0:23.906',0.03
'0:23.914',0.02
'0:23.922',0.03
'0:23.930',0.06
'0:23.938',0.07
'0:23.945',0.05
'0:23.953',0.07
'0:23.961',0.07
'0:23.969',0.07
'0:23.977',0.06
'0:23.984',0.06
'0:23.992',0.07
'0:24.000',0.04
'0:24.008',0.05
'0:24.016',0.02
'0:24.023',0.02
'0:24.031',0.01
'0:24.039',0.02
'0:24.047',0.01
'0:24.055',0
'0:24.063',-0.01
'0:24.070',-0.01
'0:24.078',-0.02
'0:24.086',-0.03
'0:24.094',-0.01
'0:24.102',-0.02
'0:24.109',-0.02
'0:24.117',-0.03
'0:24.125',-0.02
'0:24.133',-0.04
'0:24.141',-0.03
'0:24.148',-0.03
'0:24.156',-0.02
'0:24.164',-0.03
'0:24.172',-0.02
'0:24.180',0.04
'0:24.188',0.01
'0:24.195',0.07
'0:24.203',0.1
'0:24.211',0.15
'0:24.219',0.11
'0:24.227',0.02
'0:24.234',-0.01
'0:24.242',-0.09
'0:24.250',-0.11
'0:24.258',-0.11
'0:24.266',-0.09
'0:24.273',-0.1
'0:24.281',-0.11
'0:24.289',-0.09
'0:24.297',-0.1
'0:24.305',-0.07
'0:24.313',0.31
'0:24.320',0.46
'0:24.328',0.19
'0:24.336',-1.98
'0:24.344',-2.14
'0:24.352',-1.28
'0:24.359',-0.89
'0:24.367',-0.32
'0:24.375',-0.01
'0:24.383',0
'0:24.391',0.03
'0:24.398',0.05
'0:24.406',0.09
'0:24.414',0.09
'0:24.422',0.1
'0:24.430',0.13
'0:24.438',0.13
'0:24.445',0.15
'0:24.453',0.18
'0:24.461',0.18
'0:24.469',0.19
'0:24.477',0.22
'0:24.484',0.23
'0:24.492',0.26
'0:24.500',0.28
'0:24.508',0.3
'0:24.516',0.31
'0:24.523',0.33
'0:24.531',0.34
'0:24.539',0.35
'0:24.547',0.36
'0:24.555',0.33
'0:24.563',0.32
'0:24.570',0.29
'0:24.578',0.25
'0:24.586',0.2
'0:24.594',0.15
'0:24.602',0.1
'0:24.609',0.08
'0:24.617',0.06
'0:24.625',0.06
'0:24.633',0.04
'0:24.641',0.05
'0:24.648',0.07
'0:24.656',0.06
'0:24.664',0.07
'0:24.672',0.06
'0:24.680',0.05
'0:24.688',0.05
'0:24.695',0.06
'0:24.703',0.05
'0:24.711',0.07
'0:24.719',0.06
'0:24.727',0.06
'0:24.734',0.07
'0:24.742',0.08
'0:24.750',0.07
'0:24.758',0.08
'0:24.766',0.1
'0:24.773',0.08
'0:24.781',0.1
'0:24.789',0.09
'0:24.797',0.1
'0:24.805',0.09
'0:24.813',0.1
'0:24.820',0.08
'0:24.828',0.08
'0:24.836',0.06
'0:24.844',0.04
'0:24.852',0.06
'0:24.859',0.04
'0:24.867',0.04
'0:24.875',0.04
'0:24.883',0.02
'0:24.891',0.01
'0:24.898',0.02
'0:24.906',0.01
'0:24.914',0.01
'0:24.922',0.01
'0:24.930',0.04
'0:24.938',0.07
'0:24.945',0.05
'0:24.953',0.11
'0:24.961',0.14
'0:24.969',0.2
'0:24.977',0.15
'0:24.984',0.08
'0:24.992',0.02
'0:25.000',-0.08
'0:25.008',-0.08
'0:25.016',-0.07
'0:25.023',-0.07
'0:25.031',-0.06
'0:25.039',-0.07
'0:25.047',-0.08
'0:25.055',-0.07
'0:25.063',-0.03
'0:25.070',0.28
'0:25.078',0.49
'0:25.086',0.39
'0:25.094',-1.88
'0:25.102',-2.03
'0:25.109',-1.2
'0:25.117',-0.89
'0:25.125',-0.32
'0:25.133',0.01
'0:25.141',0.01
'0:25.148',0.03
'0:25.156',0.05
'0:25.164',0.08
'0:25.172',0.07
'0:25.180',0.11
'0:25.188',0.1
'0:25.195',0.1
'0:25.203',0.13
'0:25.211',0.12
'0:25.219',0.14
'0:25.227',0.16
'0:25.234',0.18
'0:25.242',0.18
'0:25.250',0.2
'0:25.258',0.23
'0:25.266',0.23
'0:25.273',0.26
'0:25.281',0.28
'0:25.289',0.27
'0:25.297',0.28
'0:25.305',0.26
'0:25.313',0.26
'0:25.320',0.23
'0:25.328',0.23
'0:25.336',0.17
'0:25.344',0.16
'0:25.352',0.11
'0:25.359',0.07
'0:25.367',0.06
'0:25.375',0.05
'0:25.383',0.05
'0:25.391',0.04
'0:25.398',0.06
'0:25.406',0.05
'0:25.414',0.07
'0:25.422',0.06
'0:25.430',0.08
'0:25.438',0.05
'0:25.445',0.07
'0:25.453',0.07
'0:25.461',0.07
'0:25.469',0.07
'0:25.477',0.08
'0:25.484',0.08
'0:25.492',0.1
'0:25.500',0.08
'0:25.508',0.09
'0:25.516',0.11
'0:25.523',0.09
'0:25.531',0.11
'0:25.539',0.11
'0:25.547',0.1
'0:25.555',0.07
'0:25.563',0.09
'0:25.570',0.08
'0:25.578',0.08
'0:25.586',0.06
'0:25.594',0.06
'0:25.602',0.03
'0:25.609',0.03
'0:25.617',0.02
'0:25.625',0.04
'0:25.633',0.02
'0:25.641',0.03
'0:25.648',0.02
'0:25.656',0.02
'0:25.664',0
'0:25.672',0.02
'0:25.680',0.02
'0:25.688',0.01
'0:25.695',0.03
'0:25.703',0.02
'0:25.711',0.02
'0:25.719',0.01
'0:25.727',0.03
'0:25.734',0.08
'0:25.742',0.05
'0:25.750',0.11
'0:25.758',0.11
'0:25.766',0.21
'0:25.773',0.13
'0:25.781',0.07
'0:25.789',0.03
'0:25.797',-0.09
'0:25.805',-0.1
'0:25.813',-0.09
'0:25.820',-0.06
'0:25.828',-0.06
'0:25.836',-0.07
'0:25.844',-0.06
'0:25.852',-0.07
'0:25.859',-0.06
'0:25.867',0.2
'0:25.875',0.46
'0:25.883',0.68
'0:25.891',-1.71
'0:25.898',-1.95
'0:25.906',-1.22
'0:25.914',-0.97
'0:25.922',-0.39
'0:25.930',-0.03
'0:25.938',-0.06
'0:25.945',-0.01
'0:25.953',0.02
'0:25.961',0.04
'0:25.969',0.04
'0:25.977',0.05
'0:25.984',0.06
'0:25.992',0.06
'0:26.000',0.09
'0:26.008',0.1
'0:26.016',0.11
'0:26.023',0.12
'0:26.031',0.14
'0:26.039',0.13
'0:26.047',0.13
'0:26.055',0.13
'0:26.063',0.16
'0:26.070',0.15
'0:26.078',0.17
'0:26.086',0.17
'0:26.094',0.16
'0:26.102',0.16
'0:26.109',0.14
'0:26.117',0.13
'0:26.125',0.1
'0:26.133',0.07
'0:26.141',0.06
'0:26.148',0.02
'0:26.156',0
'0:26.164',0.01
'0:26.172',-0.02
'0:26.180',-0.02
'0:26.188',-0.02
'0:26.195',0
'0:26.203',0.01
'0:26.211',0.03
'0:26.219',0.03
'0:26.227',0.01
'0:26.234',0.01
'0:26.242',0.01
'0:26.250',0.01
'0:26.258',0.02
'0:26.266',0.01
'0:26.273',0.01
'0:26.281',0.03
'0:26.289',0.03
'0:26.297',0.03
'0:26.305',0.06
'0:26.313',0.05
'0:26.320',0.04
'0:26.328',0.03
'0:26.336',0.03
'0:26.344',0.02
'0:26.352',0.03
'0:26.359',0.03
'0:26.367',0.01
'0:26.375',0.01
'0:26.383',0
'0:26.391',-0.02
'0:26.398',0
'0:26.406',-0.02
'0:26.414',-0.01
'0:26.422',-0.01
'0:26.430',-0.03
'0:26.438',-0.04
'0:26.445',-0.05
'0:26.453',-0.06
'0:26.461',-0.04
'0:26.469',-0.05
'0:26.477',-0.06
'0:26.484',-0.06
'0:26.492',-0.07
'0:26.500',-0.02
'0:26.508',0.02
'0:26.516',-0.03
'0:26.523',0.05
'0:26.531',0.06
'0:26.539',0.13
'0:26.547',0.05
'0:26.555',0.01
'0:26.563',-0.03
'0:26.570',-0.14
'0:26.578',-0.11
'0:26.586',-0.12
'0:26.594',-0.11
'0:26.602',-0.12
'0:26.609',-0.12
'0:26.617',-0.12
'0:26.625',-0.12
'0:26.633',-0.12
'0:26.641',0.2
'0:26.648',0.54
'0:26.656',0.33
'0:26.664',-1.56
'0:26.672',-1.59
'0:26.680',-1.22
'0:26.688',-0.74
'0:26.695',-0.44
'0:26.703',-0.06
'0:26.711',-0.07
'0:26.719',-0.03
'0:26.727',-0.01
'0:26.734',0.01
'0:26.742',0.02
'0:26.750',0.04
'0:26.758',0.05
'0:26.766',0.06
'0:26.773',0.06
'0:26.781',0.08
'0:26.789',0.08
'0:26.797',0.1
'0:26.805',0.1
'0:26.813',0.14
'0:26.820',0.14
'0:26.828',0.15
'0:26.836',0.18
'0:26.844',0.19
'0:26.852',0.19
'0:26.859',0.22
'0:26.867',0.22
'0:26.875',0.21
'0:26.883',0.2
'0:26.891',0.19
'0:26.898',0.17
'0:26.906',0.13
'0:26.914',0.1
'0:26.922',0.08
'0:26.930',0.04
'0:26.938',0.01
'0:26.945',0.01
'0:26.953',0
'0:26.961',-0.01
'0:26.969',0
'0:26.977',0
'0:26.984',0.01
'0:26.992',0.01
'0:27.000',0
'0:27.008',0.02
'0:27.016',0.04
'0:27.023',0.03
'0:27.031',0.04
'0:27.039',0.05
'0:27.047',0.04
'0:27.055',0.04
'0:27.063',0.06
'0:27.070',0.04
'0:27.078',0.06
'0:27.086',0.05
'0:27.094',0.05
'0:27.102',0.04
'0:27.109',0.03
'0:27.117',0.04
'0:27.125',0.03
'0:27.133',0.02
'0:27.141',0.02
'0:27.148',0.03
'0:27.156',0.02
'0:27.164',0.01
'0:27.172',0.03
'0:27.180',0.02
'0:27.188',0
'0:27.195',0.02
'0:27.203',0.02
'0:27.211',0
'0:27.219',0.01
'0:27.227',0.01
'0:27.234',-0.01
'0:27.242',-0.02
'0:27.250',-0.02
'0:27.258',-0.03
'0:27.266',-0.02
'0:27.273',0.02
'0:27.281',0.03
'0:27.289',0.03
'0:27.297',0.08
'0:27.305',0.11
'0:27.313',0.12
'0:27.320',0.04
'0:27.328',-0.01
'0:27.336',-0.08
'0:27.344',-0.14
'0:27.352',-0.13
'0:27.359',-0.13
'0:27.367',-0.1
'0:27.375',-0.12
'0:27.383',-0.12
'0:27.391',-0.1
'0:27.398',-0.12
'0:27.406',-0.05
'0:27.414',0.33
'0:27.422',0.53
'0:27.430',-0.45
'0:27.438',-2
'0:27.445',-2.01
'0:27.453',-1.27
'0:27.461',-0.66
'0:27.469',-0.26
'0:27.477',-0.04
'0:27.484',-0.03
'0:27.492',-0.01
'0:27.500',0.01
'0:27.508',0.04
'0:27.516',0.05
'0:27.523',0.04
'0:27.531',0.07
'0:27.539',0.07
'0:27.547',0.08
'0:27.555',0.08
'0:27.563',0.11
'0:27.570',0.12
'0:27.578',0.14
'0:27.586',0.15
'0:27.594',0.17
'0:27.602',0.19
'0:27.609',0.19
'0:27.617',0.23
'0:27.625',0.24
'0:27.633',0.25
'0:27.641',0.25
'0:27.648',0.25
'0:27.656',0.22
'0:27.664',0.2
'0:27.672',0.18
'0:27.680',0.14
'0:27.688',0.1
'0:27.695',0.06
'0:27.703',0.03
'0:27.711',0
'0:27.719',-0.01
'0:27.727',-0.01
'0:27.734',0
'0:27.742',0.01
'0:27.750',0.03
'0:27.758',0.03
'0:27.766',0.02
'0:27.773',0.02
'0:27.781',0.02
'0:27.789',0.02
'0:27.797',0.03
'0:27.805',0.01
'0:27.813',0.03
'0:27.820',0.03
'0:27.828',0.03
'0:27.836',0.04
'0:27.844',0.03
'0:27.852',0.04
'0:27.859',0.04
'0:27.867',0.04
'0:27.875',0.04
'0:27.883',0.04
'0:27.891',0.04
'0:27.898',0.05
'0:27.906',0.03
'0:27.914',0.03
'0:27.922',0.03
'0:27.930',0.01
'0:27.938',0.01
'0:27.945',-0.01
'0:27.953',0
'0:27.961',-0.03
'0:27.969',-0.03
'0:27.977',-0.03
'0:27.984',-0.03
'0:27.992',-0.04
'0:28.000',-0.03
'0:28.008',-0.04
'0:28.016',-0.04
'0:28.023',-0.05
'0:28.031',-0.01
'0:28.039',0.03
'0:28.047',0.01
'0:28.055',0.07
'0:28.063',0.07
'0:28.070',0.15
'0:28.078',0.07
'0:28.086',0.02
'0:28.094',-0.03
'0:28.102',-0.13
'0:28.109',-0.14
'0:28.117',-0.12
'0:28.125',-0.1
'0:28.133',-0.1
'0:28.141',-0.12
'0:28.148',-0.1
'0:28.156',-0.12
'0:28.164',-0.11
'0:28.172',0.15
'0:28.180',0.41
'0:28.188',0.71
'0:28.195',-1.66
'0:28.203',-1.99
'0:28.211',-1.37
'0:28.219',-1.16
'0:28.227',-0.45
'0:28.234',-0.08
'0:28.242',-0.07
'0:28.250',-0.05
'0:28.258',-0.03
'0:28.266',0.01
'0:28.273',0.01
'0:28.281',0.04
'0:28.289',0.04
'0:28.297',0.04
'0:28.305',0.07
'0:28.313',0.08
'0:28.320',0.08
'0:28.328',0.09
'0:28.336',0.11
'0:28.344',0.12
'0:28.352',0.14
'0:28.359',0.14
'0:28.367',0.16
'0:28.375',0.17
'0:28.383',0.19
'0:28.391',0.2
'0:28.398',0.2
'0:28.406',0.18
'0:28.414',0.16
'0:28.422',0.15
'0:28.430',0.12
'0:28.438',0.08
'0:28.445',0.04
'0:28.453',0.01
'0:28.461',-0.01
'0:28.469',-0.03
'0:28.477',-0.04
'0:28.484',-0.04
'0:28.492',-0.05
'0:28.500',-0.03
'0:28.508',-0.02
'0:28.516',-0.01
'0:28.523',-0.04
'0:28.531',-0.02
'0:28.539',-0.03
'0:28.547',-0.04
'0:28.555',-0.04
'0:28.563',-0.02
'0:28.570',-0.02
'0:28.578',-0.03
'0:28.586',-0.03
'0:28.594',-0.02
'0:28.602',-0.01
'0:28.609',-0.01
'0:28.617',0.01
'0:28.625',0
'0:28.633',-0.01
'0:28.641',0
'0:28.648',-0.01
'0:28.656',-0.02
'0:28.664',-0.01
'0:28.672',-0.02
'0:28.680',-0.03
'0:28.688',-0.03
'0:28.695',-0.04
'0:28.703',-0.04
'0:28.711',-0.04
'0:28.719',-0.04
'0:28.727',-0.04
'0:28.734',-0.04
'0:28.742',-0.07
'0:28.750',-0.06
'0:28.758',-0.06
'0:28.766',-0.05
'0:28.773',-0.04
'0:28.781',-0.05
'0:28.789',-0.06
'0:28.797',-0.05
'0:28.805',0.02
'0:28.813',-0.01
'0:28.820',0.04
'0:28.828',0.05
'0:28.836',0.12
'0:28.844',0.1
'0:28.852',0.01
'0:28.859',-0.02
'0:28.867',-0.11
'0:28.875',-0.14
'0:28.883',-0.15
'0:28.891',-0.14
'0:28.898',-0.13
'0:28.906',-0.14
'0:28.914',-0.17
'0:28.922',-0.12
'0:28.930',-0.13
'0:28.938',-0.04
'0:28.945',0.3
'0:28.953',0.58
'0:28.961',-0.58
'0:28.969',-1.71
'0:28.977',-1.51
'0:28.984',-1.22
'0:28.992',-0.66
'0:29.000',-0.29
'0:29.008',-0.09
'0:29.016',-0.09
'0:29.023',-0.07
'0:29.031',-0.05
'0:29.039',-0.02
'0:29.047',-0.03
'0:29.055',-0.01
'0:29.063',0.03
'0:29.070',0.03
'0:29.078',0.04
'0:29.086',0.05
'0:29.094',0.05
'0:29.102',0.06
'0:29.109',0.07
'0:29.117',0.09
'0:29.125',0.1
'0:29.133',0.11
'0:29.141',0.11
'0:29.148',0.12
'0:29.156',0.13
'0:29.164',0.13
'0:29.172',0.16
'0:29.180',0.12
'0:29.188',0.13
'0:29.195',0.1
'0:29.203',0.11
'0:29.211',0.08
'0:29.219',0.06
'0:29.227',0.05
'0:29.234',0.01
'0:29.242',0
'0:29.250',0.01
'0:29.258',0
'0:29.266',-0.03
'0:29.273',-0.01
'0:29.281',-0.01
'0:29.289',0.01
'0:29.297',0.02
'0:29.305',0.02
'0:29.313',0.03
'0:29.320',0.04
'0:29.328',0
'0:29.336',0.11
'0:29.344',0.17
'0:29.352',0.4
'0:29.359',0.67
'0:29.367',0.56
'0:29.375',-0.4
'0:29.383',-1.1
'0:29.391',-1.07
'0:29.398',-0.87
'0:29.406',-0.15
'0:29.414',1.07
'0:29.422',2.59
'0:29.430',2.56
'0:29.438',1.54
'0:29.445',0.72
'0:29.453',-0.2
'0:29.461',0.02
'0:29.469',-0.26
'0:29.477',-0.1
'0:29.484',-0.08
'0:29.492',-0.09
'0:29.500',-0.12
'0:29.508',-0.13
'0:29.516',-0.14
'0:29.523',-0.14
'0:29.531',-0.16
'0:29.539',-0.19
'0:29.547',-0.18
'0:29.555',-0.17
'0:29.563',-0.17
'0:29.570',-0.23
'0:29.578',-0.18
'0:29.586',-0.22
'0:29.594',-0.17
'0:29.602',-0.27
'0:29.609',-0.3
'0:29.617',-0.33
'0:29.625',-0.34
'0:29.633',-0.35
'0:29.641',-0.24
'0:29.648',-0.18
'0:29.656',-0.07
'0:29.664',-0.04
'0:29.672',0.04
'0:29.680',0.08
'0:29.688',0.11
'0:29.695',0.09
'0:29.703',0.08
'0:29.711',0.05
'0:29.719',0.02
'0:29.727',0
'0:29.734',-0.01
'0:29.742',-0.01
'0:29.750',-0.02
'0:29.758',-0.01
'0:29.766',-0.01
'0:29.773',-0.02
'0:29.781',-0.02
'0:29.789',-0.01
'0:29.797',0
'0:29.805',-0.02
'0:29.813',-0.01
'0:29.820',0.09
'0:29.828',0.41
'0:29.836',0.69
'0:29.844',-0.45
'0:29.852',-1.9
'0:29.859',-1.47
'0:29.867',-1.12
'0:29.875',-0.39
'0:29.883',-0.05
'0:29.891',0.03
'0:29.898',0.03
'0:29.906',0.04
'0:29.914',0.04
'0:29.922',0.04
'0:29.930',0.05
'0:29.938',0.07
'0:29.945',0.05
'0:29.953',0.08
'0:29.961',0.08
'0:29.969',0.08
'0:29.977',0.09
'0:29.984',0.11
'0:29.992',0.12
'0:30.000',0.13
'0:30.008',0.14
'0:30.016',0.16
'0:30.023',0.16
'0:30.031',0.18
'0:30.039',0.17
'0:30.047',0.17
'0:30.055',0.15
'0:30.063',0.15
'0:30.070',0.13
'0:30.078',0.12
'0:30.086',0.08
'0:30.094',0.08
'0:30.102',0.06
'0:30.109',0.03
'0:30.117',0.04
'0:30.125',0.03
'0:30.133',0.03
'0:30.141',0.03
'0:30.148',0.04
'0:30.156',0.05
'0:30.164',0.05
'0:30.172',0.06
'0:30.180',0.05
'0:30.188',0.06
'0:30.195',0.06
'0:30.203',0.07
'0:30.211',0.08
'0:30.219',0.08
'0:30.227',0.06
'0:30.234',0.07
'0:30.242',0.06
'0:30.250',0.05
'0:30.258',0.05
'0:30.266',0.05
'0:30.273',0.02
'0:30.281',0.03
'0:30.289',0.03
'0:30.297',0.06
'0:30.305',0.07
'0:30.313',0.05
'0:30.320',0.13
'0:30.328',0.13
'0:30.336',0.21
'0:30.344',0.1
'0:30.352',0.06
'0:30.359',0.01
'0:30.367',-0.09
'0:30.375',-0.11
'0:30.383',-0.09
'0:30.391',-0.09
'0:30.398',-0.07
'0:30.406',-0.1
'0:30.414',-0.09
'0:30.422',-0.08
'0:30.430',-0.08
'0:30.438',0.19
'0:30.445',0.47
'0:30.453',0.77
'0:30.461',-1.54
'0:30.469',-1.91
'0:30.477',-1.32
'0:30.484',-1.05
'0:30.492',-0.44
'0:30.500',-0.03
'0:30.508',-0.02
'0:30.516',0.02
'0:30.523',0.03
'0:30.531',0.05
'0:30.539',0.07
'0:30.547',0.08
'0:30.555',0.1
'0:30.563',0.11
'0:30.570',0.11
'0:30.578',0.12
'0:30.586',0.15
'0:30.594',0.16
'0:30.602',0.16
'0:30.609',0.18
'0:30.617',0.21
'0:30.625',0.22
'0:30.633',0.22
'0:30.641',0.24
'0:30.648',0.25
'0:30.656',0.26
'0:30.664',0.25
'0:30.672',0.28
'0:30.680',0.25
'0:30.688',0.24
'0:30.695',0.23
'0:30.703',0.2
'0:30.711',0.14
'0:30.719',0.09
'0:30.727',0.08
'0:30.734',0.04
'0:30.742',0.03
'0:30.750',0.02
'0:30.758',0.01
'0:30.766',0.02
'0:30.773',0.02
'0:30.781',0.04
'0:30.789',0.02
'0:30.797',0.01
'0:30.805',0.04
'0:30.813',0.03
'0:30.820',0.03
'0:30.828',0.04
'0:30.836',0.06
'0:30.844',0.06
'0:30.852',0.07
'0:30.859',0.07
'0:30.867',0.08
'0:30.875',0.07
'0:30.883',0.03
'0:30.891',-0.1
'0:30.898',0.07
'0:30.906',0.14
'0:30.914',0.12
'0:30.922',-0.02
'0:30.930',-0.12
'0:30.938',0.79
'0:30.945',2.39
'0:30.953',2.54
'0:30.961',2.37
'0:30.969',2.89
'0:30.977',2.74
'0:30.984',3.42
'0:30.992',2.9
'0:31.000',2.07
'0:31.008',0.62
'0:31.016',0.27
'0:31.023',0.1
'0:31.031',-0.12
'0:31.039',-0.14
'0:31.047',-0.16
'0:31.055',-0.24
'0:31.063',-0.23
'0:31.070',-0.28
'0:31.078',-0.21
'0:31.086',-0.32
'0:31.094',-0.39
'0:31.102',-0.5
'0:31.109',-0.61
'0:31.117',-0.7
'0:31.125',-0.77
'0:31.133',-0.81
'0:31.141',-0.88
'0:31.148',-0.95
'0:31.156',-1.04
'0:31.164',-1.1
'0:31.172',-1.14
'0:31.180',-1.13
'0:31.188',-1.1
'0:31.195',-1
'0:31.203',-0.89
'0:31.211',-0.73
'0:31.219',-0.57
'0:31.227',-0.41
'0:31.234',-0.25
'0:31.242',-0.15
'0:31.250',-0.07
'0:31.258',-0.04
'0:31.266',0
'0:31.273',0
'0:31.281',0.02
'0:31.289',0
'0:31.297',-0.01
'0:31.305',0.01
'0:31.313',0.01
'0:31.320',0.02
'0:31.328',0.01
'0:31.336',0.02
'0:31.344',0.01
'0:31.352',0.02
'0:31.359',0.01
'0:31.367',0.03
'0:31.375',0.01
'0:31.383',0.01
'0:31.391',0
'0:31.398',0
'0:31.406',0
'0:31.414',-0.01
'0:31.422',-0.02
'0:31.430',-0.02
'0:31.438',-0.02
'0:31.445',-0.02
'0:31.453',-0.02
'0:31.461',-0.03
'0:31.469',-0.02
'0:31.477',-0.03
'0:31.484',-0.03
'0:31.492',-0.03
'0:31.500',-0.03
'0:31.508',-0.02
'0:31.516',-0.03
'0:31.523',-0.04
'0:31.531',-0.03
'0:31.539',-0.03
'0:31.547',-0.03
'0:31.555',-0.03
'0:31.563',-0.03
'0:31.570',-0.03
'0:31.578',-0.03
'0:31.586',-0.03
'0:31.594',-0.04
'0:31.602',-0.03
'0:31.609',-0.04
'0:31.617',-0.04
'0:31.625',-0.04
'0:31.633',-0.06
'0:31.641',-0.06
'0:31.648',-0.05
'0:31.656',-0.06
'0:31.664',-0.06
'0:31.672',-0.04
'0:31.680',-0.06
'0:31.688',-0.06
'0:31.695',-0.07
'0:31.703',-0.05
'0:31.711',-0.05
'0:31.719',-0.06
'0:31.727',-0.05
'0:31.734',-0.06
'0:31.742',-0.06
'0:31.750',-0.07
'0:31.758',-0.06
'0:31.766',-0.06
'0:31.773',-0.07
'0:31.781',-0.07
'0:31.789',-0.06
'0:31.797',-0.06
'0:31.805',-0.06
'0:31.813',-0.05
'0:31.820',-0.03
'0:31.828',0.01
'0:31.836',-0.01
'0:31.844',0.05
'0:31.852',0.12
'0:31.859',0.11
'0:31.867',0.1
'0:31.875',0.03
'0:31.883',-0.05
'0:31.891',-0.08
'0:31.898',-0.11
'0:31.906',-0.08
'0:31.914',-0.09
'0:31.922',-0.09
'0:31.930',-0.1
'0:31.938',-0.09
'0:31.945',-0.09
'0:31.953',0.01
'0:31.961',0.35
'0:31.969',0.76
'0:31.977',-1.01
'0:31.984',-1.72
'0:31.992',-1.41
'0:32.000',-1.14
'0:32.008',-0.5
'0:32.016',-0.15
'0:32.023',-0.08
'0:32.031',-0.04
'0:32.039',-0.03
'0:32.047',0
'0:32.055',0.03
'0:32.063',0.05
'0:32.070',0.07
'0:32.078',0.07
'0:32.086',0.06
'0:32.094',0.09
'0:32.102',0.11
'0:32.109',0.11
'0:32.117',0.13
'0:32.125',0.15
'0:32.133',0.14
'0:32.141',0.15
'0:32.148',0.17
'0:32.156',0.17
'0:32.164',0.19
'0:32.172',0.21
'0:32.180',0.24
'0:32.188',0.26
'0:32.195',0.28
'0:32.203',0.3
'0:32.211',0.32
'0:32.219',0.34
'0:32.227',0.35
'0:32.234',0.33
'0:32.242',0.27
'0:32.250',0.17
'0:32.258',0.13
'0:32.266',0.05
'0:32.273',0.03
'0:32.281',0.01
'0:32.289',0
'0:32.297',-0.01
'0:32.305',0.01
'0:32.313',0.03
'0:32.320',0.03
'0:32.328',0.02
'0:32.336',0.03
'0:32.344',0.02
'0:32.352',0.02
'0:32.359',0.03
'0:32.367',0.04
'0:32.375',0.06
'0:32.383',0.05
'0:32.391',0.06
'0:32.398',0.08
'0:32.406',-0.04
'0:32.414',0.05
'0:32.422',0.08
'0:32.430',0.08
'0:32.438',-0.02
'0:32.445',-0.2
'0:32.453',-0.1
'0:32.461',1.17
'0:32.469',1.94
'0:32.477',2.38
'0:32.484',2.22
'0:32.492',2.46
'0:32.500',2.58
'0:32.508',3.31
'0:32.516',2.53
'0:32.523',1.4
'0:32.531',0.3
'0:32.539',0.21
'0:32.547',-0.11
'0:32.555',-0.17
'0:32.563',-0.15
'0:32.570',-0.2
'0:32.578',-0.2
'0:32.586',-0.29
'0:32.594',-0.34
'0:32.602',-0.42
'0:32.609',-0.54
'0:32.617',-0.63
'0:32.625',-0.66
'0:32.633',-0.71
'0:32.641',-0.78
'0:32.648',-0.87
'0:32.656',-0.94
'0:32.664',-1.05
'0:32.672',-1.11
'0:32.680',-1.18
'0:32.688',-1.28
'0:32.695',-1.31
'0:32.703',-1.33
'0:32.711',-1.25
'0:32.719',-1.17
'0:32.727',-1.03
'0:32.734',-0.88
'0:32.742',-0.69
'0:32.750',-0.51
'0:32.758',-0.38
'0:32.766',-0.23
'0:32.773',-0.17
'0:32.781',-0.1
'0:32.789',-0.08
'0:32.797',-0.09
'0:32.805',-0.07
'0:32.813',-0.07
'0:32.820',-0.07
'0:32.828',-0.07
'0:32.836',-0.07
'0:32.844',-0.06
'0:32.852',-0.08
'0:32.859',-0.07
'0:32.867',-0.08
'0:32.875',-0.07
'0:32.883',-0.07
'0:32.891',-0.06
'0:32.898',-0.06
'0:32.906',-0.06
'0:32.914',-0.07
'0:32.922',-0.05
'0:32.930',-0.07
'0:32.938',-0.07
'0:32.945',-0.06
'0:32.953',-0.07
'0:32.961',-0.07
'0:32.969',-0.07
'0:32.977',-0.06
'0:32.984',-0.07
'0:32.992',-0.07
'0:33.000',-0.06
'0:33.008',-0.07
'0:33.016',-0.07
'0:33.023',-0.07
'0:33.031',-0.06
'0:33.039',-0.07
'0:33.047',-0.07
'0:33.055',-0.07
'0:33.063',-0.05
'0:33.070',-0.07
'0:33.078',-0.06
'0:33.086',-0.07
'0:33.094',-0.06
'0:33.102',-0.06
'0:33.109',-0.06
'0:33.117',-0.05
'0:33.125',-0.07
'0:33.133',-0.08
'0:33.141',-0.06
'0:33.148',-0.06
'0:33.156',-0.06
'0:33.164',-0.06
'0:33.172',-0.05
'0:33.180',-0.06
'0:33.188',-0.05
'0:33.195',-0.03
'0:33.203',-0.05
'0:33.211',-0.06
'0:33.219',-0.06
'0:33.227',-0.07
'0:33.234',-0.06
'0:33.242',-0.07
'0:33.250',-0.06
'0:33.258',-0.06
'0:33.266',-0.06
'0:33.273',-0.07
'0:33.281',-0.04
'0:33.289',-0.01
'0:33.297',0.02
'0:33.305',0.03
'0:33.313',0.06
'0:33.320',0.16
'0:33.328',0.11
'0:33.336',0.09
'0:33.344',0.04
'0:33.352',-0.06
'0:33.359',-0.07
'0:33.367',-0.09
'0:33.375',-0.07
'0:33.383',-0.07
'0:33.391',-0.07
'0:33.398',-0.08
'0:33.406',-0.1
'0:33.414',-0.08
'0:33.422',0.21
'0:33.430',0.46
'0:33.438',0.52
'0:33.445',-1.67
'0:33.453',-1.83
'0:33.461',-1.18
'0:33.469',-0.84
'0:33.477',-0.38
'0:33.484',-0.02
'0:33.492',-0.05
'0:33.500',0
'0:33.508',0.03
'0:33.516',0.04
'0:33.523',0.05
'0:33.531',0.07
'0:33.539',0.08
'0:33.547',0.08
'0:33.555',0.11
'0:33.563',0.12
'0:33.570',0.13
'0:33.578',0.15
'0:33.586',0.17
'0:33.594',0.19
'0:33.602',0.2
'0:33.609',0.25
'0:33.617',0.26
'0:33.625',0.28
'0:33.633',0.32
'0:33.641',0.35
'0:33.648',0.39
'0:33.656',0.41
'0:33.664',0.43
'0:33.672',0.44
'0:33.680',0.45
'0:33.688',0.44
'0:33.695',0.41
'0:33.703',0.35
'0:33.711',0.25
'0:33.719',0.16
'0:33.727',0.12
'0:33.734',0.06
'0:33.742',0.04
'0:33.750',0.02
'0:33.758',0.03
'0:33.766',0.03
'0:33.773',0.04
'0:33.781',0.04
'0:33.789',0.03
'0:33.797',0.05
'0:33.805',0.04
'0:33.813',0.05
'0:33.820',0.04
'0:33.828',0.04
'0:33.836',0.05
'0:33.844',0.05
'0:33.852',0.04
'0:33.859',0.06
'0:33.867',0.06
'0:33.875',0.05
'0:33.883',0.05
'0:33.891',0.04
'0:33.898',0.05
'0:33.906',0.04
'0:33.914',0.04
'0:33.922',0.03
'0:33.930',0.02
'0:33.938',0.01
'0:33.945',0.01
'0:33.953',0
'0:33.961',0
'0:33.969',0
'0:33.977',-0.01
'0:33.984',-0.01
'0:33.992',-0.03
'0:34.000',-0.01
'0:34.008',0.04
'0:34.016',0
'0:34.023',0.06
'0:34.031',0.08
'0:34.039',0.16
'0:34.047',0.11
'0:34.055',0.06
'0:34.063',0.01
'0:34.070',-0.09
'0:34.078',-0.09
'0:34.086',-0.09
'0:34.094',-0.09
'0:34.102',-0.08
'0:34.109',-0.09
'0:34.117',-0.09
'0:34.125',-0.1
'0:34.133',-0.09
'0:34.141',0.19
'0:34.148',0.5
'0:34.156',0.78
'0:34.164',-1.56
'0:34.172',-1.89
'0:34.180',-1.27
'0:34.188',-1.07
'0:34.195',-0.44
'0:34.203',-0.06
'0:34.211',-0.05
'0:34.219',-0.03
'0:34.227',0
'0:34.234',0.02
'0:34.242',0
'0:34.250',0.04
'0:34.258',0.03
'0:34.266',0.05
'0:34.273',0.06
'0:34.281',0.08
'0:34.289',0.08
'0:34.297',0.09
'0:34.305',0.12
'0:34.313',0.13
'0:34.320',0.14
'0:34.328',0.16
'0:34.336',0.18
'0:34.344',0.18
'0:34.352',0.2
'0:34.359',0.2
'0:34.367',0.21
'0:34.375',0.21
'0:34.383',0.2
'0:34.391',0.2
'0:34.398',0.18
'0:34.406',0.16
'0:34.414',0.12
'0:34.422',0.09
'0:34.430',0.07
'0:34.438',0.04
'0:34.445',0.02
'0:34.453',0.03
'0:34.461',0.01
'0:34.469',0.03
'0:34.477',0.02
'0:34.484',0.05
'0:34.492',0.02
'0:34.500',0.04
'0:34.508',0.04
'0:34.516',0.03
'0:34.523',0.03
'0:34.531',0.04
'0:34.539',0.04
'0:34.547',0.04
'0:34.555',0.04
'0:34.563',0.04
'0:34.570',0.06
'0:34.578',0.05
'0:34.586',0.05
'0:34.594',0.05
'0:34.602',0.04
'0:34.609',0.04
'0:34.617',0.05
'0:34.625',0.03
'0:34.633',0.03
'0:34.641',0.03
'0:34.648',0.03
'0:34.656',0
'0:34.664',0.01
'0:34.672',0
'0:34.680',0
'0:34.688',-0.01
'0:34.695',-0.01
'0:34.703',-0.01
'0:34.711',-0.01
'0:34.719',-0.02
'0:34.727',-0.03
'0:34.734',-0.02
'0:34.742',-0.01
'0:34.750',0.04
'0:34.758',0.03
'0:34.766',0.05
'0:34.773',0.07
'0:34.781',0.18
'0:34.789',0.13
'0:34.797',0.06
'0:34.805',0.03
'0:34.813',-0.08
'0:34.820',-0.1
'0:34.828',-0.11
'0:34.836',-0.07
'0:34.844',-0.07
'0:34.852',-0.09
'0:34.859',-0.1
'0:34.867',-0.08
'0:34.875',-0.07
'0:34.883',0.09
'0:34.891',0.43
'0:34.898',0.76
'0:34.906',-1.13
'0:34.914',-1.9
'0:34.922',-1.53
'0:34.930',-1.22
'0:34.938',-0.47
'0:34.945',-0.11
'0:34.953',-0.03
'0:34.961',-0.04
'0:34.969',0
'0:34.977',0.02
'0:34.984',0.05
'0:34.992',0.03
'0:35.000',0.05
'0:35.008',0.06
'0:35.016',0.07
'0:35.023',0.07
'0:35.031',0.08
'0:35.039',0.07
'0:35.047',0.09
'0:35.055',0.11
'0:35.063',0.12
'0:35.070',0.14
'0:35.078',0.14
'0:35.086',0.15
'0:35.094',0.16
'0:35.102',0.17
'0:35.109',0.17
'0:35.117',0.17
'0:35.125',0.15
'0:35.133',0.14
'0:35.141',0.14
'0:35.148',0.12
'0:35.156',0.08
'0:35.164',0.05
'0:35.172',0.04
'0:35.180',0.01
'0:35.188',0.01
'0:35.195',-0.01
'0:35.203',0
'0:35.211',-0.01
'0:35.219',0
'0:35.227',0.02
'0:35.234',0.02
'0:35.242',0.01
'0:35.250',0.01
'0:35.258',0.01
'0:35.266',0
'0:35.273',0.01
'0:35.281',0.02
'0:35.289',0.02
'0:35.297',0.03
'0:35.305',0.03
'0:35.313',0.02
'0:35.320',0.02
'0:35.328',0.04
'0:35.336',0.03
'0:35.344',0.04
'0:35.352',0.03
'0:35.359',0.04
'0:35.367',0.04
'0:35.375',0.01
'0:35.383',0
'0:35.391',-0.02
'0:35.398',-0.02
'0:35.406',-0.02
'0:35.414',-0.04
'0:35.422',-0.04
'0:35.430',-0.05
'0:35.438',-0.06
'0:35.445',-0.06
'0:35.453',-0.05
'0:35.461',-0.07
'0:35.469',-0.06
'0:35.477',0.01
'0:35.484',0
'0:35.492',0.02
'0:35.500',0.06
'0:35.508',0.17
'0:35.516',0.11
'0:35.523',0.06
'0:35.531',0.03
'0:35.539',-0.07
'0:35.547',-0.11
'0:35.555',-0.12
'0:35.563',-0.1
'0:35.570',-0.09
'0:35.578',-0.11
'0:35.586',-0.11
'0:35.594',-0.11
'0:35.602',-0.11
'0:35.609',0.05
'0:35.617',0.32
'0:35.625',0.67
'0:35.633',-0.67
'0:35.641',-1.71
'0:35.648',-1.37
'0:35.656',-1.16
'0:35.664',-0.62
'0:35.672',-0.21
'0:35.680',-0.09
'0:35.688',-0.06
'0:35.695',-0.03
'0:35.703',-0.01
'0:35.711',-0.03
'0:35.719',0.01
'0:35.727',0.02
'0:35.734',-0.01
'0:35.742',0.02
'0:35.750',0.04
'0:35.758',0.04
'0:35.766',0.04
'0:35.773',0.09
'0:35.781',0.09
'0:35.789',0.09
'0:35.797',0.11
'0:35.805',0.12
'0:35.813',0.13
'0:35.820',0.13
'0:35.828',0.13
'0:35.836',0.15
'0:35.844',0.16
'0:35.852',0.16
'0:35.859',0.15
'0:35.867',0.15
'0:35.875',0.13
'0:35.883',0.12
'0:35.891',0.1
'0:35.898',0.06
'0:35.906',0.05
'0:35.914',0.05
'0:35.922',0.03
'0:35.930',0.03
'0:35.938',0.03
'0:35.945',0.02
'0:35.953',0.03
'0:35.961',0.02
'0:35.969',0.04
'0:35.977',0.02
'0:35.984',0.05
'0:35.992',0.04
'0:36.000',0.05
'0:36.008',0.05
'0:36.016',0.04
'0:36.023',0.05
'0:36.031',0.05
'0:36.039',0.04
'0:36.047',0.04
'0:36.055',0.04
'0:36.063',0.03
'0:36.070',0.02
'0:36.078',0.01
'0:36.086',0.01
'0:36.094',-0.01
'0:36.102',0
'0:36.109',0
'0:36.117',-0.01
'0:36.125',-0.02
'0:36.133',-0.02
'0:36.141',-0.02
'0:36.148',-0.02
'0:36.156',-0.03
'0:36.164',-0.03
'0:36.172',-0.01
'0:36.180',-0.03
'0:36.188',-0.03
'0:36.195',-0.03
'0:36.203',-0.03
'0:36.211',-0.03
'0:36.219',0.03
'0:36.227',0.03
'0:36.234',0.02
'0:36.242',0.07
'0:36.250',0.12
'0:36.258',0.11
'0:36.266',0.04
'0:36.273',0.01
'0:36.281',-0.07
'0:36.289',-0.14
'0:36.297',-0.12
'0:36.305',-0.11
'0:36.313',-0.11
'0:36.320',-0.11
'0:36.328',-0.12
'0:36.336',-0.12
'0:36.344',-0.11
'0:36.352',-0.05
'0:36.359',0.31
'0:36.367',0.63
'0:36.375',-0.4
'0:36.383',-1.87
'0:36.391',-1.79
'0:36.398',-1.29
'0:36.406',-0.63
'0:36.414',-0.27
'0:36.422',-0.02
'0:36.430',-0.03
'0:36.438',0
'0:36.445',0.02
'0:36.453',0.04
'0:36.461',0.05
'0:36.469',0.08
'0:36.477',0.08
'0:36.484',0.08
'0:36.492',0.1
'0:36.500',0.12
'0:36.508',0.13
'0:36.516',0.16
'0:36.523',0.17
'0:36.531',0.19
'0:36.539',0.2
'0:36.547',0.23
'0:36.555',0.25
'0:36.563',0.27
'0:36.570',0.29
'0:36.578',0.31
'0:36.586',0.31
'0:36.594',0.3
'0:36.602',0.29
'0:36.609',0.28
'0:36.617',0.24
'0:36.625',0.2
'0:36.633',0.16
'0:36.641',0.12
'0:36.648',0.08
'0:36.656',0.06
'0:36.664',0.05
'0:36.672',0.06
'0:36.680',0.05
'0:36.688',0.06
'0:36.695',0.05
'0:36.703',0.05
'0:36.711',0.05
'0:36.719',0.05
'0:36.727',0.05
'0:36.734',0.05
'0:36.742',0.06
'0:36.750',0.06
'0:36.758',0.06
'0:36.766',0.06
'0:36.773',0.07
'0:36.781',0.09
'0:36.789',0.09
'0:36.797',0.1
'0:36.805',0.1
'0:36.813',0.09
'0:36.820',0.09
'0:36.828',0.1
'0:36.836',0.08
'0:36.844',0.08
'0:36.852',0.08
'0:36.859',0.07
'0:36.867',0.05
'0:36.875',0.06
'0:36.883',0.06
'0:36.891',0.06
'0:36.898',0.04
'0:36.906',0.04
'0:36.914',0.03
'0:36.922',0.03
'0:36.930',0.02
'0:36.938',0.03
'0:36.945',0.02
'0:36.953',0.02
'0:36.961',0.01
'0:36.969',0.02
'0:36.977',0.03
'0:36.984',0.06
'0:36.992',0.08
'0:37.000',0.11
'0:37.008',0.12
'0:37.016',0.18
'0:37.023',0.16
'0:37.031',0.08
'0:37.039',0.04
'0:37.047',-0.07
'0:37.055',-0.1
'0:37.063',-0.08
'0:37.070',-0.07
'0:37.078',-0.07
'0:37.086',-0.06
'0:37.094',-0.08
'0:37.102',-0.06
'0:37.109',-0.06
'0:37.117',0.06
'0:37.125',0.45
'0:37.133',0.76
'0:37.141',-0.96
'0:37.148',-1.93
'0:37.156',-1.7
'0:37.164',-1.25
'0:37.172',-0.47
'0:37.180',-0.13
'0:37.188',0.01
'0:37.195',0.01
'0:37.203',0.05
'0:37.211',0.07
'0:37.219',0.08
'0:37.227',0.09
'0:37.234',0.1
'0:37.242',0.11
'0:37.250',0.12
'0:37.258',0.13
'0:37.266',0.13
'0:37.273',0.14
'0:37.281',0.15
'0:37.289',0.16
'0:37.297',0.18
'0:37.305',0.2
'0:37.313',0.19
'0:37.320',0.2
'0:37.328',0.24
'0:37.336',0.23
'0:37.344',0.25
'0:37.352',0.24
'0:37.359',0.23
'0:37.367',0.2
'0:37.375',0.2
'0:37.383',0.16
'0:37.391',0.14
'0:37.398',0.1
'0:37.406',0.07
'0:37.414',0.06
'0:37.422',0.05
'0:37.430',0.03
'0:37.438',0.05
'0:37.445',0.06
'0:37.453',0.06
'0:37.461',0.06
'0:37.469',0.07
'0:37.477',0.06
'0:37.484',0.04
'0:37.492',0.06
'0:37.500',0.06
'0:37.508',0.06
'0:37.516',0.05
'0:37.523',0.08
'0:37.531',0.05
'0:37.539',0.06
'0:37.547',0.07
'0:37.555',0.08
'0:37.563',0.08
'0:37.570',0.07
'0:37.578',0.08
'0:37.586',0.08
'0:37.594',0.07
'0:37.602',0.08
'0:37.609',0.08
'0:37.617',0.06
'0:37.625',0.04
'0:37.633',0.04
'0:37.641',0.04
'0:37.648',0.03
'0:37.656',0.04
'0:37.664',0.02
'0:37.672',0.02
'0:37.680',0.01
'0:37.688',0.02
'0:37.695',0.01
'0:37.703',0.02
'0:37.711',0.01
'0:37.719',0.01
'0:37.727',0.01
'0:37.734',0
'0:37.742',0.02
'0:37.750',0
'0:37.758',0
'0:37.766',0
'0:37.773',0.01
'0:37.781',0.01
'0:37.789',0.06
'0:37.797',0.02
'0:37.805',0.1
'0:37.813',0.09
'0:37.820',0.18
'0:37.828',0.1
'0:37.836',0.04
'0:37.844',-0.01
'0:37.852',-0.12
'0:37.859',-0.1
'0:37.867',-0.11
'0:37.875',-0.08
'0:37.883',-0.08
'0:37.891',-0.09
'0:37.898',-0.1
'0:37.906',-0.08
'0:37.914',-0.06
'0:37.922',0.23
'0:37.930',0.47
'0:37.938',0.72
'0:37.945',-1.62
'0:37.953',-1.94
'0:37.961',-1.26
'0:37.969',-1.08
'0:37.977',-0.39
'0:37.984',-0.03
'0:37.992',-0.02
'0:38.000',0
'0:38.008',0.02
'0:38.016',0.05
'0:38.023',0.06
'0:38.031',0.06
'0:38.039',0.08
'0:38.047',0.09
'0:38.055',0.1
'0:38.063',0.11
'0:38.070',0.13
'0:38.078',0.14
'0:38.086',0.14
'0:38.094',0.16
'0:38.102',0.17
'0:38.109',0.18
'0:38.117',0.19
'0:38.125',0.21
'0:38.133',0.21
'0:38.141',0.22
'0:38.148',0.21
'0:38.156',0.21
'0:38.164',0.2
'0:38.172',0.17
'0:38.180',0.13
'0:38.188',0.13
'0:38.195',0.09
'0:38.203',0.04
'0:38.211',0.04
'0:38.219',0.01
'0:38.227',-0.01
'0:38.234',-0.01
'0:38.242',0
'0:38.250',0
'0:38.258',0.01
'0:38.266',0.02
'0:38.273',0.02
'0:38.281',0.02
'0:38.289',0.01
'0:38.297',0.01
'0:38.305',0.01
'0:38.313',0.01
'0:38.320',0.01
'0:38.328',0.03
'0:38.336',0.03
'0:38.344',0.03
'0:38.352',0.03
'0:38.359',0.04
'0:38.367',0.03
'0:38.375',0.05
'0:38.383',0.04
'0:38.391',0.05
'0:38.398',0.03
'0:38.406',0.04
'0:38.414',0.01
'0:38.422',0.01
'0:38.430',0.02
'0:38.438',0.01
'0:38.445',0
'0:38.453',-0.02
'0:38.461',0
'0:38.469',-0.01
'0:38.477',-0.02
'0:38.484',-0.03
'0:38.492',-0.03
'0:38.500',-0.03
'0:38.508',-0.03
'0:38.516',-0.03
'0:38.523',-0.04
'0:38.531',-0.04
'0:38.539',-0.05
'0:38.547',-0.05
'0:38.555',-0.05
'0:38.563',-0.06
'0:38.570',-0.06
'0:38.578',-0.05
'0:38.586',-0.06
'0:38.594',-0.07
'0:38.602',-0.06
'0:38.609',-0.03
'0:38.617',0.01
'0:38.625',-0.02
'0:38.633',0.05
'0:38.641',0.04
'0:38.648',0.12
'0:38.656',0.06
'0:38.664',0.02
'0:38.672',-0.04
'0:38.680',-0.15
'0:38.688',-0.13
'0:38.695',-0.13
'0:38.703',-0.11
'0:38.711',-0.11
'0:38.719',-0.12
'0:38.727',-0.11
'0:38.734',-0.12
'0:38.742',-0.1
'0:38.750',0.15
'0:38.758',0.46
'0:38.766',0.78
'0:38.773',-1.45
'0:38.781',-1.77
'0:38.789',-1.28
'0:38.797',-1.04
'0:38.805',-0.52
'0:38.813',-0.1
'0:38.820',-0.08
'0:38.828',-0.05
'0:38.836',-0.03
'0:38.844',-0.02
'0:38.852',0
'0:38.859',0.02
'0:38.867',0.03
'0:38.875',0.03
'0:38.883',0.05
'0:38.891',0.04
'0:38.898',0.06
'0:38.906',0.07
'0:38.914',0.08
'0:38.922',0.09
'0:38.930',0.09
'0:38.938',0.1
'0:38.945',0.13
'0:38.953',0.11
'0:38.961',0.13
'0:38.969',0.16
'0:38.977',0.14
'0:38.984',0.13
'0:38.992',0.15
'0:39.000',0.15
'0:39.008',0.11
'0:39.016',0.09
'0:39.023',0.07
'0:39.031',0.04
'0:39.039',0.02
'0:39.047',0.02
'0:39.055',-0.01
'0:39.063',-0.01
'0:39.070',-0.02
'0:39.078',0
'0:39.086',-0.01
'0:39.094',-0.01
'0:39.102',0.02
'0:39.109',0.01
'0:39.117',0
'0:39.125',-0.02
'0:39.133',0.01
'0:39.141',0.01
'0:39.148',0
'0:39.156',0.02
'0:39.164',0.03
'0:39.172',0.03
'0:39.180',0.03
'0:39.188',0.04
'0:39.195',0.02
'0:39.203',0.02
'0:39.211',0.03
'0:39.219',0.03
'0:39.227',0.01
'0:39.234',-0.01
'0:39.242',0
'0:39.250',0
'0:39.258',-0.01
'0:39.266',-0.03
'0:39.273',-0.01
'0:39.281',-0.02
'0:39.289',-0.04
'0:39.297',-0.03
'0:39.305',-0.03
'0:39.313',-0.05
'0:39.320',-0.05
'0:39.328',-0.02
'0:39.336',-0.06
'0:39.344',-0.05
'0:39.352',-0.05
'0:39.359',-0.05
'0:39.367',-0.07
'0:39.375',-0.07
'0:39.383',-0.07
'0:39.391',-0.06
'0:39.398',-0.02
'0:39.406',0.01
'0:39.414',-0.02
'0:39.422',0.06
'0:39.430',0.05
'0:39.438',0.13
'0:39.445',0.05
'0:39.453',0
'0:39.461',-0.04
'0:39.469',-0.14
'0:39.477',-0.12
'0:39.484',-0.13
'0:39.492',-0.11
'0:39.500',-0.11
'0:39.508',-0.13
'0:39.516',-0.12
'0:39.523',-0.11
'0:39.531',-0.12
'0:39.539',0.16
'0:39.547',0.5
'0:39.555',0.65
'0:39.563',-1.3
'0:39.570',-1.64
'0:39.578',-1.24
'0:39.586',-0.89
'0:39.594',-0.54
'0:39.602',-0.09
'0:39.609',-0.08
'0:39.617',-0.05
'0:39.625',-0.04
'0:39.633',-0.01
'0:39.641',-0.01
'0:39.648',0
'0:39.656',0.02
'0:39.664',0.04
'0:39.672',0.04
'0:39.680',0.04
'0:39.688',0.05
'0:39.695',0.07
'0:39.703',0.1
'0:39.711',0.11
'0:39.719',0.13
'0:39.727',0.13
'0:39.734',0.16
'0:39.742',0.17
'0:39.750',0.2
'0:39.758',0.2
'0:39.766',0.22
'0:39.773',0.21
'0:39.781',0.21
'0:39.789',0.19
'0:39.797',0.17
'0:39.805',0.15
'0:39.813',0.1
'0:39.820',0.07
'0:39.828',0.04
'0:39.836',0.02
'0:39.844',0
'0:39.852',0
'0:39.859',0
'0:39.867',0
'0:39.875',0
'0:39.883',0.02
'0:39.891',0.01
'0:39.898',0.01
'0:39.906',0.01
'0:39.914',0.02
'0:39.922',0.02
'0:39.930',0.03
'0:39.938',0.04
'0:39.945',0.04
'0:39.953',0.04
'0:39.961',0.03
'0:39.969',0.04
'0:39.977',0.05
'0:39.984',0.04
'0:39.992',0.03
'0:40.000',0.03
'0:40.008',0.03
'0:40.016',0.03
'0:40.023',0.03
'0:40.031',0.02
'0:40.039',0
'0:40.047',0
'0:40.055',0.01
'0:40.063',0
'0:40.070',-0.01
'0:40.078',-0.01
'0:40.086',-0.01
'0:40.094',-0.03
'0:40.102',-0.02
'0:40.109',-0.03
'0:40.117',-0.03
'0:40.125',-0.04
'0:40.133',-0.03
'0:40.141',-0.04
'0:40.148',-0.05
'0:40.156',-0.05
'0:40.164',-0.05
'0:40.172',-0.04
'0:40.180',-0.06
'0:40.188',-0.05
'0:40.195',-0.05
'0:40.203',-0.06
'0:40.211',-0.02
'0:40.219',0.03
'0:40.227',0.01
'0:40.234',0.07
'0:40.242',0.08
'0:40.250',0.15
'0:40.258',0.03
'0:40.266',-0.01
'0:40.273',-0.06
'0:40.281',-0.14
'0:40.289',-0.13
'0:40.297',-0.13
'0:40.305',-0.11
'0:40.313',-0.11
'0:40.320',-0.13
'0:40.328',-0.11
'0:40.336',-0.11
'0:40.344',-0.1
'0:40.352',0.29
'0:40.359',0.46
'0:40.367',0.14
'0:40.375',-1.91
'0:40.383',-2.04
'0:40.391',-1.19
'0:40.398',-0.79
'0:40.406',-0.34
'0:40.414',-0.05
'0:40.422',-0.04
'0:40.430',-0.02
'0:40.438',0.02
'0:40.445',0.02
'0:40.453',0.03
'0:40.461',0.02
'0:40.469',0.05
'0:40.477',0.06
'0:40.484',0.07
'0:40.492',0.09
'0:40.500',0.11
'0:40.508',0.1
'0:40.516',0.12
'0:40.523',0.14
'0:40.531',0.15
'0:40.539',0.18
'0:40.547',0.2
'0:40.555',0.22
'0:40.563',0.22
'0:40.570',0.24
'0:40.578',0.24
'0:40.586',0.26
'0:40.594',0.23
'0:40.602',0.21
'0:40.609',0.19
'0:40.617',0.15
'0:40.625',0.11
'0:40.633',0.05
'0:40.641',0.02
'0:40.648',-0.01
'0:40.656',-0.02
'0:40.664',-0.01
'0:40.672',-0.02
'0:40.680',-0.01
'0:40.688',0
'0:40.695',0.01
'0:40.703',0
'0:40.711',0.01
'0:40.719',0
'0:40.727',0.01
'0:40.734',-0.01
'0:40.742',-0.01
'0:40.750',0
'0:40.758',0
'0:40.766',0
'0:40.773',0.02
'0:40.781',0.02
'0:40.789',0.03
'0:40.797',0.02
'0:40.805',0.03
'0:40.813',0.03
'0:40.820',0.03
'0:40.828',0.03
'0:40.836',0.03
'0:40.844',0.02
'0:40.852',0.02
'0:40.859',0.01
'0:40.867',0.02
'0:40.875',0
'0:40.883',0.01
'0:40.891',0.01
'0:40.898',0
'0:40.906',0
'0:40.914',0
'0:40.922',-0.02
'0:40.930',-0.02
'0:40.938',-0.02
'0:40.945',-0.02
'0:40.953',-0.01
'0:40.961',-0.01
'0:40.969',-0.01
'0:40.977',-0.02
'0:40.984',-0.02
'0:40.992',-0.01
'0:41.000',-0.01
'0:41.008',-0.02
'0:41.016',-0.02
'0:41.023',-0.02
'0:41.031',-0.03
'0:41.039',-0.03
'0:41.047',-0.03
'0:41.055',-0.03
'0:41.063',-0.03
'0:41.070',0.02
'0:41.078',0.01
'0:41.086',0.04
'0:41.094',0.04
'0:41.102',0.13
'0:41.109',0.08
'0:41.117',0
'0:41.125',-0.04
'0:41.133',-0.14
'0:41.141',-0.16
'0:41.148',-0.16
'0:41.156',-0.14
'0:41.164',-0.12
'0:41.172',-0.14
'0:41.180',-0.15
'0:41.188',-0.13
'0:41.195',-0.13
'0:41.203',0.03
'0:41.211',0.34
'0:41.219',0.73
'0:41.227',-1.17
'0:41.234',-1.91
'0:41.242',-1.64
'0:41.250',-1.27
'0:41.258',-0.5
'0:41.266',-0.17
'0:41.273',-0.06
'0:41.281',-0.05
'0:41.289',-0.02
'0:41.297',0
'0:41.305',0.02
'0:41.313',0.05
'0:41.320',0.05
'0:41.328',0.08
'0:41.336',0.09
'0:41.344',0.09
'0:41.352',0.11
'0:41.359',0.14
'0:41.367',0.13
'0:41.375',0.14
'0:41.383',0.16
'0:41.391',0.17
'0:41.398',0.19
'0:41.406',0.21
'0:41.414',0.21
'0:41.422',0.24
'0:41.430',0.23
'0:41.438',0.24
'0:41.445',0.23
'0:41.453',0.2
'0:41.461',0.2
'0:41.469',0.17
'0:41.477',0.13
'0:41.484',0.08
'0:41.492',0.05
'0:41.500',0.02
'0:41.508',-0.01
'0:41.516',-0.02
'0:41.523',-0.01
'0:41.531',-0.01
'0:41.539',-0.01
'0:41.547',0
'0:41.555',0.02
'0:41.563',0.01
'0:41.570',0
'0:41.578',0.01
'0:41.586',0
'0:41.594',-0.01
'0:41.602',-0.01
'0:41.609',0.01
'0:41.617',0.01
'0:41.625',0.01
'0:41.633',0.03
'0:41.641',0.02
'0:41.648',0.03
'0:41.656',0.05
'0:41.664',0.06
'0:41.672',0.05
'0:41.680',0.06
'0:41.688',0.05
'0:41.695',0.06
'0:41.703',0.05
'0:41.711',0.05
'0:41.719',0.05
'0:41.727',0.03
'0:41.734',0.03
'0:41.742',0.02
'0:41.750',0.02
'0:41.758',0.01
'0:41.766',0.01
'0:41.773',0.01
'0:41.781',0
'0:41.789',0
'0:41.797',-0.01
'0:41.805',-0.01
'0:41.813',0
'0:41.820',-0.02
'0:41.828',-0.02
'0:41.836',-0.02
'0:41.844',-0.03
'0:41.852',-0.04
'0:41.859',-0.04
'0:41.867',-0.03
'0:41.875',-0.04
'0:41.883',-0.03
'0:41.891',-0.04
'0:41.898',-0.02
'0:41.906',0.02
'0:41.914',0.01
'0:41.922',0.06
'0:41.930',0.07
'0:41.938',0.13
'0:41.945',0.1
'0:41.953',0.03
'0:41.961',-0.02
'0:41.969',-0.11
'0:41.977',-0.13
'0:41.984',-0.13
'0:41.992',-0.12
'0:42.000',-0.11
'0:42.008',-0.11
'0:42.016',-0.12
'0:42.023',-0.11
'0:42.031',-0.11
'0:42.039',0.01
'0:42.047',0.37
'0:42.055',0.73
'0:42.063',-1.03
'0:42.070',-1.8
'0:42.078',-1.53
'0:42.086',-1.22
'0:42.094',-0.54
'0:42.102',-0.17
'0:42.109',-0.05
'0:42.117',-0.05
'0:42.125',-0.02
'0:42.133',0.02
'0:42.141',0.02
'0:42.148',0.05
'0:42.156',0.04
'0:42.164',0.06
'0:42.172',0.07
'0:42.180',0.07
'0:42.188',0.09
'0:42.195',0.1
'0:42.203',0.11
'0:42.211',0.1
'0:42.219',0.12
'0:42.227',0.14
'0:42.234',0.15
'0:42.242',0.15
'0:42.250',0.16
'0:42.258',0.16
'0:42.266',0.17
'0:42.273',0.15
'0:42.281',0.15
'0:42.289',0.12
'0:42.297',0.11
'0:42.305',0.09
'0:42.313',0.05
'0:42.320',0.01
'0:42.328',-0.01
'0:42.336',-0.01
'0:42.344',-0.03
'0:42.352',-0.05
'0:42.359',-0.05
'0:42.367',-0.03
'0:42.375',-0.03
'0:42.383',-0.01
'0:42.391',-0.01
'0:42.398',0
'0:42.406',-0.02
'0:42.414',0
'0:42.422',0
'0:42.430',0
'0:42.438',0
'0:42.445',0.02
'0:42.453',0.02
'0:42.461',0.01
'0:42.469',0.03
'0:42.477',0.02
'0:42.484',0.02
'0:42.492',0.03
'0:42.500',0.04
'0:42.508',0.02
'0:42.516',0.01
'0:42.523',0.02
'0:42.531',0.01
'0:42.539',0.01
'0:42.547',-0.01
'0:42.555',0.01
'0:42.563',-0.01
'0:42.570',-0.01
'0:42.578',-0.02
'0:42.586',-0.01
'0:42.594',-0.02
'0:42.602',-0.03
'0:42.609',-0.02
'0:42.617',-0.03
'0:42.625',-0.03
'0:42.633',-0.03
'0:42.641',-0.04
'0:42.648',-0.04
'0:42.656',-0.03
'0:42.664',-0.05
'0:42.672',-0.04
'0:42.680',-0.06
'0:42.688',-0.04
'0:42.695',0.02
'0:42.703',0
'0:42.711',0
'0:42.719',0.07
'0:42.727',0.12
'0:42.734',0.13
'0:42.742',0.05
'0:42.750',0.03
'0:42.758',-0.05
'0:42.766',-0.13
'0:42.773',-0.08
'0:42.781',-0.07
'0:42.789',-0.09
'0:42.797',-0.1
'0:42.805',-0.08
'0:42.813',-0.08
'0:42.820',-0.1
'0:42.828',-0.08
'0:42.836',0.25
'0:42.844',0.59
'0:42.852',0.03
'0:42.859',-1.54
'0:42.867',-1.47
'0:42.875',-1.17
'0:42.883',-0.65
'0:42.891',-0.35
'0:42.898',-0.03
'0:42.906',-0.05
'0:42.914',-0.02
'0:42.922',0.02
'0:42.930',0.02
'0:42.938',0.04
'0:42.945',0.06
'0:42.953',0.08
'0:42.961',0.07
'0:42.969',0.08
'0:42.977',0.09
'0:42.984',0.11
'0:42.992',0.12
'0:43.000',0.14
'0:43.008',0.16
'0:43.016',0.16
'0:43.023',0.18
'0:43.031',0.2
'0:43.039',0.2
'0:43.047',0.21
'0:43.055',0.23
'0:43.063',0.22
'0:43.070',0.22
'0:43.078',0.21
'0:43.086',0.19
'0:43.094',0.17
'0:43.102',0.15
'0:43.109',0.12
'0:43.117',0.08
'0:43.125',0.06
'0:43.133',0.04
'0:43.141',0.04
'0:43.148',0.02
'0:43.156',0.03
'0:43.164',0.04
'0:43.172',0.03
'0:43.180',0.03
'0:43.188',0.04
'0:43.195',0.05
'0:43.203',0.04
'0:43.211',0.05
'0:43.219',0.05
'0:43.227',0.05
'0:43.234',0.06
'0:43.242',0.06
'0:43.250',0.05
'0:43.258',0.06
'0:43.266',0.06
'0:43.273',0.06
'0:43.281',0.06
'0:43.289',0.05
'0:43.297',0.04
'0:43.305',0.05
'0:43.313',0.04
'0:43.320',0.03
'0:43.328',0.05
'0:43.336',0.04
'0:43.344',0.04
'0:43.352',0.03
'0:43.359',0.03
'0:43.367',0.03
'0:43.375',0.03
'0:43.383',0.02
'0:43.391',0.02
'0:43.398',0.01
'0:43.406',0.02
'0:43.414',0.02
'0:43.422',0.02
'0:43.430',0.01
'0:43.438',0
'0:43.445',0.01
'0:43.453',0.01
'0:43.461',0
'0:43.469',0
'0:43.477',0.02
'0:43.484',0
'0:43.492',0.02
'0:43.500',0.09
'0:43.508',0.06
'0:43.516',0.12
'0:43.523',0.13
'0:43.531',0.21
'0:43.539',0.17
'0:43.547',0.1
'0:43.555',0.07
'0:43.563',-0.03
'0:43.570',-0.07
'0:43.578',-0.06
'0:43.586',-0.05
'0:43.594',-0.04
'0:43.602',-0.04
'0:43.609',-0.05
'0:43.617',-0.03
'0:43.625',-0.03
'0:43.633',0.12
'0:43.641',0.47
'0:43.648',0.82
'0:43.656',-1.16
'0:43.664',-1.85
'0:43.672',-1.58
'0:43.680',-1.23
'0:43.688',-0.46
'0:43.695',-0.08
'0:43.703',0.01
'0:43.711',0.01
'0:43.719',0.04
'0:43.727',0.06
'0:43.734',0.09
'0:43.742',0.08
'0:43.750',0.11
'0:43.758',0.11
'0:43.766',0.13
'0:43.773',0.13
'0:43.781',0.15
'0:43.789',0.16
'0:43.797',0.18
'0:43.805',0.18
'0:43.813',0.21
'0:43.820',0.21
'0:43.828',0.24
'0:43.836',0.26
'0:43.844',0.28
'0:43.852',0.29
'0:43.859',0.31
'0:43.867',0.3
'0:43.875',0.29
'0:43.883',0.28
'0:43.891',0.26
'0:43.898',0.23
'0:43.906',0.19
'0:43.914',0.15
'0:43.922',0.11
'0:43.930',0.08
'0:43.938',0.04
'0:43.945',0.04
'0:43.953',0.04
'0:43.961',0.05
'0:43.969',0.06
'0:43.977',0.07
'0:43.984',0.08
'0:43.992',0.07
'0:44.000',0.09
'0:44.008',0.06
'0:44.016',0.08
'0:44.023',0.07
'0:44.031',0.08
'0:44.039',0.08
'0:44.047',0.09
'0:44.055',0.09
'0:44.063',0.1
'0:44.070',0.1
'0:44.078',0.1
'0:44.086',0.13
'0:44.094',0.12
'0:44.102',0.11
'0:44.109',0.12
'0:44.117',0.13
'0:44.125',0.12
'0:44.133',0.11
'0:44.141',0.11
'0:44.148',0.11
'0:44.156',0.08
'0:44.164',0.09
'0:44.172',0.07
'0:44.180',0.08
'0:44.188',0.07
'0:44.195',0.07
'0:44.203',0.05
'0:44.211',0.05
'0:44.219',0.06
'0:44.227',0.03
'0:44.234',0.04
'0:44.242',0.03
'0:44.250',0.03
'0:44.258',0.02
'0:44.266',0.02
'0:44.273',0.02
'0:44.281',0.04
'0:44.289',0.02
'0:44.297',0.04
'0:44.305',0.11
'0:44.313',0.07
'0:44.320',0.14
'0:44.328',0.13
'0:44.336',0.22
'0:44.344',0.16
'0:44.352',0.11
'0:44.359',0.06
'0:44.367',-0.05
'0:44.375',-0.07
'0:44.383',-0.07
'0:44.391',-0.04
'0:44.398',-0.03
'0:44.406',-0.05
'0:44.414',-0.05
'0:44.422',-0.05
'0:44.430',-0.03
'0:44.438',0.19
'0:44.445',0.49
'0:44.453',0.87
'0:44.461',-1.42
'0:44.469',-1.83
'0:44.477',-1.38
'0:44.484',-1.14
'0:44.492',-0.43
'0:44.500',-0.05
'0:44.508',-0.01
'0:44.516',0.01
'0:44.523',0.03
'0:44.531',0.05
'0:44.539',0.07
'0:44.547',0.08
'0:44.555',0.1
'0:44.563',0.11
'0:44.570',0.12
'0:44.578',0.11
'0:44.586',0.14
'0:44.594',0.15
'0:44.602',0.16
'0:44.609',0.17
'0:44.617',0.19
'0:44.625',0.19
'0:44.633',0.21
'0:44.641',0.24
'0:44.648',0.24
'0:44.656',0.25
'0:44.664',0.25
'0:44.672',0.25
'0:44.680',0.24
'0:44.688',0.22
'0:44.695',0.2
'0:44.703',0.18
'0:44.711',0.14
'0:44.719',0.1
'0:44.727',0.06
'0:44.734',0.04
'0:44.742',0.03
'0:44.750',0.03
'0:44.758',0.03
'0:44.766',0.03
'0:44.773',0.04
'0:44.781',0.06
'0:44.789',0.05
'0:44.797',0.05
'0:44.805',0.05
'0:44.813',0.04
'0:44.820',0.05
'0:44.828',0.04
'0:44.836',0.04
'0:44.844',0.06
'0:44.852',0.05
'0:44.859',0.06
'0:44.867',0.07
'0:44.875',0.08
'0:44.883',0.05
'0:44.891',0.08
'0:44.898',0.07
'0:44.906',0.08
'0:44.914',0.08
'0:44.922',0.08
'0:44.930',0.06
'0:44.938',0.06
'0:44.945',0.05
'0:44.953',0.06
'0:44.961',0.05
'0:44.969',0.03
'0:44.977',0.04
'0:44.984',0.04
'0:44.992',0.01
'0:45.000',0.02
'0:45.008',0.03
'0:45.016',0
'0:45.023',0
'0:45.031',0
'0:45.039',-0.01
'0:45.047',-0.03
'0:45.055',-0.02
'0:45.063',-0.02
'0:45.070',-0.03
'0:45.078',-0.03
'0:45.086',-0.02
'0:45.094',-0.04
'0:45.102',-0.03
'0:45.109',0
'0:45.117',0.03
'0:45.125',0
'0:45.133',0.05
'0:45.141',0.06
'0:45.148',0.15
'0:45.156',0.09
'0:45.164',0.02
'0:45.172',-0.01
'0:45.180',-0.13
'0:45.188',-0.14
'0:45.195',-0.14
'0:45.203',-0.12
'0:45.211',-0.11
'0:45.219',-0.11
'0:45.227',-0.12
'0:45.234',-0.11
'0:45.242',-0.12
'0:45.250',0.12
'0:45.258',0.41
'0:45.266',0.77
'0:45.273',-1.51
'0:45.281',-1.85
'0:45.289',-1.22
'0:45.297',-1.04
'0:45.305',-0.44
'0:45.313',-0.04
'0:45.320',-0.04
'0:45.328',-0.03
'0:45.336',0
'0:45.344',0.03
'0:45.352',0.02
'0:45.359',0.05
'0:45.367',0.06
'0:45.375',0.07
'0:45.383',0.07
'0:45.391',0.09
'0:45.398',0.08
'0:45.406',0.1
'0:45.414',0.12
'0:45.422',0.12
'0:45.430',0.12
'0:45.438',0.14
'0:45.445',0.15
'0:45.453',0.16
'0:45.461',0.17
'0:45.469',0.16
'0:45.477',0.17
'0:45.484',0.17
'0:45.492',0.14
'0:45.500',0.13
'0:45.508',0.12
'0:45.516',0.08
'0:45.523',0.06
'0:45.531',0.03
'0:45.539',0
'0:45.547',-0.04
'0:45.555',-0.03
'0:45.563',-0.05
'0:45.570',-0.03
'0:45.578',-0.03
'0:45.586',-0.02
'0:45.594',-0.01
'0:45.602',0
'0:45.609',-0.01
'0:45.617',0.01
'0:45.625',0.01
'0:45.633',0
'0:45.641',0.01
'0:45.648',-0.01
'0:45.656',0
'0:45.664',0.02
'0:45.672',0.03
'0:45.680',0.01
'0:45.688',0.01
'0:45.695',0.02
'0:45.703',0.03
'0:45.711',0.02
'0:45.719',0.01
'0:45.727',0
'0:45.734',0.02
'0:45.742',-0.01
'0:45.750',0
'0:45.758',-0.01
'0:45.766',-0.01
'0:45.773',-0.03
'0:45.781',-0.01
'0:45.789',-0.02
'0:45.797',-0.04
'0:45.805',-0.02
'0:45.813',-0.03
'0:45.820',-0.04
'0:45.828',-0.05
'0:45.836',-0.04
'0:45.844',-0.05
'0:45.852',-0.06
'0:45.859',-0.06
'0:45.867',-0.05
'0:45.875',-0.05
'0:45.883',-0.06
'0:45.891',-0.05
'0:45.898',-0.05
'0:45.906',-0.06
'0:45.914',-0.03
'0:45.922',0.02
'0:45.930',-0.03
'0:45.938',0.05
'0:45.945',0.04
'0:45.953',0.14
'0:45.961',0.08
'0:45.969',0.01
'0:45.977',-0.02
'0:45.984',-0.14
'0:45.992',-0.14
'0:46.000',-0.15
'0:46.008',-0.1
'0:46.016',-0.1
'0:46.023',-0.14
'0:46.031',-0.12
'0:46.039',-0.12
'0:46.047',-0.15
'0:46.055',0.13
'0:46.063',0.45
'0:46.070',0.74
'0:46.078',-1.16
'0:46.086',-1.59
'0:46.094',-1.2
'0:46.102',-0.92
'0:46.109',-0.56
'0:46.117',-0.14
'0:46.125',-0.11
'0:46.133',-0.09
'0:46.141',-0.06
'0:46.148',-0.05
'0:46.156',-0.03
'0:46.164',-0.04
'0:46.172',0
'0:46.180',-0.01
'0:46.188',0.01
'0:46.195',0.01
'0:46.203',0.02
'0:46.211',0.03
'0:46.219',0.04
'0:46.227',0.06
'0:46.234',0.05
'0:46.242',0.08
'0:46.250',0.09
'0:46.258',0.09
'0:46.266',0.09
'0:46.273',0.11
'0:46.281',0.11
'0:46.289',0.12
'0:46.297',0.1
'0:46.305',0.09
'0:46.313',0.08
'0:46.320',0.06
'0:46.328',0.05
'0:46.336',0.03
'0:46.344',0.02
'0:46.352',-0.02
'0:46.359',-0.02
'0:46.367',-0.03
'0:46.375',-0.03
'0:46.383',-0.03
'0:46.391',-0.02
'0:46.398',-0.01
'0:46.406',0
'0:46.414',0
'0:46.422',0.01
'0:46.430',0.01
'0:46.438',0.01
'0:46.445',0.01
'0:46.453',0.01
'0:46.461',0.02
'0:46.469',0
'0:46.477',0.01
'0:46.484',0
'0:46.492',0.02
'0:46.500',0.01
'0:46.508',0.02
'0:46.516',0.01
'0:46.523',-0.01
'0:46.531',0.02
'0:46.539',0
'0:46.547',0
'0:46.555',0
'0:46.563',0.01
'0:46.570',0
'0:46.578',0
'0:46.586',-0.01
'0:46.594',-0.01
'0:46.602',-0.01
'0:46.609',-0.01
'0:46.617',0
'0:46.625',-0.02
'0:46.633',-0.03
'0:46.641',-0.02
'0:46.648',-0.02
'0:46.656',-0.02
'0:46.664',-0.04
'0:46.672',-0.04
'0:46.680',-0.01
'0:46.688',0.02
'0:46.695',0.01
'0:46.703',0.07
'0:46.711',0.09
'0:46.719',0.14
'0:46.727',0.1
'0:46.734',0.04
'0:46.742',-0.03
'0:46.750',-0.1
'0:46.758',-0.11
'0:46.766',-0.12
'0:46.773',-0.11
'0:46.781',-0.09
'0:46.789',-0.12
'0:46.797',-0.12
'0:46.805',-0.12
'0:46.813',-0.12
'0:46.820',0.24
'0:46.828',0.5
'0:46.836',0.22
'0:46.844',-1.77
'0:46.852',-1.88
'0:46.859',-1.21
'0:46.867',-0.81
'0:46.875',-0.41
'0:46.883',-0.05
'0:46.891',-0.04
'0:46.898',-0.02
'0:46.906',0
'0:46.914',0.02
'0:46.922',0.04
'0:46.930',0.05
'0:46.938',0.04
'0:46.945',0.07
'0:46.953',0.07
'0:46.961',0.1
'0:46.969',0.11
'0:46.977',0.11
'0:46.984',0.14
'0:46.992',0.16
'0:47.000',0.17
'0:47.008',0.19
'0:47.016',0.21
'0:47.023',0.2
'0:47.031',0.24
'0:47.039',0.24
'0:47.047',0.23
'0:47.055',0.23
'0:47.063',0.23
'0:47.070',0.19
'0:47.078',0.18
'0:47.086',0.13
'0:47.094',0.1
'0:47.102',0.05
'0:47.109',0.03
'0:47.117',0
'0:47.125',0
'0:47.133',0
'0:47.141',-0.01
'0:47.148',0
'0:47.156',0
'0:47.164',0
'0:47.172',0.01
'0:47.180',0
'0:47.188',-0.01
'0:47.195',0.01
'0:47.203',0.01
'0:47.211',0
'0:47.219',0.01
'0:47.227',0.03
'0:47.234',0.02
'0:47.242',0.02
'0:47.250',0.04
'0:47.258',0.03
'0:47.266',0.04
'0:47.273',0.05
'0:47.281',0.04
'0:47.289',0.04
'0:47.297',0.05
'0:47.305',0.04
'0:47.313',0.04
'0:47.320',0.03
'0:47.328',0.03
'0:47.336',0.03
'0:47.344',0.02
'0:47.352',0
'0:47.359',0.02
'0:47.367',0.02
'0:47.375',0
'0:47.383',0
'0:47.391',0
'0:47.398',-0.01
'0:47.406',-0.01
'0:47.414',-0.01
'0:47.422',-0.01
'0:47.430',-0.01
'0:47.438',-0.02
'0:47.445',-0.02
'0:47.453',-0.02
'0:47.461',-0.02
'0:47.469',-0.03
'0:47.477',-0.01
'0:47.484',0.02
'0:47.492',0.02
'0:47.500',0.04
'0:47.508',0.09
'0:47.516',0.12
'0:47.523',0.15
'0:47.531',0.05
'0:47.539',0.01
'0:47.547',-0.06
'0:47.555',-0.11
'0:47.563',-0.09
'0:47.570',-0.09
'0:47.578',-0.07
'0:47.586',-0.07
'0:47.594',-0.07
'0:47.602',-0.07
'0:47.609',-0.08
'0:47.617',0
'0:47.625',0.38
'0:47.633',0.69
'0:47.641',-0.8
'0:47.648',-1.79
'0:47.656',-1.59
'0:47.664',-1.19
'0:47.672',-0.48
'0:47.680',-0.11
'0:47.688',-0.03
'0:47.695',-0.01
'0:47.703',0.02
'0:47.711',0.04
'0:47.719',0.06
'0:47.727',0.07
'0:47.734',0.08
'0:47.742',0.08
'0:47.750',0.1
'0:47.758',0.11
'0:47.766',0.12
'0:47.773',0.12
'0:47.781',0.15
'0:47.789',0.16
'0:47.797',0.17
'0:47.805',0.19
'0:47.813',0.21
'0:47.820',0.2
'0:47.828',0.23
'0:47.836',0.25
'0:47.844',0.24
'0:47.852',0.25
'0:47.859',0.23
'0:47.867',0.23
'0:47.875',0.19
'0:47.883',0.18
'0:47.891',0.15
'0:47.898',0.11
'0:47.906',0.05
'0:47.914',0.04
'0:47.922',0.03
'0:47.930',0.02
'0:47.938',0.02
'0:47.945',0.04
'0:47.953',0.04
'0:47.961',0.04
'0:47.969',0.04
'0:47.977',0.04
'0:47.984',0.06
'0:47.992',0.04
'0:48.000',0.06
'0:48.008',0.04
'0:48.016',0.05
'0:48.023',0.05
'0:48.031',0.05
'0:48.039',0.05
'0:48.047',0.06
'0:48.055',0.05
'0:48.063',0.08
'0:48.070',0.06
'0:48.078',0.06
'0:48.086',0.06
'0:48.094',0.07
'0:48.102',0.05
'0:48.109',0.06
'0:48.117',0.04
'0:48.125',0.04
'0:48.133',0.04
'0:48.141',0.03
'0:48.148',0.04
'0:48.156',0.01
'0:48.164',0.01
'0:48.172',0.01
'0:48.180',0.01
'0:48.188',0.01
'0:48.195',0.02
'0:48.203',0.01
'0:48.211',0
'0:48.219',0
'0:48.227',0
'0:48.234',0.01
'0:48.242',0
'0:48.250',0.02
'0:48.258',0.05
'0:48.266',0.07
'0:48.273',0.05
'0:48.281',0.12
'0:48.289',0.17
'0:48.297',0.19
'0:48.305',0.09
'0:48.313',0.07
'0:48.320',-0.03
'0:48.328',-0.09
'0:48.336',-0.08
'0:48.344',-0.07
'0:48.352',-0.07
'0:48.359',-0.06
'0:48.367',-0.07
'0:48.375',-0.07
'0:48.383',-0.08
'0:48.391',-0.04
'0:48.398',0.35
'0:48.406',0.58
'0:48.414',-0.3
'0:48.422',-1.79
'0:48.430',-1.74
'0:48.438',-1.16
'0:48.445',-0.56
'0:48.453',-0.23
'0:48.461',-0.02
'0:48.469',-0.01
'0:48.477',0.01
'0:48.484',0.04
'0:48.492',0.05
'0:48.500',0.07
'0:48.508',0.09
'0:48.516',0.09
'0:48.523',0.1
'0:48.531',0.12
'0:48.539',0.12
'0:48.547',0.13
'0:48.555',0.16
'0:48.563',0.18
'0:48.570',0.16
'0:48.578',0.19
'0:48.586',0.2
'0:48.594',0.21
'0:48.602',0.22
'0:48.609',0.23
'0:48.617',0.24
'0:48.625',0.24
'0:48.633',0.22
'0:48.641',0.2
'0:48.648',0.2
'0:48.656',0.16
'0:48.664',0.14
'0:48.672',0.1
'0:48.680',0.06
'0:48.688',0.03
'0:48.695',0.03
'0:48.703',0.02
'0:48.711',0.01
'0:48.719',0.03
'0:48.727',0.03
'0:48.734',0.03
'0:48.742',0.03
'0:48.750',0.04
'0:48.758',0.02
'0:48.766',0.03
'0:48.773',0.03
'0:48.781',0.04
'0:48.789',0.04
'0:48.797',0.05
'0:48.805',0.05
'0:48.813',0.05
'0:48.820',0.06
'0:48.828',0.06
'0:48.836',0.07
'0:48.844',0.07
'0:48.852',0.07
'0:48.859',0.07
'0:48.867',0.06
'0:48.875',0.05
'0:48.883',0.06
'0:48.891',0.06
'0:48.898',0.05
'0:48.906',0.04
'0:48.914',0.04
'0:48.922',0.04
'0:48.930',0.03
'0:48.938',0.02
'0:48.945',0.02
'0:48.953',0.02
'0:48.961',0.01
'0:48.969',0.02
'0:48.977',0.01
'0:48.984',0.02
'0:48.992',0
'0:49.000',0.01
'0:49.008',0.01
'0:49.016',0
'0:49.023',-0.01
'0:49.031',0.06
'0:49.039',0.06
'0:49.047',0.06
'0:49.055',0.08
'0:49.063',0.2
'0:49.070',0.11
'0:49.078',0.09
'0:49.086',0.04
'0:49.094',-0.07
'0:49.102',-0.1
'0:49.109',-0.09
'0:49.117',-0.08
'0:49.125',-0.08
'0:49.133',-0.09
'0:49.141',-0.1
'0:49.148',-0.09
'0:49.156',-0.1
'0:49.164',0.06
'0:49.172',0.37
'0:49.180',0.78
'0:49.188',-1.11
'0:49.195',-1.69
'0:49.203',-1.28
'0:49.211',-1.07
'0:49.219',-0.51
'0:49.227',-0.12
'0:49.234',-0.08
'0:49.242',-0.05
'0:49.250',-0.02
'0:49.258',-0.01
'0:49.266',0
'0:49.273',0.04
'0:49.281',0.03
'0:49.289',0.05
'0:49.297',0.05
'0:49.305',0.05
'0:49.313',0.07
'0:49.320',0.06
'0:49.328',0.08
'0:49.336',0.09
'0:49.344',0.1
'0:49.352',0.09
'0:49.359',0.11
'0:49.367',0.12
'0:49.375',0.13
'0:49.383',0.13
'0:49.391',0.13
'0:49.398',0.13
'0:49.406',0.12
'0:49.414',0.11
'0:49.422',0.1
'0:49.430',0.08
'0:49.438',0.08
'0:49.445',0.05
'0:49.453',0.02
'0:49.461',0
'0:49.469',0.01
'0:49.477',0
'0:49.484',0.01
'0:49.492',-0.01
'0:49.500',0.01
'0:49.508',0.01
'0:49.516',0.02
'0:49.523',0.01
'0:49.531',0.03
'0:49.539',0.02
'0:49.547',0.02
'0:49.555',0.02
'0:49.563',0.02
'0:49.570',0.04
'0:49.578',0.04
'0:49.586',0.04
'0:49.594',0.04
'0:49.602',0.03
'0:49.609',0.02
'0:49.617',0.03
'0:49.625',0.03
'0:49.633',0.03
'0:49.641',0.02
'0:49.648',0.01
'0:49.656',0
'0:49.664',0
'0:49.672',-0.01
'0:49.680',0.01
'0:49.688',0
'0:49.695',-0.02
'0:49.703',-0.01
'0:49.711',-0.02
'0:49.719',-0.02
'0:49.727',-0.03
'0:49.734',-0.03
'0:49.742',-0.03
'0:49.750',-0.04
'0:49.758',-0.05
'0:49.766',-0.05
'0:49.773',-0.04
'0:49.781',0.02
'0:49.789',-0.02
'0:49.797',0.06
'0:49.805',0.12
'0:49.813',0.11
'0:49.820',0.09
'0:49.828',0.05
'0:49.836',-0.04
'0:49.844',-0.09
'0:49.852',-0.1
'0:49.859',-0.08
'0:49.867',-0.1
'0:49.875',-0.11
'0:49.883',-0.1
'0:49.891',-0.1
'0:49.898',-0.11
'0:49.906',-0.03
'0:49.914',0.26
'0:49.922',0.58
'0:49.930',-0.28
'0:49.938',-1.59
'0:49.945',-1.4
'0:49.953',-1.15
'0:49.961',-0.62
'0:49.969',-0.28
'0:49.977',-0.05
'0:49.984',-0.06
'0:49.992',-0.02
'0:50.000',0.01
'0:50.008',0.01
'0:50.016',0.03
'0:50.023',0.05
'0:50.031',0.05
'0:50.039',0.07
'0:50.047',0.08
'0:50.055',0.09
'0:50.063',0.09
'0:50.070',0.11
'0:50.078',0.14
'0:50.086',0.16
'0:50.094',0.16
'0:50.102',0.2
'0:50.109',0.21
'0:50.117',0.24
'0:50.125',0.25
'0:50.133',0.26
'0:50.141',0.26
'0:50.148',0.26
'0:50.156',0.24
'0:50.164',0.23
'0:50.172',0.19
'0:50.180',0.16
'0:50.188',0.13
'0:50.195',0.08
'0:50.203',0.06
'0:50.211',0.04
'0:50.219',0.03
'0:50.227',0.04
'0:50.234',0.05
'0:50.242',0.05
'0:50.250',0.06
'0:50.258',0.06
'0:50.266',0.06
'0:50.273',0.06
'0:50.281',0.07
'0:50.289',0.07
'0:50.297',0.08
'0:50.305',0.08
'0:50.313',0.06
'0:50.320',0.08
'0:50.328',0.07
'0:50.336',0.08
'0:50.344',0.08
'0:50.352',0.09
'0:50.359',0.08
'0:50.367',0.07
'0:50.375',0.06
'0:50.383',0.07
'0:50.391',0.07
'0:50.398',0.06
'0:50.406',0.06
'0:50.414',0.06
'0:50.422',0.06
'0:50.430',0.05
'0:50.438',0.05
'0:50.445',0.04
'0:50.453',0.04
'0:50.461',0.03
'0:50.469',0.04
'0:50.477',0.03
'0:50.484',0.04
'0:50.492',0.03
'0:50.500',0.03
'0:50.508',0.03
'0:50.516',0.04
'0:50.523',0.02
'0:50.531',0.03
'0:50.539',0.08
'0:50.547',0.07
'0:50.555',0.13
'0:50.563',0.12
'0:50.570',0.23
'0:50.578',0.16
'0:50.586',0.11
'0:50.594',0.05
'0:50.602',-0.05
'0:50.609',-0.06
'0:50.617',-0.08
'0:50.625',-0.05
'0:50.633',-0.05
'0:50.641',-0.07
'0:50.648',-0.07
'0:50.656',-0.06
'0:50.664',-0.04
'0:50.672',0.19
'0:50.680',0.48
'0:50.688',0.78
'0:50.695',-1.53
'0:50.703',-1.94
'0:50.711',-1.36
'0:50.719',-1.13
'0:50.727',-0.44
'0:50.734',-0.05
'0:50.742',-0.03
'0:50.750',-0.02
'0:50.758',0
'0:50.766',0.03
'0:50.773',0.03
'0:50.781',0.04
'0:50.789',0.05
'0:50.797',0.07
'0:50.805',0.07
'0:50.813',0.09
'0:50.820',0.11
'0:50.828',0.12
'0:50.836',0.13
'0:50.844',0.16
'0:50.852',0.17
'0:50.859',0.2
'0:50.867',0.21
'0:50.875',0.24
'0:50.883',0.25
'0:50.891',0.26
'0:50.898',0.25
'0:50.906',0.28
'0:50.914',0.26
'0:50.922',0.25
'0:50.930',0.22
'0:50.938',0.21
'0:50.945',0.15
'0:50.953',0.12
'0:50.961',0.06
'0:50.969',0.04
'0:50.977',0.02
'0:50.984',0.02
'0:50.992',0.03
'0:51.000',0.03
'0:51.008',0.03
'0:51.016',0.04
'0:51.023',0.05
'0:51.031',0.04
'0:51.039',0.04
'0:51.047',0.03
'0:51.055',0.04
'0:51.063',0.04
'0:51.070',0.03
'0:51.078',0.04
'0:51.086',0.05
'0:51.094',0.04
'0:51.102',0.05
'0:51.109',0.05
'0:51.117',0.04
'0:51.125',0.06
'0:51.133',0.05
'0:51.141',0.07
'0:51.148',0.04
'0:51.156',0.05
'0:51.164',0.04
'0:51.172',0.04
'0:51.180',0.03
'0:51.188',0.04
'0:51.195',0.02
'0:51.203',0
'0:51.211',0.01
'0:51.219',0
'0:51.227',0.01
'0:51.234',-0.02
'0:51.242',-0.02
'0:51.250',-0.01
'0:51.258',-0.02
'0:51.266',-0.02
'0:51.273',-0.03
'0:51.281',-0.03
'0:51.289',-0.02
'0:51.297',-0.03
'0:51.305',-0.01
'0:51.313',0.05
'0:51.320',0.02
'0:51.328',0.09
'0:51.336',0.12
'0:51.344',0.16
'0:51.352',0.1
'0:51.359',0.05
'0:51.367',-0.03
'0:51.375',-0.09
'0:51.383',-0.11
'0:51.391',-0.09
'0:51.398',-0.11
'0:51.406',-0.08
'0:51.414',-0.11
'0:51.422',-0.11
'0:51.430',-0.11
'0:51.438',-0.11
'0:51.445',0.24
'0:51.453',0.45
'0:51.461',0.3
'0:51.469',-1.81
'0:51.477',-1.97
'0:51.484',-1.2
'0:51.492',-0.92
'0:51.500',-0.42
'0:51.508',-0.07
'0:51.516',-0.07
'0:51.523',-0.04
'0:51.531',-0.02
'0:51.539',0
'0:51.547',0.01
'0:51.555',0.02
'0:51.563',0.02
'0:51.570',0.05
'0:51.578',0.05
'0:51.586',0.05
'0:51.594',0.07
'0:51.602',0.09
'0:51.609',0.11
'0:51.617',0.11
'0:51.625',0.15
'0:51.633',0.15
'0:51.641',0.17
'0:51.648',0.18
'0:51.656',0.18
'0:51.664',0.21
'0:51.672',0.2
'0:51.680',0.18
'0:51.688',0.18
'0:51.695',0.17
'0:51.703',0.13
'0:51.711',0.13
'0:51.719',0.09
'0:51.727',0.05
'0:51.734',0.02
'0:51.742',0.01
'0:51.750',-0.01
'0:51.758',-0.02
'0:51.766',-0.01
'0:51.773',-0.01
'0:51.781',0
'0:51.789',0
'0:51.797',0.02
'0:51.805',-0.01
'0:51.813',0
'0:51.820',-0.01
'0:51.828',-0.01
'0:51.836',0
'0:51.844',0
'0:51.852',0.02
'0:51.859',0.02
'0:51.867',0.02
'0:51.875',0.03
'0:51.883',0.02
'0:51.891',0.03
'0:51.898',0.03
'0:51.906',0.03
'0:51.914',0.03
'0:51.922',0.04
'0:51.930',0.02
'0:51.938',0.02
'0:51.945',0.02
'0:51.953',0.01
'0:51.961',0.01
'0:51.969',-0.01
'0:51.977',-0.01
'0:51.984',0
'0:51.992',-0.01
'0:52.000',-0.02
'0:52.008',-0.03
'0:52.016',-0.02
'0:52.023',-0.03
'0:52.031',-0.04
'0:52.039',-0.04
'0:52.047',-0.04
'0:52.055',-0.05
'0:52.063',-0.05
'0:52.070',-0.05
'0:52.078',-0.04
'0:52.086',-0.03
'0:52.094',0.02
'0:52.102',-0.01
'0:52.109',0.06
'0:52.117',0.04
'0:52.125',0.12
'0:52.133',0.07
'0:52.141',0.01
'0:52.148',-0.05
'0:52.156',-0.16
'0:52.164',-0.17
'0:52.172',-0.15
'0:52.180',-0.12
'0:52.188',-0.14
'0:52.195',-0.13
'0:52.203',-0.16
'0:52.211',-0.14
'0:52.219',-0.13
'0:52.227',0.1
'0:52.234',0.37
'0:52.242',0.68
'0:52.250',-1.57
'0:52.258',-1.9
'0:52.266',-1.32
'0:52.273',-1.14
'0:52.281',-0.55
'0:52.289',-0.17
'0:52.297',-0.14
'0:52.305',-0.13
'0:52.313',-0.12
'0:52.320',-0.1
'0:52.328',-0.09
'0:52.336',-0.09
'0:52.344',-0.09
'0:52.352',-0.08
'0:52.359',-0.08
'0:52.367',-0.1
'0:52.375',-0.08
'0:52.383',-0.06
'0:52.391',-0.07
'0:52.398',-0.07
'0:52.406',-0.05
'0:52.414',-0.05
'0:52.422',-0.07
'0:52.430',-0.03
'0:52.438',-0.04
'0:52.445',-0.04
'0:52.453',-0.06
'0:52.461',-0.06
'0:52.469',-0.08
'0:52.477',-0.09
'0:52.484',-0.1
'0:52.492',-0.1
'0:52.500',-0.12
'0:52.508',-0.15
'0:52.516',-0.15
'0:52.523',-0.17
'0:52.531',-0.17
'0:52.539',-0.16
'0:52.547',-0.15
'0:52.555',-0.13
'0:52.563',-0.11
'0:52.570',-0.11
'0:52.578',-0.1
'0:52.586',-0.1
'0:52.594',-0.09
'0:52.602',-0.08
'0:52.609',-0.07
'0:52.617',-0.06
'0:52.625',-0.07
'0:52.633',-0.04
'0:52.641',-0.04
'0:52.648',-0.03
'0:52.656',-0.02
'0:52.664',-0.01
'0:52.672',-0.02
'0:52.680',0
'0:52.688',-0.01
'0:52.695',0.02
'0:52.703',0
'0:52.711',0
'0:52.719',0
'0:52.727',-0.01
'0:52.734',-0.01
'0:52.742',-0.01
'0:52.750',-0.02
'0:52.758',-0.04
'0:52.766',-0.01
'0:52.773',-0.01
'0:52.781',-0.03
'0:52.789',-0.04
'0:52.797',-0.03
'0:52.805',-0.05
'0:52.813',-0.04
'0:52.820',-0.03
'0:52.828',-0.04
'0:52.836',-0.04
'0:52.844',-0.04
'0:52.852',0
'0:52.859',0.04
'0:52.867',0
'0:52.875',0.07
'0:52.883',0.14
'0:52.891',0.12
'0:52.898',0.09
'0:52.906',0.05
'0:52.914',-0.03
'0:52.922',-0.08
'0:52.930',-0.11
'0:52.938',-0.08
'0:52.945',-0.09
'0:52.953',-0.12
'0:52.961',-0.11
'0:52.969',-0.1
'0:52.977',-0.12
'0:52.984',-0.1
'0:52.992',0.22
'0:53.000',0.56
'0:53.008',0.1
'0:53.016',-1.54
'0:53.023',-1.47
'0:53.031',-1.16
'0:53.039',-0.69
'0:53.047',-0.38
'0:53.055',-0.04
'0:53.063',-0.06
'0:53.070',-0.02
'0:53.078',0
'0:53.086',0
'0:53.094',0
'0:53.102',0.04
'0:53.109',0.03
'0:53.117',0.05
'0:53.125',0.06
'0:53.133',0.08
'0:53.141',0.07
'0:53.148',0.09
'0:53.156',0.09
'0:53.164',0.12
'0:53.172',0.12
'0:53.180',0.13
'0:53.188',0.15
'0:53.195',0.17
'0:53.203',0.18
'0:53.211',0.18
'0:53.219',0.19
'0:53.227',0.18
'0:53.234',0.17
'0:53.242',0.16
'0:53.250',0.15
'0:53.258',0.13
'0:53.266',0.1
'0:53.273',0.09
'0:53.281',0.06
'0:53.289',0.05
'0:53.297',0.03
'0:53.305',0.02
'0:53.313',0.02
'0:53.320',0.02
'0:53.328',0.02
'0:53.336',0.03
'0:53.344',0.03
'0:53.352',0.02
'0:53.359',0.03
'0:53.367',0.05
'0:53.375',0.05
'0:53.383',0.06
'0:53.391',0.07
'0:53.398',0.06
'0:53.406',0.06
'0:53.414',0.07
'0:53.422',0.07
'0:53.430',0.06
'0:53.438',0.07
'0:53.445',0.06
'0:53.453',0.06
'0:53.461',0.04
'0:53.469',0.05
'0:53.477',0.03
'0:53.484',0.03
'0:53.492',0.03
'0:53.500',0.02
'0:53.508',0.01
'0:53.516',0.01
'0:53.523',0.01
'0:53.531',0.01
'0:53.539',0.01
'0:53.547',0
'0:53.555',0.01
'0:53.563',0
'0:53.570',-0.02
'0:53.578',-0.01
'0:53.586',0.01
'0:53.594',0
'0:53.602',-0.01
'0:53.609',0
'0:53.617',0.01
'0:53.625',0.07
'0:53.633',0.05
'0:53.641',0.12
'0:53.648',0.11
'0:53.656',0.21
'0:53.664',0.15
'0:53.672',0.09
'0:53.680',0.04
'0:53.688',-0.05
'0:53.695',-0.07
'0:53.703',-0.08
'0:53.711',-0.06
'0:53.719',-0.05
'0:53.727',-0.06
'0:53.734',-0.07
'0:53.742',-0.06
'0:53.750',-0.05
'0:53.758',0.19
'0:53.766',0.48
'0:53.773',0.78
'0:53.781',-1.56
'0:53.789',-1.94
'0:53.797',-1.38
'0:53.805',-1.13
'0:53.813',-0.42
'0:53.820',-0.04
'0:53.828',-0.01
'0:53.836',0.01
'0:53.844',0.03
'0:53.852',0.04
'0:53.859',0.08
'0:53.867',0.09
'0:53.875',0.08
'0:53.883',0.1
'0:53.891',0.12
'0:53.898',0.14
'0:53.906',0.13
'0:53.914',0.16
'0:53.922',0.18
'0:53.930',0.19
'0:53.938',0.21
'0:53.945',0.23
'0:53.953',0.25
'0:53.961',0.26
'0:53.969',0.27
'0:53.977',0.3
'0:53.984',0.3
'0:53.992',0.29
'0:54.000',0.3
'0:54.008',0.28
'0:54.016',0.26
'0:54.023',0.24
'0:54.031',0.21
'0:54.039',0.15
'0:54.047',0.13
'0:54.055',0.1
'0:54.063',0.08
'0:54.070',0.08
'0:54.078',0.08
'0:54.086',0.07
'0:54.094',0.09
'0:54.102',0.07
'0:54.109',0.1
'0:54.117',0.08
'0:54.125',0.08
'0:54.133',0.07
'0:54.141',0.09
'0:54.148',0.07
'0:54.156',0.07
'0:54.164',0.08
'0:54.172',0.07
'0:54.180',0.08
'0:54.188',0.08
'0:54.195',0.09
'0:54.203',0.09
'0:54.211',0.09
'0:54.219',0.1
'0:54.227',0.1
'0:54.234',0.09
'0:54.242',0.08
'0:54.250',0.1
'0:54.258',0.08
'0:54.266',0.06
'0:54.273',0.05
'0:54.281',0.05
'0:54.289',0.03
'0:54.297',0.03
'0:54.305',0.02
'0:54.313',0.03
'0:54.320',-0.01
'0:54.328',0.01
'0:54.336',-0.01
'0:54.344',0
'0:54.352',-0.01
'0:54.359',0
'0:54.367',-0.02
'0:54.375',-0.02
'0:54.383',0
'0:54.391',0
'0:54.398',0.04
'0:54.406',0.06
'0:54.414',0.04
'0:54.422',0.11
'0:54.430',0.12
'0:54.438',0.17
'0:54.445',0.09
'0:54.453',0.05
'0:54.461',-0.02
'0:54.469',-0.09
'0:54.477',-0.1
'0:54.484',-0.09
'0:54.492',-0.08
'0:54.500',-0.06
'0:54.508',-0.09
'0:54.516',-0.08
'0:54.523',-0.09
'0:54.531',-0.08
'0:54.539',0.28
'0:54.547',0.49
'0:54.555',0.33
'0:54.563',-1.81
'0:54.570',-1.97
'0:54.578',-1.17
'0:54.586',-0.81
'0:54.594',-0.33
'0:54.602',-0.02
'0:54.609',-0.03
'0:54.617',0.01
'0:54.625',0.04
'0:54.633',0.06
'0:54.641',0.06
'0:54.648',0.08
'0:54.656',0.08
'0:54.664',0.11
'0:54.672',0.1
'0:54.680',0.11
'0:54.688',0.11
'0:54.695',0.14
'0:54.703',0.15
'0:54.711',0.16
'0:54.719',0.17
'0:54.727',0.18
'0:54.734',0.19
'0:54.742',0.22
'0:54.750',0.22
'0:54.758',0.23
'0:54.766',0.23
'0:54.773',0.23
'0:54.781',0.22
'0:54.789',0.2
'0:54.797',0.18
'0:54.805',0.15
'0:54.813',0.12
'0:54.820',0.07
'0:54.828',0.05
'0:54.836',0.02
'0:54.844',0.01
'0:54.852',0.01
'0:54.859',0
'0:54.867',0.02
'0:54.875',0.02
'0:54.883',0.03
'0:54.891',0.03
'0:54.898',0.02
'0:54.906',0.02
'0:54.914',0.03
'0:54.922',0.03
'0:54.930',0.02
'0:54.938',0.04
'0:54.945',0.05
'0:54.953',0.04
'0:54.961',0.05
'0:54.969',0.07
'0:54.977',0.07
'0:54.984',0.07
'0:54.992',0.06
'0:55.000',0.08
'0:55.008',0.05
'0:55.016',0.08
'0:55.023',0.06
'0:55.031',0.08
'0:55.039',0.06
'0:55.047',0.06
'0:55.055',0.05
'0:55.063',0.04
'0:55.070',0.03
'0:55.078',0.04
'0:55.086',0.05
'0:55.094',0.03
'0:55.102',0.03
'0:55.109',0.03
'0:55.117',0.03
'0:55.125',0.01
'0:55.133',0.02
'0:55.141',0.01
'0:55.148',0.01
'0:55.156',0
'0:55.164',0.01
'0:55.172',-0.01
'0:55.180',0
'0:55.188',0
'0:55.195',-0.01
'0:55.203',0.05
'0:55.211',0.04
'0:55.219',0.06
'0:55.227',0.1
'0:55.234',0.15
'0:55.242',0.15
'0:55.250',0.05
'0:55.258',0.01
'0:55.266',-0.07
'0:55.273',-0.13
'0:55.281',-0.1
'0:55.289',-0.1
'0:55.297',-0.09
'0:55.305',-0.08
'0:55.313',-0.1
'0:55.320',-0.08
'0:55.328',-0.1
'0:55.336',-0.05
'0:55.344',0.33
'0:55.352',0.56
'0:55.359',-0.43
'0:55.367',-1.85
'0:55.375',-1.77
'0:55.383',-1.2
'0:55.391',-0.55
'0:55.398',-0.22
'0:55.406',-0.03
'0:55.414',-0.04
'0:55.422',0
'0:55.430',0.01
'0:55.438',0.05
'0:55.445',0.05
'0:55.453',0.06
'0:55.461',0.06
'0:55.469',0.08
'0:55.477',0.08
'0:55.484',0.09
'0:55.492',0.09
'0:55.500',0.12
'0:55.508',0.12
'0:55.516',0.14
'0:55.523',0.15
'0:55.531',0.16
'0:55.539',0.18
'0:55.547',0.17
'0:55.555',0.19
'0:55.563',0.2
'0:55.570',0.2
'0:55.578',0.18
'0:55.586',0.18
'0:55.594',0.15
'0:55.602',0.12
'0:55.609',0.11
'0:55.617',0.05
'0:55.625',0.03
'0:55.633',0.02
'0:55.641',-0.01
'0:55.648',-0.02
'0:55.656',-0.02
'0:55.664',-0.01
'0:55.672',0.01
'0:55.680',0
'0:55.688',0.02
'0:55.695',0.03
'0:55.703',0.03
'0:55.711',0.02
'0:55.719',0.03
'0:55.727',0.02
'0:55.734',0.04
'0:55.742',0.03
'0:55.750',0.05
'0:55.758',0.05
'0:55.766',0.03
'0:55.773',0.05
'0:55.781',0.05
'0:55.789',0.06
'0:55.797',0.04
'0:55.805',0.06
'0:55.813',0.04
'0:55.820',0.04
'0:55.828',0.03
'0:55.836',0.03
'0:55.844',0
'0:55.852',0.02
'0:55.859',0.01
'0:55.867',0.01
'0:55.875',0
'0:55.883',-0.01
'0:55.891',-0.01
'0:55.898',-0.01
'0:55.906',-0.02
'0:55.914',-0.01
'0:55.922',-0.02
'0:55.930',-0.03
'0:55.938',-0.03
'0:55.945',-0.04
'0:55.953',-0.03
'0:55.961',-0.04
'0:55.969',-0.02
'0:55.977',0.02
'0:55.984',0.01
'0:55.992',0.07
'0:56.000',0.08
'0:56.008',0.16
'0:56.016',0.13
'0:56.023',0.07
'0:56.031',0.03
'0:56.039',-0.07
'0:56.047',-0.1
'0:56.055',-0.09
'0:56.063',-0.07
'0:56.070',-0.07
'0:56.078',-0.1
'0:56.086',-0.08
'0:56.094',-0.08
'0:56.102',-0.08
'0:56.109',0.14
'0:56.117',0.44
'0:56.125',0.77
'0:56.133',-1
'0:56.141',-1.62
'0:56.148',-1.24
'0:56.156',-1.02
'0:56.164',-0.53
'0:56.172',-0.09
'0:56.180',-0.06
'0:56.188',-0.03
'0:56.195',-0.01
'0:56.203',0.02
'0:56.211',0.02
'0:56.219',0.04
'0:56.227',0.04
'0:56.234',0.05
'0:56.242',0.05
'0:56.250',0.07
'0:56.258',0.07
'0:56.266',0.08
'0:56.273',0.1
'0:56.281',0.09
'0:56.289',0.1
'0:56.297',0.13
'0:56.305',0.14
'0:56.313',0.13
'0:56.320',0.14
'0:56.328',0.15
'0:56.336',0.15
'0:56.344',0.15
'0:56.352',0.13
'0:56.359',0.13
'0:56.367',0.1
'0:56.375',0.1
'0:56.383',0.07
'0:56.391',0.04
'0:56.398',0.01
'0:56.406',0.01
'0:56.414',0
'0:56.422',-0.01
'0:56.430',-0.02
'0:56.438',-0.01
'0:56.445',-0.02
'0:56.453',0
'0:56.461',-0.02
'0:56.469',0
'0:56.477',0.01
'0:56.484',0.01
'0:56.492',0.02
'0:56.500',0.02
'0:56.508',0.02
'0:56.516',0.02
'0:56.523',0.03
'0:56.531',0.03
'0:56.539',0.03
'0:56.547',0.03
'0:56.555',0.04
'0:56.563',0.04
'0:56.570',0.04
'0:56.578',0.05
'0:56.586',0.03
'0:56.594',0.02
'0:56.602',0.03
'0:56.609',0.03
'0:56.617',0.03
'0:56.625',0.02
'0:56.633',0.01
'0:56.641',0.02
'0:56.648',0.01
'0:56.656',0.01
'0:56.664',0
'0:56.672',0.02
'0:56.680',0
'0:56.688',0
'0:56.695',-0.01
'0:56.703',0
'0:56.711',-0.01
'0:56.719',0
'0:56.727',-0.01
'0:56.734',-0.01
'0:56.742',0.03
'0:56.750',0.06
'0:56.758',0.05
'0:56.766',0.08
'0:56.773',0.16
'0:56.781',0.14
'0:56.789',0.06
'0:56.797',0.05
'0:56.805',-0.05
'0:56.813',-0.1
'0:56.820',-0.1
'0:56.828',-0.07
'0:56.836',-0.09
'0:56.844',-0.09
'0:56.852',-0.09
'0:56.859',-0.08
'0:56.867',-0.08
'0:56.875',0.06
'0:56.883',0.4
'0:56.891',0.71
'0:56.898',-0.91
'0:56.906',-1.77
'0:56.914',-1.52
'0:56.922',-1.19
'0:56.930',-0.54
'0:56.938',-0.15
'0:56.945',-0.02
'0:56.953',0.01
'0:56.961',0.02
'0:56.969',0.07
'0:56.977',0.08
'0:56.984',0.08
'0:56.992',0.11
'0:57.000',0.13
'0:57.008',0.13
'0:57.016',0.15
'0:57.023',0.17
'0:57.031',0.16
'0:57.039',0.19
'0:57.047',0.21
'0:57.055',0.21
'0:57.063',0.25
'0:57.070',0.26
'0:57.078',0.29
'0:57.086',0.31
'0:57.094',0.3
'0:57.102',0.32
'0:57.109',0.31
'0:57.117',0.3
'0:57.125',0.28
'0:57.133',0.27
'0:57.141',0.24
'0:57.148',0.18
'0:57.156',0.16
'0:57.164',0.1
'0:57.172',0.09
'0:57.180',0.06
'0:57.188',0.08
'0:57.195',0.07
'0:57.203',0.07
'0:57.211',0.06
'0:57.219',0.07
'0:57.227',0.08
'0:57.234',0.08
'0:57.242',0.08
'0:57.250',0.08
'0:57.258',0.08
'0:57.266',0.08
'0:57.273',0.09
'0:57.281',0.08
'0:57.289',0.1
'0:57.297',0.1
'0:57.305',0.13
'0:57.313',0.1
'0:57.320',0.1
'0:57.328',0.1
'0:57.336',0.11
'0:57.344',0.1
'0:57.352',0.1
'0:57.359',0.09
'0:57.367',0.08
'0:57.375',0.07
'0:57.383',0.06
'0:57.391',0.07
'0:57.398',0.06
'0:57.406',0.05
'0:57.414',0.05
'0:57.422',0.04
'0:57.430',0.04
'0:57.438',0.05
'0:57.445',0.04
'0:57.453',0.02
'0:57.461',0.03
'0:57.469',0.02
'0:57.477',0.02
'0:57.484',0.02
'0:57.492',0.02
'0:57.500',0.02
'0:57.508',0.01
'0:57.516',0.04
'0:57.523',0.09
'0:57.531',0.05
'0:57.539',0.13
'0:57.547',0.12
'0:57.555',0.21
'0:57.563',0.09
'0:57.570',0.06
'0:57.578',-0.01
'0:57.586',-0.1
'0:57.594',-0.1
'0:57.602',-0.08
'0:57.609',-0.07
'0:57.617',-0.06
'0:57.625',-0.08
'0:57.633',-0.07
'0:57.641',-0.07
'0:57.648',-0.05
'0:57.656',0.27
'0:57.664',0.49
'0:57.672',0.5
'0:57.680',-1.79
'0:57.688',-1.98
'0:57.695',-1.16
'0:57.703',-0.9
'0:57.711',-0.36
'0:57.719',-0.01
'0:57.727',-0.01
'0:57.734',0.01
'0:57.742',0.04
'0:57.750',0.07
'0:57.758',0.07
'0:57.766',0.09
'0:57.773',0.11
'0:57.781',0.1
'0:57.789',0.11
'0:57.797',0.14
'0:57.805',0.14
'0:57.813',0.16
'0:57.820',0.17
'0:57.828',0.17
'0:57.836',0.2
'0:57.844',0.2
'0:57.852',0.23
'0:57.859',0.25
'0:57.867',0.26
'0:57.875',0.25
'0:57.883',0.26
'0:57.891',0.26
'0:57.898',0.22
'0:57.906',0.23
'0:57.914',0.19
'0:57.922',0.17
'0:57.930',0.13
'0:57.938',0.09
'0:57.945',0.06
'0:57.953',0.03
'0:57.961',0.02
'0:57.969',0.01
'0:57.977',0.02
'0:57.984',0.01
'0:57.992',0.04
'0:58.000',0.04
'0:58.008',0.04
'0:58.016',0.04
'0:58.023',0.04
'0:58.031',0.05
'0:58.039',0.04
'0:58.047',0.06
'0:58.055',0.06
'0:58.063',0.05
'0:58.070',0.06
'0:58.078',0.08
'0:58.086',0.07
'0:58.094',0.09
'0:58.102',0.09
'0:58.109',0.1
'0:58.117',0.09
