'0:00.000',-6.33002188
'0:00.004',-21.1598465
'0:00.008',-11.99655704
'0:00.012',-2.56428648
'0:00.016',-5.25409748
'0:00.020',10.65165154
'0:00.023',12.53451924
'0:00.027',19.814941
'0:00.031',12.26553814
'0:00.035',11.18961374
'0:00.039',27.63332497
'0:00.043',59.98278521
'0:00.047',80.479145
'0:00.051',105.0102213
'0:00.055',168.3642363
'0:00.059',217.4263888
'0:00.063',81.8240505
'0:00.066',-75.61955313
'0:00.070',-241.9574651
'0:00.074',-182.3871176
'0:00.078',-124.6817057
'0:00.082',-85.85876699
'0:00.086',-37.06559552
'0:00.090',15.22433024
'0:00.094',14.14840584
'0:00.098',-3.90919198
'0:00.102',-14.68636804
'0:00.105',10.65165154
'0:00.109',10.92063264
'0:00.113',-1.75734318
'0:00.117',-30.59211706
'0:00.121',-27.36434387
'0:00.125',-8.76878385
'0:00.129',4.98511638
'0:00.133',-3.10224868
'0:00.137',-26.01943837
'0:00.141',-38.41050102
'0:00.145',-25.48147617
'0:00.148',-0.41243769
'0:00.152',8.76878385
'0:00.156',-8.23082165
'0:00.160',-17.39411111
'0:00.164',-7.40594628
'0:00.168',12.26553814
'0:00.172',5.52307858
'0:00.176',8.76878385
'0:00.180',1.75734318
'0:00.184',9.57572715
'0:00.188',26.28841947
'0:00.191',19.2769788
'0:00.195',25.48147617
'0:00.199',20.0839221
'0:00.203',26.55740057
'0:00.207',40.58028189
'0:00.211',48.66764695
'0:00.215',41.11824409
'0:00.219',38.94846322
'0:00.223',44.61499839
'0:00.227',55.12319334
'0:00.230',61.86565291
'0:00.234',56.21704982
'0:00.238',56.75501201
'0:00.242',62.13463401
'0:00.246',70.22199907
'0:00.250',59.71380411
'0:00.254',71.58483664
'0:00.258',73.19872324
'0:00.262',78.84732633
'0:00.266',85.85876699
'0:00.270',90.18039666
'0:00.273',86.39672919
'0:00.277',90.18039666
'0:00.281',80.479145
'0:00.285',86.12774809
'0:00.289',88.02854786
'0:00.293',83.97589929
'0:00.297',89.91141556
'0:00.301',82.0930316
'0:00.305',86.66571029
'0:00.309',86.66571029
'0:00.313',82.0930316
'0:00.316',74.27464763
'0:00.320',68.07015027
'0:00.324',71.29792347
'0:00.328',68.60811247
'0:00.332',48.39866585
'0:00.336',43.00111179
'0:00.340',22.2357709
'0:00.344',8.76878385
'0:00.348',19.0079977
'0:00.352',-3.10224868
'0:00.355',-6.06104078
'0:00.359',-8.23082165
'0:00.363',-22.2357709
'0:00.367',-13.87942474
'0:00.371',-21.4288276
'0:00.375',-8.23082165
'0:00.379',-23.32962737
'0:00.383',-19.5459599
'0:00.387',-13.61044364
'0:00.391',-23.59860847
'0:00.395',-9.57572715
'0:00.398',-22.2357709
'0:00.402',-17.66309221
'0:00.406',-13.07248144
'0:00.410',-24.94351397
'0:00.414',-10.92063264
'0:00.418',-21.6978087
'0:00.422',-15.78022451
'0:00.426',-27.90230606
'0:00.430',-25.48147617
'0:00.434',-28.44026826
'0:00.438',-21.9667898
'0:00.441',-30.59211706
'0:00.445',-26.55740057
'0:00.449',-26.55740057
'0:00.453',-30.05415486
'0:00.457',-21.9667898
'0:00.461',-28.97823046
'0:00.465',-25.21249507
'0:00.469',-27.09536277
'0:00.473',-31.41699243
'0:00.477',-37.60355772
'0:00.480',-42.73213069
'0:00.484',-40.04231969
'0:00.488',-28.70924936
'0:00.492',-34.10680343
'0:00.496',-37.60355772
'0:00.500',-39.77333859
'0:00.504',-38.14151992
'0:00.508',-45.15296059
'0:00.512',-35.98967113
'0:00.516',-38.67948212
'0:00.520',-38.67948212
'0:00.523',-35.98967113
'0:00.527',-44.61499839
'0:00.531',-37.33457662
'0:00.535',-39.77333859
'0:00.539',-37.87253882
'0:00.543',-34.10680343
'0:00.547',-43.80805509
'0:00.551',-38.14151992
'0:00.555',-25.48147617
'0:00.559',-37.87253882
'0:00.563',-31.95495463
'0:00.566',-26.82638167
'0:00.570',-8.49980275
'0:00.574',3.64021088
'0:00.578',10.11368934
'0:00.582',18.47003551
'0:00.586',7.67492738
'0:00.590',8.21288957
'0:00.594',3.10224868
'0:00.598',9.84470825
'0:00.602',3.37122978
'0:00.605',-22.504752
'0:00.609',-22.7737331
'0:00.613',-45.42194168
'0:00.617',-54.58523114
'0:00.621',-44.34601729
'0:00.625',-55.41010652
'0:00.629',-56.21704982
'0:00.633',-62.13463401
'0:00.637',-54.58523114
'0:00.641',-59.71380411
'0:00.645',-54.31625004
'0:00.648',-41.11824409
'0:00.652',-47.86070365
'0:00.656',-53.77828785
'0:00.660',-56.48603091
'0:00.664',-37.33457662
'0:00.668',-43.00111179
'0:00.672',-48.93662805
'0:00.676',-37.06559552
'0:00.680',-39.23537639
'0:00.684',-36.25865223
'0:00.688',-11.72757594
'0:00.691',11.45859484
'0:00.695',39.75540652
'0:00.699',72.39177994
'0:00.703',123.8747624
'0:00.707',100.6885916
'0:00.711',-74.81260983
'0:00.715',-273.7689632
'0:00.719',-310.7090342
'0:00.723',-238.4607108
'0:00.727',-168.3642363
'0:00.730',-112.8286052
'0:00.734',-54.04726895
'0:00.738',-0.41243769
'0:00.742',-50.81949575
'0:00.746',-60.78972851
'0:00.750',-61.86565291
'0:00.754',-43.00111179
'0:00.758',-50.28153355
'0:00.762',-61.86565291
'0:00.766',-72.92974214
'0:00.770',-64.57339598
'0:00.773',-48.39866585
'0:00.777',-35.72069003
'0:00.781',-41.92518739
'0:00.785',-68.07015027
'0:00.789',-63.76645268
'0:00.793',-52.16440125
'0:00.797',-38.14151992
'0:00.801',-39.77333859
'0:00.805',-64.03543378
'0:00.809',-62.95950938
'0:00.813',-55.14112542
'0:00.816',-40.58028189
'0:00.820',-54.04726895
'0:00.824',-44.88397949
'0:00.828',-47.32274146
'0:00.832',-26.55740057
'0:00.836',-26.01943837
'0:00.840',-34.64476563
'0:00.844',-24.94351397
'0:00.848',-31.68597353
'0:00.852',-29.51619266
'0:00.855',-11.45859484
'0:00.859',-17.12513001
'0:00.863',-21.9667898
'0:00.867',-30.32313596
'0:00.871',-15.78022451
'0:00.875',-13.87942474
'0:00.879',-16.04920561
'0:00.883',-18.73901661
'0:00.887',-13.87942474
'0:00.891',-18.20105441
'0:00.895',-15.51124341
'0:00.898',0.95039989
'0:00.902',-1.48836208
'0:00.906',2.29530538
'0:00.910',11.99655704
'0:00.914',14.95534914
'0:00.918',18.20105441
'0:00.922',2.29530538
'0:00.926',4.44715418
'0:00.930',9.84470825
'0:00.934',11.72757594
'0:00.938',17.93207331
'0:00.941',20.3529032
'0:00.945',5.79205968
'0:00.949',9.57572715
'0:00.953',25.21249507
'0:00.957',16.58716781
'0:00.961',22.2357709
'0:00.965',8.21288957
'0:00.969',9.03776495
'0:00.973',7.40594628
'0:00.977',-14.95534914
'0:00.980',-22.7737331
'0:00.984',-37.60355772
'0:00.988',-40.31130079
'0:00.992',-28.17128716
'0:00.996',-17.93207331
'0:01.000',-22.2357709
'0:01.004',-19.2769788
'0:01.008',-23.59860847
'0:01.012',-29.24721156
'0:01.016',-33.83782233
'0:01.020',-36.52763332
'0:01.023',-34.10680343
'0:01.027',-24.94351397
'0:01.031',-31.41699243
'0:01.035',-49.20560915
'0:01.039',-33.83782233
'0:01.043',-48.66764695
'0:01.047',-26.28841947
'0:01.051',-34.10680343
'0:01.055',-18.73901661
'0:01.059',-16.85614891
'0:01.063',-14.41738694
'0:01.066',-24.94351397
'0:01.070',-33.83782233
'0:01.074',-35.18272783
'0:01.078',-17.12513001
'0:01.082',-30.05415486
'0:01.086',-24.40555177
'0:01.090',-34.37578453
'0:01.094',-35.72069003
'0:01.098',-32.49291683
'0:01.102',-28.97823046
'0:01.105',-24.67453287
'0:01.109',-20.0839221
'0:01.113',-20.8908654
'0:01.117',-30.86109816
'0:01.121',-41.38722519
'0:01.125',-38.94846322
'0:01.129',-38.14151992
'0:01.133',-39.77333859
'0:01.137',-31.14801133
'0:01.141',-39.50435749
'0:01.145',-37.33457662
'0:01.148',-38.67948212
'0:01.152',-25.75045727
'0:01.156',-47.32274146
'0:01.160',-36.52763332
'0:01.164',-35.72069003
'0:01.168',-40.04231969
'0:01.172',-43.27009289
'0:01.176',-46.76684718
'0:01.180',-50.55051465
'0:01.184',-34.64476563
'0:01.188',-41.38722519
'0:01.191',-29.51619266
'0:01.195',-31.14801133
'0:01.199',-32.49291683
'0:01.203',-16.58716781
'0:01.207',-25.75045727
'0:01.211',-30.86109816
'0:01.215',-15.51124341
'0:01.219',-16.04920561
'0:01.223',0.12552451
'0:01.227',5.79205968
'0:01.230',30.59211706
'0:01.234',46.22888498
'0:01.238',48.93662805
'0:01.242',36.25865223
'0:01.246',40.84926299
'0:01.250',60.52074741
'0:01.254',43.27009289
'0:01.258',34.64476563
'0:01.262',24.40555177
'0:01.266',10.38267044
'0:01.270',10.65165154
'0:01.273',-7.13696518
'0:01.277',2.02632428
'0:01.281',-6.59900298
'0:01.285',-4.98511638
'0:01.289',-6.59900298
'0:01.293',-9.03776495
'0:01.297',1.21938098
'0:01.301',-5.25409748
'0:01.305',-3.64021088
'0:01.309',8.49980275
'0:01.313',4.44715418
'0:01.316',0.95039989
'0:01.320',12.80350034
'0:01.324',13.34146254
'0:01.328',7.67492738
'0:01.332',19.0079977
'0:01.336',16.03127354
'0:01.340',14.14840584
'0:01.344',61.86565291
'0:01.348',83.70691819
'0:01.352',110.1208622
'0:01.355',143.0262167
'0:01.359',175.3756769
'0:01.363',130.0792598
'0:01.367',-63.22849048
'0:01.371',-268.1203601
'0:01.375',-277.8216117
'0:01.379',-161.6217767
'0:01.383',-109.3139189
'0:01.387',-48.93662805
'0:01.391',18.73901661
'0:01.395',47.86070365
'0:01.398',9.57572715
'0:01.402',-16.58716781
'0:01.406',-13.34146254
'0:01.410',12.53451924
'0:01.414',11.18961374
'0:01.418',-19.0079977
'0:01.422',-10.92063264
'0:01.426',-14.41738694
'0:01.430',6.86798408
'0:01.434',8.49980275
'0:01.438',0.12552451
'0:01.441',-6.59900298
'0:01.445',1.75734318
'0:01.449',18.20105441
'0:01.453',21.4288276
'0:01.457',18.47003551
'0:01.461',13.61044364
'0:01.465',18.20105441
'0:01.469',30.59211706
'0:01.473',49.74357135
'0:01.477',35.45170893
'0:01.480',34.10680343
'0:01.484',51.62643905
'0:01.488',58.63787971
'0:01.492',78.04038303
'0:01.496',68.33913137
'0:01.500',70.22199907
'0:01.504',54.31625004
'0:01.508',57.56195531
'0:01.512',58.90686081
'0:01.516',66.99422587
'0:01.520',55.67908762
'0:01.523',55.94806872
'0:01.527',71.85381774
'0:01.531',86.66571029
'0:01.535',81.5550694
'0:01.539',74.81260983
'0:01.543',75.08159093
'0:01.547',86.39672919
'0:01.551',98.26776172
'0:01.555',95.57795072
'0:01.559',93.13918875
'0:01.563',93.94613205
'0:01.566',86.12774809
'0:01.570',95.84693182
'0:01.574',93.40816985
'0:01.578',93.40816985
'0:01.582',79.9411828
'0:01.586',86.66571029
'0:01.590',77.50242083
'0:01.594',90.98733996
'0:01.598',92.87020765
'0:01.602',112.290643
'0:01.605',102.0334971
'0:01.609',93.13918875
'0:01.613',75.88853423
'0:01.617',78.30936413
'0:01.621',80.2101639
'0:01.625',84.24488039
'0:01.629',89.91141556
'0:01.633',89.91141556
'0:01.637',79.4032206
'0:01.641',67.53218807
'0:01.645',54.04726895
'0:01.648',55.94806872
'0:01.652',54.31625004
'0:01.656',61.86565291
'0:01.660',68.07015027
'0:01.664',70.22199907
'0:01.668',70.75996127
'0:01.672',84.51386149
'0:01.676',92.87020765
'0:01.680',85.32080479
'0:01.684',88.29752896
'0:01.688',86.39672919
'0:01.691',97.99878062
'0:01.695',76.15751533
'0:01.699',71.85381774
'0:01.703',74.00566654
'0:01.707',68.60811247
'0:01.711',63.2105584
'0:01.715',59.44482301
'0:01.719',41.65620629
'0:01.723',43.80805509
'0:01.727',35.72069003
'0:01.730',28.44026826
'0:01.734',10.65165154
'0:01.738',11.18961374
'0:01.742',12.53451924
'0:01.746',2.29530538
'0:01.750',10.11368934
'0:01.754',9.03776495
'0:01.758',-3.90919198
'0:01.762',-16.31818671
'0:01.766',-12.26553814
'0:01.770',-24.13657067
'0:01.773',-25.21249507
'0:01.777',-19.814941
'0:01.781',-15.51124341
'0:01.785',-27.90230606
'0:01.789',-24.67453287
'0:01.793',-26.28841947
'0:01.797',-20.0839221
'0:01.801',-29.78517376
'0:01.805',-26.55740057
'0:01.809',-25.48147617
'0:01.813',-28.17128716
'0:01.816',-20.0839221
'0:01.820',-12.53451924
'0:01.824',-10.11368934
'0:01.828',-10.38267044
'0:01.832',-12.80350034
'0:01.836',-3.64021088
'0:01.840',-10.92063264
'0:01.844',-8.76878385
'0:01.848',-10.65165154
'0:01.852',-14.41738694
'0:01.855',-4.17817308
'0:01.859',-9.84470825
'0:01.863',-7.40594628
'0:01.867',4.44715418
'0:01.871',-0.41243769
'0:01.875',11.18961374
'0:01.879',7.67492738
'0:01.883',25.75045727
'0:01.887',50.55051465
'0:01.891',59.98278521
'0:01.895',43.27009289
'0:01.898',44.34601729
'0:01.902',29.78517376
'0:01.906',34.64476563
'0:01.910',9.84470825
'0:01.914',-5.25409748
'0:01.918',-2.29530538
'0:01.922',-17.39411111
'0:01.926',-29.78517376
'0:01.930',-23.86758957
'0:01.934',-24.13657067
'0:01.938',-19.0079977
'0:01.941',-15.78022451
'0:01.945',-28.44026826
'0:01.949',-9.03776495
'0:01.953',4.98511638
'0:01.957',-3.90919198
'0:01.961',3.10224868
'0:01.965',-9.84470825
'0:01.969',6.06104078
'0:01.973',-12.80350034
'0:01.977',-19.0079977
'0:01.980',4.98511638
'0:01.984',-10.11368934
'0:01.988',-41.92518739
'0:01.992',-27.90230606
'0:01.996',-4.71613528
'0:02.000',17.66309221
'0:02.004',51.62643905
'0:02.008',99.07470502
'0:02.012',159.738909
'0:02.016',123.8747624
'0:02.020',-16.58716781
'0:02.023',-181.5801743
'0:02.027',-301.5457447
'0:02.031',-246.817057
'0:02.035',-157.5870602
'0:02.039',-89.10447226
'0:02.043',-13.87942474
'0:02.047',22.504752
'0:02.051',33.29986013
'0:02.055',27.09536277
'0:02.059',-2.29530538
'0:02.063',5.25409748
'0:02.066',6.06104078
'0:02.070',-0.14345659
'0:02.074',-20.3529032
'0:02.078',-2.02632428
'0:02.082',2.83326758
'0:02.086',-10.92063264
'0:02.090',1.48836208
'0:02.094',-19.0079977
'0:02.098',-2.56428648
'0:02.102',32.22393573
'0:02.105',64.84237708
'0:02.109',33.03087903
'0:02.113',3.37122978
'0:02.117',3.10224868
'0:02.121',14.95534914
'0:02.125',12.53451924
'0:02.129',30.59211706
'0:02.133',3.64021088
'0:02.137',5.52307858
'0:02.141',16.31818671
'0:02.145',10.92063264
'0:02.148',28.70924936
'0:02.152',34.37578453
'0:02.156',21.6978087
'0:02.160',49.74357135
'0:02.164',73.73668544
'0:02.168',42.73213069
'0:02.172',52.16440125
'0:02.176',40.31130079
'0:02.180',80.7481261
'0:02.184',71.02894237
'0:02.188',58.36889861
'0:02.191',69.41505577
'0:02.195',88.29752896
'0:02.199',95.02205645
'0:02.203',133.307033
'0:02.207',136.014776
'0:02.211',86.66571029
'0:02.215',63.2105584
'0:02.219',67.53218807
'0:02.223',66.18728257
'0:02.227',81.8240505
'0:02.230',97.72979952
'0:02.234',93.94613205
'0:02.238',86.93469139
'0:02.242',70.22199907
'0:02.246',81.5550694
'0:02.250',93.40816985
'0:02.254',90.71835886
'0:02.258',72.92974214
'0:02.262',58.63787971
'0:02.266',65.91830147
'0:02.270',57.56195531
'0:02.273',56.21704982
'0:02.277',41.92518739
'0:02.281',29.24721156
'0:02.285',3.10224868
'0:02.289',-7.13696518
'0:02.293',-10.11368934
'0:02.297',-38.41050102
'0:02.301',-33.29986013
'0:02.305',-29.51619266
'0:02.309',-42.19416849
'0:02.313',-43.53907399
'0:02.316',-52.97134455
'0:02.320',-62.95950938
'0:02.324',-60.52074741
'0:02.328',-44.88397949
'0:02.332',-47.05376036
'0:02.336',-52.70236345
'0:02.340',-59.17584191
'0:02.344',-58.09991751
'0:02.348',-46.22888498
'0:02.352',-50.01255245
'0:02.355',-52.70236345
'0:02.359',-56.21704982
'0:02.363',-55.67908762
'0:02.367',-47.32274146
'0:02.371',-52.43338235
'0:02.375',-53.24032565
'0:02.379',-38.41050102
'0:02.383',-38.41050102
'0:02.387',-47.05376036
'0:02.391',-52.43338235
'0:02.395',-52.97134455
'0:02.398',-53.24032565
'0:02.402',-52.97134455
'0:02.406',-47.32274146
'0:02.410',-38.94846322
'0:02.414',-38.67948212
'0:02.418',-35.72069003
'0:02.422',-34.10680343
'0:02.426',-30.59211706
'0:02.430',-40.31130079
'0:02.434',-39.23537639
'0:02.438',-34.64476563
'0:02.441',-48.12968475
'0:02.445',-45.42194168
'0:02.449',-41.65620629
'0:02.453',-41.65620629
'0:02.457',-50.01255245
'0:02.461',-45.15296059
'0:02.465',-44.34601729
'0:02.469',-43.53907399
'0:02.473',-43.53907399
'0:02.477',-49.20560915
'0:02.480',-42.73213069
'0:02.484',-43.27009289
'0:02.488',-44.88397949
'0:02.492',-45.15296059
'0:02.496',-33.56884123
'0:02.500',-41.11824409
'0:02.504',-41.11824409
'0:02.508',-29.24721156
'0:02.512',-31.68597353
'0:02.516',-33.83782233
'0:02.520',-22.504752
'0:02.523',-23.59860847
'0:02.527',-14.14840584
'0:02.531',-17.66309221
'0:02.535',-17.93207331
'0:02.539',-4.71613528
'0:02.543',9.30674605
'0:02.547',16.03127354
'0:02.551',28.17128716
'0:02.555',44.88397949
'0:02.559',44.88397949
'0:02.563',44.34601729
'0:02.566',49.47459025
'0:02.570',42.46314959
'0:02.574',28.44026826
'0:02.578',46.22888498
'0:02.582',14.14840584
'0:02.586',2.83326758
'0:02.590',-6.06104078
'0:02.594',-6.06104078
'0:02.598',-3.10224868
'0:02.602',-1.21938098
'0:02.605',-12.80350034
'0:02.609',-6.86798408
'0:02.613',7.67492738
'0:02.617',11.72757594
'0:02.621',0.95039989
'0:02.625',5.52307858
'0:02.629',-7.40594628
'0:02.633',6.06104078
'0:02.637',-4.44715418
'0:02.641',2.29530538
'0:02.645',6.06104078
'0:02.648',7.13696518
'0:02.652',4.44715418
'0:02.656',11.99655704
'0:02.660',19.5459599
'0:02.664',37.60355772
'0:02.668',52.70236345
'0:02.672',81.2860883
'0:02.676',121.9918947
'0:02.680',162.42872
'0:02.684',58.36889861
'0:02.688',-92.06326435
'0:02.691',-251.6587168
'0:02.695',-209.876986
'0:02.699',-143.83316
'0:02.703',-109.3139189
'0:02.707',-40.04231969
'0:02.711',-11.72757594
'0:02.715',-10.92063264
'0:02.719',-51.89542015
'0:02.723',-53.24032565
'0:02.727',-26.82638167
'0:02.730',-18.73901661
'0:02.734',-11.99655704
'0:02.738',-30.59211706
'0:02.742',-33.29986013
'0:02.746',2.56428648
'0:02.750',7.40594628
'0:02.754',3.37122978
'0:02.758',-8.76878385
'0:02.762',-12.80350034
'0:02.766',-14.68636804
'0:02.770',3.37122978
'0:02.773',1.21938098
'0:02.777',-6.33002188
'0:02.781',-24.67453287
'0:02.785',-14.14840584
'0:02.789',14.68636804
'0:02.793',13.07248144
'0:02.797',-3.90919198
'0:02.801',-3.10224868
'0:02.805',2.56428648
'0:02.809',-4.71613528
'0:02.813',-4.44715418
'0:02.816',-2.56428648
'0:02.820',-32.49291683
'0:02.824',-12.26553814
'0:02.828',-7.96184055
'0:02.832',-8.23082165
'0:02.836',-17.39411111
'0:02.840',-12.53451924
'0:02.844',-11.45859484
'0:02.848',-10.11368934
'0:02.852',-10.11368934
'0:02.855',-1.21938098
'0:02.859',-10.65165154
'0:02.863',-9.57572715
'0:02.867',4.71613528
'0:02.871',18.20105441
'0:02.875',28.97823046
'0:02.879',23.5806764
'0:02.883',25.48147617
'0:02.887',36.79661442
'0:02.891',31.93702256
'0:02.895',44.07703619
'0:02.898',56.48603091
'0:02.902',58.36889861
'0:02.906',68.33913137
'0:02.910',78.30936413
'0:02.914',75.35057203
'0:02.918',74.54362873
'0:02.922',76.69547753
'0:02.926',68.33913137
'0:02.930',76.15751533
'0:02.934',73.46770434
'0:02.938',74.81260983
'0:02.941',78.04038303
'0:02.945',52.97134455
'0:02.949',44.07703619
'0:02.953',40.84926299
'0:02.957',26.55740057
'0:02.961',14.95534914
'0:02.965',5.52307858
'0:02.969',-5.52307858
'0:02.973',-9.03776495
'0:02.977',-21.4288276
'0:02.980',-16.04920561
'0:02.984',-11.45859484
'0:02.988',-23.86758957
'0:02.992',-25.75045727
'0:02.996',-35.72069003
'0:03.000',-30.32313596
'0:03.004',-43.00111179
'0:03.008',-41.11824409
'0:03.012',-43.27009289
'0:03.016',-51.62643905
'0:03.020',-59.98278521
'0:03.023',-57.56195531
'0:03.027',-58.63787971
'0:03.031',-61.59667181
'0:03.035',-51.89542015
'0:03.039',-58.36889861
'0:03.043',-55.94806872
'0:03.047',-58.63787971
'0:03.051',-62.69052828
'0:03.055',-52.16440125
'0:03.059',-57.02399311
'0:03.063',-54.31625004
'0:03.066',-58.36889861
'0:03.070',-63.49747158
'0:03.074',-52.43338235
'0:03.078',-56.21704982
'0:03.082',-53.24032565
'0:03.086',-58.09991751
'0:03.090',-48.66764695
'0:03.094',-53.24032565
'0:03.098',-39.23537639
'0:03.102',-51.35745795
'0:03.105',-41.65620629
'0:03.109',-34.10680343
'0:03.113',-23.0427142
'0:03.117',-22.504752
'0:03.121',-32.49291683
'0:03.125',-23.86758957
'0:03.129',-34.91374673
'0:03.133',-24.13657067
'0:03.137',-22.504752
'0:03.141',-15.78022451
'0:03.145',-7.96184055
'0:03.148',-4.17817308
'0:03.152',-8.76878385
'0:03.156',-4.71613528
'0:03.160',-13.61044364
'0:03.164',-7.40594628
'0:03.168',-5.52307858
'0:03.172',-10.11368934
'0:03.176',-4.44715418
'0:03.180',3.64021088
'0:03.184',-6.86798408
'0:03.188',-5.79205968
'0:03.191',4.71613528
'0:03.195',10.38267044
'0:03.199',4.44715418
'0:03.203',26.28841947
'0:03.207',40.31130079
'0:03.211',34.64476563
'0:03.215',28.17128716
'0:03.219',24.13657067
'0:03.223',27.63332497
'0:03.227',23.0427142
'0:03.230',1.48836208
'0:03.234',-3.10224868
'0:03.238',-21.6978087
'0:03.242',-34.91374673
'0:03.246',-57.02399311
'0:03.250',-48.66764695
'0:03.254',-53.77828785
'0:03.258',-54.31625004
'0:03.262',-65.38033927
'0:03.266',-56.48603091
'0:03.270',-50.81949575
'0:03.273',-55.41010652
'0:03.277',-52.97134455
'0:03.281',-47.05376036
'0:03.285',-55.94806872
'0:03.289',-51.62643905
'0:03.293',-55.94806872
'0:03.297',-52.43338235
'0:03.301',-45.95990388
'0:03.305',-40.04231969
'0:03.309',-36.79661442
'0:03.313',-40.31130079
'0:03.316',-4.17817308
'0:03.320',17.12513001
'0:03.324',53.77828785
'0:03.328',88.56651006
'0:03.332',133.307033
'0:03.336',124.9506868
'0:03.340',-34.91374673
'0:03.344',-211.7598537
'0:03.348',-249.506868
'0:03.352',-167.2883119
'0:03.355',-110.4077754
'0:03.359',-36.79661442
'0:03.363',9.84470825
'0:03.367',28.17128716
'0:03.371',-13.07248144
'0:03.375',-35.98967113
'0:03.379',-48.66764695
'0:03.383',-25.21249507
'0:03.387',-24.13657067
'0:03.391',-29.51619266
'0:03.395',-49.47459025
'0:03.398',-46.76684718
'0:03.402',-26.82638167
'0:03.406',-11.18961374
'0:03.410',-29.78517376
'0:03.414',-45.95990388
'0:03.418',-28.70924936
'0:03.422',-13.07248144
'0:03.426',-13.87942474
'0:03.430',-28.70924936
'0:03.434',-27.09536277
'0:03.438',-27.90230606
'0:03.441',-14.41738694
'0:03.445',-15.22433024
'0:03.449',-12.80350034
'0:03.453',-10.38267044
'0:03.457',-11.18961374
'0:03.461',1.75734318
'0:03.465',0.12552451
'0:03.469',2.83326758
'0:03.473',-9.57572715
'0:03.477',-9.57572715
'0:03.480',1.75734318
'0:03.484',14.14840584
'0:03.488',16.85614891
'0:03.492',22.504752
'0:03.496',23.8496575
'0:03.500',34.64476563
'0:03.504',30.32313596
'0:03.508',48.12968475
'0:03.512',37.87253882
'0:03.516',40.58028189
'0:03.520',36.25865223
'0:03.523',61.86565291
'0:03.527',61.32769071
'0:03.531',52.97134455
'0:03.535',58.36889861
'0:03.539',69.41505577
'0:03.543',76.69547753
'0:03.547',75.88853423
'0:03.551',84.24488039
'0:03.555',74.54362873
'0:03.559',71.02894237
'0:03.563',77.50242083
'0:03.566',74.54362873
'0:03.570',82.0930316
'0:03.574',74.00566654
'0:03.578',72.39177994
'0:03.582',78.57834523
'0:03.586',73.46770434
'0:03.590',64.57339598
'0:03.594',73.73668544
'0:03.598',72.39177994
'0:03.602',62.94157731
'0:03.605',58.09991751
'0:03.609',48.12968475
'0:03.613',25.48147617
'0:03.617',10.11368934
'0:03.621',0.39450561
'0:03.625',-7.13696518
'0:03.629',-3.10224868
'0:03.633',-24.40555177
'0:03.637',-21.1598465
'0:03.641',-30.32313596
'0:03.645',-23.59860847
'0:03.648',-36.79661442
'0:03.652',-40.84926299
'0:03.656',-36.52763332
'0:03.660',-29.78517376
'0:03.664',-39.77333859
'0:03.668',-37.06559552
'0:03.672',-41.38722519
'0:03.676',-36.25865223
'0:03.680',-44.34601729
'0:03.684',-38.94846322
'0:03.688',-38.14151992
'0:03.691',-42.73213069
'0:03.695',-35.98967113
'0:03.699',-42.73213069
'0:03.703',-37.87253882
'0:03.707',-38.94846322
'0:03.711',-43.80805509
'0:03.715',-35.72069003
'0:03.719',-41.11824409
'0:03.723',-36.79661442
'0:03.727',-39.23537639
'0:03.730',-44.88397949
'0:03.734',-35.72069003
'0:03.738',-40.04231969
'0:03.742',-51.35745795
'0:03.746',-38.94846322
'0:03.750',-46.49786608
'0:03.754',-36.79661442
'0:03.758',-38.94846322
'0:03.762',-33.83782233
'0:03.766',-23.32962737
'0:03.770',-31.68597353
'0:03.773',-36.52763332
'0:03.777',-36.52763332
'0:03.781',-32.49291683
'0:03.785',-40.04231969
'0:03.789',-33.03087903
'0:03.793',-37.33457662
'0:03.797',-35.72069003
'0:03.801',-30.86109816
'0:03.805',-39.50435749
'0:03.809',-34.10680343
'0:03.813',-22.504752
'0:03.816',-35.45170893
'0:03.820',-13.34146254
'0:03.824',-23.0427142
'0:03.828',-3.64021088
'0:03.832',-7.96184055
'0:03.836',-2.56428648
'0:03.840',-10.92063264
'0:03.844',-5.52307858
'0:03.848',-4.98511638
'0:03.852',21.4288276
'0:03.855',27.63332497
'0:03.859',38.14151992
'0:03.863',44.34601729
'0:03.867',43.53907399
'0:03.871',37.33457662
'0:03.875',44.34601729
'0:03.879',23.5806764
'0:03.883',14.14840584
'0:03.887',-3.64021088
'0:03.891',-11.72757594
'0:03.895',-20.6218843
'0:03.898',-24.40555177
'0:03.902',-18.20105441
'0:03.906',-6.06104078
'0:03.910',-13.87942474
'0:03.914',-4.71613528
'0:03.918',-21.9667898
'0:03.922',-16.04920561
'0:03.926',-6.59900298
'0:03.930',-16.31818671
'0:03.934',-20.8908654
'0:03.938',-4.71613528
'0:03.941',-0.14345659
'0:03.945',-7.13696518
'0:03.949',-0.68141879
'0:03.953',-4.98511638
'0:03.957',-3.64021088
'0:03.961',1.21938098
'0:03.965',39.21744432
'0:03.969',74.27464763
'0:03.973',118.2082272
'0:03.977',170.5160851
'0:03.980',225.2447728
'0:03.984',170.5160851
'0:03.988',-7.96184055
'0:03.992',-210.1459671
'0:03.996',-231.9872324
'0:04.000',-141.394398
'0:04.004',-84.24488039
'0:04.008',-28.17128716
'0:04.012',27.36434387
'0:04.016',47.57379048
'0:04.020',29.78517376
'0:04.023',4.71613528
'0:04.027',20.3529032
'0:04.031',38.14151992
'0:04.035',30.05415486
'0:04.039',3.37122978
'0:04.043',9.30674605
'0:04.047',16.58716781
'0:04.051',31.39906036
'0:04.055',29.24721156
'0:04.059',24.40555177
'0:04.063',-2.56428648
'0:04.066',15.22433024
'0:04.070',41.11824409
'0:04.074',41.38722519
'0:04.078',28.17128716
'0:04.082',19.2769788
'0:04.086',15.22433024
'0:04.090',20.8908654
'0:04.094',38.67948212
'0:04.098',13.87942474
'0:04.102',7.67492738
'0:04.105',0.39450561
'0:04.109',32.22393573
'0:04.113',18.47003551
'0:04.117',16.31818671
'0:04.121',11.99655704
'0:04.125',16.58716781
'0:04.129',28.17128716
'0:04.133',31.66804146
'0:04.137',17.93207331
'0:04.141',31.93702256
'0:04.145',32.49291683
'0:04.148',25.21249507
'0:04.152',30.32313596
'0:04.156',35.18272783
'0:04.160',33.56884123
'0:04.164',33.03087903
'0:04.168',39.21744432
'0:04.172',58.90686081
'0:04.176',66.18728257
'0:04.180',67.80116917
'0:04.184',67.26320697
'0:04.188',85.85876699
'0:04.191',87.75956676
'0:04.195',97.72979952
'0:04.199',102.3024782
'0:04.203',85.58978589
'0:04.207',101.2265538
'0:04.211',116.0563784
'0:04.215',126.8514866
'0:04.219',119.5710648
'0:04.223',120.6469892
'0:04.227',132.5000897
'0:04.230',129.0033354
'0:04.234',141.1254169
'0:04.238',121.4539325
'0:04.242',123.0678191
'0:04.246',116.3253595
'0:04.250',94.75307535
'0:04.254',92.33224545
'0:04.258',74.54362873
'0:04.262',59.98278521
'0:04.266',36.25865223
'0:04.270',28.97823046
'0:04.273',10.38267044
'0:04.277',10.38267044
'0:04.281',-18.73901661
'0:04.285',-27.09536277
'0:04.289',-36.52763332
'0:04.293',-55.41010652
'0:04.297',-53.50930675
'0:04.301',-50.28153355
'0:04.305',-44.88397949
'0:04.309',-69.95301797
'0:04.313',-70.49098017
'0:04.316',-67.80116917
'0:04.320',-65.64932037
'0:04.324',-77.23343973
'0:04.328',-86.41466126
'0:04.332',-102.0334971
'0:04.336',-191.0124449
'0:04.340',-202.058602
'0:04.344',-189.1295772
'0:04.348',-175.3756769
'0:04.352',-250.5827924
'0:04.355',-279.9734605
'0:04.359',-244.3962271
'0:04.363',-225.2447728
'0:04.367',-245.7411326
'0:04.371',-219.3092565
'0:04.375',-183.463042
'0:04.379',-102.0334971
'0:04.383',-67.26320697
'0:04.387',-38.14151992
'0:04.391',-25.48147617
'0:04.395',-2.83326758
'0:04.398',-15.51124341
'0:04.402',-44.34601729
'0:04.406',-35.98967113
'0:04.410',-45.15296059
'0:04.414',-37.87253882
'0:04.418',-14.41738694
'0:04.422',-10.92063264
'0:04.426',-5.25409748
'0:04.430',0.68141879
'0:04.434',24.67453287
'0:04.438',19.5459599
'0:04.441',24.94351397
'0:04.445',12.26553814
'0:04.449',30.05415486
'0:04.453',37.87253882
'0:04.457',21.1598465
'0:04.461',13.87942474
'0:04.465',13.87942474
'0:04.469',10.11368934
'0:04.473',33.83782233
'0:04.477',36.79661442
'0:04.480',47.86070365
'0:04.484',46.76684718
'0:04.488',40.84926299
'0:04.492',48.39866585
'0:04.496',53.50930675
'0:04.500',34.64476563
'0:04.504',63.76645268
'0:04.508',68.87709357
'0:04.512',91.52530216
'0:04.516',85.85876699
'0:04.520',56.21704982
'0:04.523',37.33457662
'0:04.527',21.1598465
'0:04.531',7.94390847
'0:04.535',19.5459599
'0:04.539',8.21288957
'0:04.543',5.79205968
'0:04.547',19.5459599
'0:04.551',20.3529032
'0:04.555',18.47003551
'0:04.559',27.09536277
'0:04.563',8.21288957
'0:04.566',3.90919198
'0:04.570',2.56428648
'0:04.574',0.95039989
'0:04.578',-3.90919198
'0:04.582',-5.79205968
'0:04.586',2.83326758
'0:04.590',-0.41243769
'0:04.594',30.86109816
'0:04.598',43.53907399
'0:04.602',28.17128716
'0:04.605',67.80116917
'0:04.609',107.4310512
'0:04.613',137.3596815
'0:04.617',155.6862605
'0:04.621',191.5504071
'0:04.625',104.4722591
'0:04.629',-71.85381774
'0:04.633',-274.0379443
'0:04.637',-250.8517735
'0:04.641',-147.5988954
'0:04.645',-87.22160456
'0:04.648',-25.48147617
'0:04.652',46.22888498
'0:04.656',61.05870961
'0:04.660',-5.52307858
'0:04.664',-26.28841947
'0:04.668',-40.04231969
'0:04.672',-9.03776495
'0:04.676',-22.504752
'0:04.680',-34.10680343
'0:04.684',-54.87214432
'0:04.688',-42.19416849
'0:04.691',-30.05415486
'0:04.695',-23.59860847
'0:04.699',-45.95990388
'0:04.703',-66.18728257
'0:04.707',-58.90686081
'0:04.711',-35.18272783
'0:04.715',-42.19416849
'0:04.719',-42.46314959
'0:04.723',-46.76684718
'0:04.727',-43.80805509
'0:04.730',-22.7737331
'0:04.734',-27.09536277
'0:04.738',-38.94846322
'0:04.742',-42.46314959
'0:04.746',-28.97823046
'0:04.750',-27.09536277
'0:04.754',-12.80350034
'0:04.758',-20.3529032
'0:04.762',-23.0427142
'0:04.766',-12.80350034
'0:04.770',1.48836208
'0:04.773',1.21938098
'0:04.777',-1.75734318
'0:04.781',11.99655704
'0:04.785',2.83326758
'0:04.789',14.95534914
'0:04.793',31.39906036
'0:04.797',30.59211706
'0:04.801',30.59211706
'0:04.805',35.98967113
'0:04.809',44.88397949
'0:04.813',45.15296059
'0:04.816',47.86070365
'0:04.820',49.20560915
'0:04.824',52.43338235
'0:04.828',58.36889861
'0:04.832',74.54362873
'0:04.836',79.4032206
'0:04.840',83.16895599
'0:04.844',85.85876699
'0:04.848',89.37345336
'0:04.852',88.83549116
'0:04.855',95.57795072
'0:04.859',84.78284259
'0:04.863',86.93469139
'0:04.867',87.75956676
'0:04.871',101.4955349
'0:04.875',94.21511315
'0:04.879',87.22160456
'0:04.883',73.73668544
'0:04.887',71.29792347
'0:04.891',66.99422587
'0:04.895',60.78972851
'0:04.898',40.58028189
'0:04.902',27.90230606
'0:04.906',23.0427142
'0:04.910',16.03127354
'0:04.914',10.92063264
'0:04.918',9.03776495
'0:04.922',-2.83326758
'0:04.926',-9.03776495
'0:04.930',-1.75734318
'0:04.934',-7.13696518
'0:04.938',-6.59900298
'0:04.941',-1.48836208
'0:04.945',-9.03776495
'0:04.949',-18.47003551
'0:04.953',-22.7737331
'0:04.957',-21.6978087
'0:04.961',-17.12513001
'0:04.965',-25.48147617
'0:04.969',-19.814941
'0:04.973',-23.59860847
'0:04.977',-21.1598465
'0:04.980',-31.14801133
'0:04.984',-24.67453287
'0:04.988',-6.06104078
'0:04.992',-10.38267044
'0:04.996',-4.71613528
'0:05.000',-12.26553814
'0:05.004',-37.87253882
'0:05.008',-37.06559552
'0:05.012',-43.80805509
'0:05.016',-38.41050102
'0:05.020',-28.70924936
'0:05.023',-37.60355772
'0:05.027',-21.6978087
'0:05.031',-28.70924936
'0:05.035',-37.60355772
'0:05.039',-41.92518739
'0:05.043',-36.25865223
'0:05.047',-23.86758957
'0:05.051',-31.14801133
'0:05.055',-21.4288276
'0:05.059',-24.13657067
'0:05.063',-34.37578453
'0:05.066',-23.32962737
'0:05.070',-16.85614891
'0:05.074',-38.41050102
'0:05.078',-21.9667898
'0:05.082',-17.39411111
'0:05.086',-9.03776495
'0:05.090',-2.83326758
'0:05.094',-6.59900298
'0:05.098',-4.17817308
'0:05.102',-14.68636804
'0:05.105',-8.23082165
'0:05.109',-20.0839221
'0:05.113',-23.32962737
'0:05.117',-34.91374673
'0:05.121',-59.71380411
'0:05.125',-70.22199907
'0:05.129',-69.41505577
'0:05.133',-74.54362873
'0:05.137',-68.33913137
'0:05.141',-59.17584191
'0:05.145',-69.68403687
'0:05.148',-53.77828785
'0:05.152',-59.44482301
'0:05.156',-52.16440125
'0:05.160',-57.29297421
'0:05.164',-51.89542015
'0:05.168',-54.04726895
'0:05.172',-60.25176631
'0:05.176',-51.89542015
'0:05.180',-56.21704982
'0:05.184',-35.72069003
'0:05.188',-23.86758957
'0:05.191',-30.05415486
'0:05.195',-19.0079977
'0:05.199',-6.06104078
'0:05.203',27.90230606
'0:05.207',53.24032565
'0:05.211',94.48409425
'0:05.215',138.704587
'0:05.219',154.6103361
'0:05.223',160.0078901
'0:05.227',30.05415486
'0:05.230',-130.0792598
'0:05.234',-215.5435211
'0:05.238',-137.8976437
'0:05.242',-71.31585554
'0:05.246',-7.40594628
'0:05.250',69.68403687
'0:05.254',106.893089
'0:05.258',95.57795072
'0:05.262',84.78284259
'0:05.266',123.8747624
'0:05.270',158.6629846
'0:05.273',119.0331026
'0:05.277',10.38267044
'0:05.281',-12.53451924
'0:05.285',-19.814941
'0:05.289',-13.61044364
'0:05.293',27.63332497
'0:05.297',53.77828785
'0:05.301',114.980454
'0:05.305',109.0449378
'0:05.309',38.41050102
'0:05.313',3.90919198
'0:05.316',10.92063264
'0:05.320',0.95039989
'0:05.324',8.49980275
'0:05.328',32.49291683
'0:05.332',92.60122655
'0:05.336',150.0197253
'0:05.340',146.7919521
'0:05.344',96.65387512
'0:05.348',26.28841947
'0:05.352',16.85614891
'0:05.355',3.90919198
'0:05.359',-16.31818671
'0:05.363',-17.39411111
'0:05.367',5.52307858
'0:05.371',26.55740057
'0:05.375',34.37578453
'0:05.379',35.45170893
'0:05.383',18.47003551
'0:05.387',37.33457662
'0:05.391',39.21744432
'0:05.395',48.93662805
'0:05.398',37.87253882
'0:05.402',37.33457662
'0:05.406',52.16440125
'0:05.410',66.99422587
'0:05.414',63.2105584
'0:05.418',57.02399311
'0:05.422',56.75501201
'0:05.426',51.62643905
'0:05.430',79.4032206
'0:05.434',76.15751533
'0:05.438',89.64243446
'0:05.441',90.98733996
'0:05.445',83.97589929
'0:05.449',78.57834523
'0:05.453',76.15751533
'0:05.457',89.91141556
'0:05.461',90.44937776
'0:05.465',83.16895599
'0:05.469',77.77140193
'0:05.473',75.88853423
'0:05.477',58.90686081
'0:05.480',60.25176631
'0:05.484',81.5550694
'0:05.488',119.5710648
'0:05.492',103.6653158
'0:05.496',48.12968475
'0:05.500',-24.13657067
'0:05.504',-55.41010652
'0:05.508',-75.88853423
'0:05.512',-65.11135818
'0:05.516',-23.86758957
'0:05.520',49.20560915
'0:05.523',-8.76878385
'0:05.527',-66.99422587
'0:05.531',-117.670265
'0:05.535',-147.5988954
'0:05.539',-161.0838145
'0:05.543',-126.5825055
'0:05.547',-92.06326435
'0:05.551',-75.88853423
'0:05.555',-81.5550694
'0:05.559',-105.2792024
'0:05.563',-89.37345336
'0:05.566',-108.7759567
'0:05.570',-140.8564358
'0:05.574',-143.2951978
'0:05.578',-120.109027
'0:05.582',-123.6057813
'0:05.586',-126.3135244
'0:05.590',-94.23304522
'0:05.594',-96.38489402
'0:05.598',-86.12774809
'0:05.602',-72.12279884
'0:05.605',-78.04038303
'0:05.609',-48.12968475
'0:05.613',-18.47003551
'0:05.617',-37.06559552
'0:05.621',-50.55051465
'0:05.625',-73.19872324
'0:05.629',-126.3135244
'0:05.633',-113.6355485
'0:05.637',-118.2261593
'0:05.641',-101.4955349
'0:05.645',-92.06326435
'0:05.648',-65.11135818
'0:05.652',-66.72524477
'0:05.656',-66.72524477
'0:05.660',-80.479145
'0:05.664',-74.00566654
'0:05.668',-51.89542015
'0:05.672',-38.41050102
'0:05.676',-50.28153355
'0:05.680',-59.44482301
'0:05.684',-54.87214432
'0:05.688',-37.87253882
'0:05.691',-41.92518739
'0:05.695',-33.83782233
'0:05.699',-40.58028189
'0:05.703',-52.16440125
'0:05.707',-53.50930675
'0:05.711',-43.53907399
'0:05.715',-35.98967113
'0:05.719',-24.67453287
'0:05.723',-19.2769788
'0:05.727',-5.79205968
'0:05.730',3.10224868
'0:05.734',-3.64021088
'0:05.738',-5.79205968
'0:05.742',-0.95039989
'0:05.746',9.30674605
'0:05.750',0.95039989
'0:05.754',-3.37122978
'0:05.758',-3.64021088
'0:05.762',-30.59211706
'0:05.766',-37.33457662
'0:05.770',-32.49291683
'0:05.773',-38.14151992
'0:05.777',-51.62643905
'0:05.781',-44.34601729
'0:05.785',-53.24032565
'0:05.789',-50.01255245
'0:05.793',-70.77789334
'0:05.797',-50.55051465
'0:05.801',-59.98278521
'0:05.805',-53.50930675
'0:05.809',-51.08847685
'0:05.813',-55.41010652
'0:05.816',-65.38033927
'0:05.820',-57.29297421
'0:05.824',-68.60811247
'0:05.828',-52.43338235
'0:05.832',-41.92518739
'0:05.836',-19.0079977
'0:05.840',-9.03776495
'0:05.844',12.53451924
'0:05.848',42.46314959
'0:05.852',67.80116917
'0:05.855',107.4310512
'0:05.859',120.109027
'0:05.863',-42.46314959
'0:05.867',-224.9757917
'0:05.871',-253.2905355
'0:05.875',-160.0078901
'0:05.879',-99.34368612
'0:05.883',-44.07703619
'0:05.887',13.07248144
'0:05.891',24.40555177
'0:05.895',-20.8908654
'0:05.898',-55.14112542
'0:05.902',-71.58483664
'0:05.906',-55.41010652
'0:05.910',-45.42194168
'0:05.914',-53.50930675
'0:05.918',-68.07015027
'0:05.922',-69.95301797
'0:05.926',-42.19416849
'0:05.930',-48.12968475
'0:05.934',-67.26320697
'0:05.938',-78.8652584
'0:05.941',-68.87709357
'0:05.945',-61.86565291
'0:05.949',-51.08847685
'0:05.953',-81.5550694
'0:05.957',-89.91141556
'0:05.961',-82.8999749
'0:05.965',-65.38033927
'0:05.969',-70.77789334
'0:05.973',-49.20560915
'0:05.977',-55.94806872
'0:05.980',-64.57339598
'0:05.984',-64.03543378
'0:05.988',-55.67908762
'0:05.992',-50.55051465
'0:05.996',-39.50435749
'0:06.000',-47.59172255
'0:06.004',-31.68597353
'0:06.008',-24.67453287
'0:06.012',-34.37578453
'0:06.016',-21.4288276
'0:06.020',-30.05415486
'0:06.023',-16.31818671
'0:06.027',5.25409748
'0:06.031',11.72757594
'0:06.035',-3.90919198
'0:06.039',5.79205968
'0:06.043',16.03127354
'0:06.047',18.73901661
'0:06.051',10.92063264
'0:06.055',13.87942474
'0:06.059',22.7737331
'0:06.063',30.86109816
'0:06.066',48.39866585
'0:06.070',57.29297421
'0:06.074',46.76684718
'0:06.078',57.56195531
'0:06.082',64.03543378
'0:06.086',47.30480938
'0:06.090',56.75501201
'0:06.094',47.03582828
'0:06.098',42.46314959
'0:06.102',48.39866585
'0:06.105',45.95990388
'0:06.109',54.31625004
'0:06.113',46.49786608
'0:06.117',28.70924936
'0:06.121',19.2769788
'0:06.125',14.14840584
'0:06.129',19.5459599
'0:06.133',-3.37122978
'0:06.137',-17.66309221
'0:06.141',-26.28841947
'0:06.145',-34.10680343
'0:06.148',-46.49786608
'0:06.152',-52.43338235
'0:06.156',-65.11135818
'0:06.160',-72.92974214
'0:06.164',-81.5550694
'0:06.168',-79.9411828
'0:06.172',-70.77789334
'0:06.176',-66.18728257
'0:06.180',-71.58483664
'0:06.184',-79.4032206
'0:06.188',-63.76645268
'0:06.191',-72.39177994
'0:06.195',-66.45626367
'0:06.199',-69.95301797
'0:06.203',-77.50242083
'0:06.207',-63.76645268
'0:06.211',-73.46770434
'0:06.215',-66.45626367
'0:06.219',-68.60811247
'0:06.223',-60.52074741
'0:06.227',-64.03543378
'0:06.230',-42.46314959
'0:06.234',-35.98967113
'0:06.238',-66.72524477
'0:06.242',-71.85381774
'0:06.246',-93.13918875
'0:06.250',-91.52530216
'0:06.254',-117.1323028
'0:06.258',-98.80572392
'0:06.262',-73.73668544
'0:06.266',-64.03543378
'0:06.270',-60.52074741
'0:06.273',-51.62643905
'0:06.277',-48.93662805
'0:06.281',-24.67453287
'0:06.285',-16.58716781
'0:06.289',-13.34146254
'0:06.293',-18.47003551
'0:06.297',-14.41738694
'0:06.301',-7.13696518
'0:06.305',-0.95039989
'0:06.309',-14.14840584
'0:06.313',-2.56428648
'0:06.316',1.75734318
'0:06.320',9.30674605
'0:06.324',-15.78022451
'0:06.328',-28.17128716
'0:06.332',-34.10680343
'0:06.336',-30.86109816
'0:06.340',-39.23537639
'0:06.344',-16.31818671
'0:06.348',0.68141879
'0:06.352',-19.814941
'0:06.355',3.10224868
'0:06.359',26.01943837
'0:06.363',30.05415486
'0:06.367',31.93702256
'0:06.371',29.24721156
'0:06.375',36.25865223
'0:06.379',43.27009289
'0:06.383',46.22888498
'0:06.387',46.76684718
'0:06.391',44.34601729
'0:06.395',21.6978087
'0:06.398',-0.68141879
'0:06.402',0.39450561
'0:06.406',-3.90919198
'0:06.410',-7.96184055
'0:06.414',-11.45859484
'0:06.418',0.39450561
'0:06.422',-14.68636804
'0:06.426',-4.17817308
'0:06.430',21.4288276
'0:06.434',2.29530538
'0:06.438',2.83326758
'0:06.441',-10.11368934
'0:06.445',-3.64021088
'0:06.449',-13.34146254
'0:06.453',0.39450561
'0:06.457',2.56428648
'0:06.461',6.86798408
'0:06.465',-2.83326758
'0:06.469',17.93207331
'0:06.473',45.15296059
'0:06.477',79.6722017
'0:06.480',117.670265
'0:06.484',140.8564358
'0:06.488',161.6217767
'0:06.492',220.3851809
'0:06.496',253.8284977
'0:06.500',138.704587
'0:06.504',-17.39411111
'0:06.508',-201.7896209
'0:06.512',-160.2768712
'0:06.516',-71.58483664
'0:06.520',-2.02632428
'0:06.523',64.03543378
'0:06.527',119.3020837
'0:06.531',104.203278
'0:06.535',53.77828785
'0:06.539',24.94351397
'0:06.543',62.94157731
'0:06.547',62.40361511
'0:06.551',52.70236345
'0:06.555',41.92518739
'0:06.559',28.44026826
'0:06.563',29.51619266
'0:06.566',42.73213069
'0:06.570',50.28153355
'0:06.574',27.36434387
'0:06.578',31.39906036
'0:06.582',29.24721156
'0:06.586',54.85421224
'0:06.590',32.22393573
'0:06.594',45.42194168
'0:06.598',33.83782233
'0:06.602',44.61499839
'0:06.605',52.16440125
'0:06.609',62.13463401
'0:06.613',61.86565291
'0:06.617',52.16440125
'0:06.621',46.22888498
'0:06.625',66.72524477
'0:06.629',59.44482301
'0:06.633',61.59667181
'0:06.637',38.94846322
'0:06.641',47.86070365
'0:06.645',64.30441488
'0:06.648',55.94806872
'0:06.652',61.59667181
'0:06.656',57.02399311
'0:06.660',64.57339598
'0:06.664',78.30936413
'0:06.668',85.32080479
'0:06.672',76.96445863
'0:06.676',75.35057203
'0:06.680',82.0930316
'0:06.684',92.60122655
'0:06.688',98.53674282
'0:06.691',92.33224545
'0:06.695',93.13918875
'0:06.699',114.7114729
'0:06.703',106.893089
'0:06.707',97.19183732
'0:06.711',123.8747624
'0:06.715',124.1437435
'0:06.719',114.980454
'0:06.723',124.1437435
'0:06.727',112.5596241
'0:06.730',137.6286626
'0:06.734',123.3368002
'0:06.738',116.3253595
'0:06.742',109.5829
'0:06.746',127.1204677
'0:06.750',118.2082272
'0:06.754',107.1620701
'0:06.758',102.5714593
'0:06.762',79.11630743
'0:06.766',62.94157731
'0:06.770',68.87709357
'0:06.773',41.38722519
'0:06.777',23.3116953
'0:06.781',16.58716781
'0:06.785',-2.29530538
'0:06.789',2.29530538
'0:06.793',7.13696518
'0:06.797',-9.57572715
'0:06.801',-14.14840584
'0:06.805',-17.39411111
'0:06.809',-14.95534914
'0:06.813',4.71613528
'0:06.816',-10.38267044
'0:06.820',-12.53451924
'0:06.824',-15.51124341
'0:06.828',-15.22433024
'0:06.832',-27.90230606
'0:06.836',-25.75045727
'0:06.840',-12.80350034
'0:06.844',-16.58716781
'0:06.848',-15.78022451
'0:06.852',-11.45859484
'0:06.855',-9.57572715
'0:06.859',-12.26553814
'0:06.863',-31.14801133
'0:06.867',0.39450561
'0:06.871',-13.61044364
'0:06.875',-25.75045727
'0:06.879',-25.75045727
'0:06.883',-30.05415486
'0:06.887',-1.75734318
'0:06.891',-15.78022451
'0:06.895',-24.94351397
'0:06.898',-7.69285945
'0:06.902',1.75734318
'0:06.906',-18.73901661
'0:06.910',-14.68636804
'0:06.914',-8.49980275
'0:06.918',-8.49980275
'0:06.922',1.48836208
'0:06.926',-17.93207331
'0:06.930',-13.87942474
'0:06.934',-8.76878385
'0:06.938',-9.30674605
'0:06.941',1.21938098
'0:06.945',-2.02632428
'0:06.949',1.75734318
'0:06.953',-8.23082165
'0:06.957',7.67492738
'0:06.961',-14.14840584
'0:06.965',-16.85614891
'0:06.969',1.21938098
'0:06.973',-10.38267044
'0:06.977',-8.49980275
'0:06.980',-12.26553814
'0:06.984',-0.95039989
'0:06.988',-0.41243769
'0:06.992',-10.65165154
'0:06.996',-7.13696518
'0:07.000',4.44715418
'0:07.004',13.87942474
'0:07.008',29.51619266
'0:07.012',36.25865223
'0:07.016',25.75045727
'0:07.020',38.94846322
'0:07.023',30.86109816
'0:07.027',29.24721156
'0:07.031',19.814941
'0:07.035',10.38267044
'0:07.039',-7.69285945
'0:07.043',-31.14801133
'0:07.047',-19.0079977
'0:07.051',-31.14801133
'0:07.055',-39.23537639
'0:07.059',-23.32962737
'0:07.063',-30.86109816
'0:07.066',-35.45170893
'0:07.070',-46.49786608
'0:07.074',-23.59860847
'0:07.078',-24.67453287
'0:07.082',-15.22433024
'0:07.086',-18.73901661
'0:07.090',-29.51619266
'0:07.094',-23.0427142
'0:07.098',-8.76878385
'0:07.102',-15.78022451
'0:07.105',-18.20105441
'0:07.109',2.29530538
'0:07.113',7.40594628
'0:07.117',22.504752
'0:07.121',63.76645268
'0:07.125',106.6241079
'0:07.129',111.7526808
'0:07.133',136.8217193
'0:07.137',184.2699853
'0:07.141',160.2768712
'0:07.145',-11.99655704
'0:07.148',-218.5023132
'0:07.152',-248.4309436
'0:07.156',-148.9438009
'0:07.160',-62.95950938
'0:07.164',-2.02632428
'0:07.168',81.5550694
'0:07.172',94.48409425
'0:07.176',41.11824409
'0:07.180',0.12552451
'0:07.184',-28.70924936
'0:07.188',-4.17817308
'0:07.191',7.40594628
'0:07.195',-23.0427142
'0:07.199',-43.00111179
'0:07.203',-12.26553814
'0:07.207',4.98511638
'0:07.211',3.37122978
'0:07.215',12.26553814
'0:07.219',-6.33002188
'0:07.223',4.17817308
'0:07.227',17.93207331
'0:07.230',17.12513001
'0:07.234',14.14840584
'0:07.238',-2.29530538
'0:07.242',4.98511638
'0:07.246',14.68636804
'0:07.250',29.51619266
'0:07.254',30.05415486
'0:07.258',16.85614891
'0:07.262',23.3116953
'0:07.266',28.97823046
'0:07.270',42.19416849
'0:07.273',30.05415486
'0:07.277',35.72069003
'0:07.281',24.67453287
'0:07.285',43.27009289
'0:07.289',54.85421224
'0:07.293',45.42194168
'0:07.297',54.31625004
'0:07.301',42.73213069
'0:07.305',58.09991751
'0:07.309',68.07015027
'0:07.313',75.61955313
'0:07.316',71.58483664
'0:07.320',61.59667181
'0:07.324',74.27464763
'0:07.328',81.2860883
'0:07.332',89.37345336
'0:07.336',88.02854786
'0:07.340',95.02205645
'0:07.344',90.44937776
'0:07.348',96.11591292
'0:07.352',103.9342969
'0:07.355',103.6653158
'0:07.359',96.11591292
'0:07.363',106.893089
'0:07.367',94.75307535
'0:07.371',102.8404404
'0:07.375',103.6653158
'0:07.379',96.65387512
'0:07.383',106.6241079
'0:07.387',109.0449378
'0:07.391',101.2265538
'0:07.395',88.83549116
'0:07.398',82.6309938
'0:07.402',74.81260983
'0:07.406',75.08159093
'0:07.410',51.62643905
'0:07.414',41.65620629
'0:07.418',35.98967113
'0:07.422',10.92063264
'0:07.426',10.11368934
'0:07.430',1.75734318
'0:07.434',-7.69285945
'0:07.438',-11.45859484
'0:07.441',-20.3529032
'0:07.445',-22.7737331
'0:07.449',-31.41699243
'0:07.453',-40.04231969
'0:07.457',-26.82638167
'0:07.461',-36.52763332
'0:07.465',-23.86758957
'0:07.469',-32.49291683
'0:07.473',-24.13657067
'0:07.477',-10.38267044
'0:07.480',-19.814941
'0:07.484',-23.0427142
'0:07.488',-16.31818671
'0:07.492',-9.03776495
'0:07.496',-26.01943837
'0:07.500',-17.66309221
'0:07.504',-22.7737331
'0:07.508',-17.93207331
'0:07.512',-10.38267044
'0:07.516',-25.21249507
'0:07.520',-16.04920561
'0:07.523',-21.9667898
'0:07.527',-19.2769788
'0:07.531',-27.09536277
'0:07.535',-24.40555177
'0:07.539',-30.86109816
'0:07.543',-37.33457662
'0:07.547',-35.72069003
'0:07.551',-43.80805509
'0:07.555',-40.31130079
'0:07.559',-45.95990388
'0:07.563',-52.70236345
'0:07.566',-51.89542015
'0:07.570',-45.15296059
'0:07.574',-56.75501201
'0:07.578',-59.98278521
'0:07.582',-51.35745795
'0:07.586',-52.97134455
'0:07.590',-62.13463401
'0:07.594',-55.94806872
'0:07.598',-74.27464763
'0:07.602',-66.18728257
'0:07.605',-69.41505577
'0:07.609',-79.1342395
'0:07.613',-71.85381774
'0:07.617',-73.46770434
'0:07.621',-65.91830147
'0:07.625',-69.68403687
'0:07.629',-63.49747158
'0:07.633',-71.58483664
'0:07.637',-71.85381774
'0:07.641',-64.57339598
'0:07.645',-54.58523114
'0:07.648',-34.10680343
'0:07.652',-9.84470825
'0:07.656',-23.0427142
'0:07.660',-28.17128716
'0:07.664',-19.2769788
'0:07.668',-19.2769788
'0:07.672',-42.73213069
'0:07.676',-52.70236345
'0:07.680',-42.46314959
'0:07.684',-67.80116917
'0:07.688',-67.80116917
'0:07.691',-75.08159093
'0:07.695',-69.41505577
'0:07.699',-89.64243446
'0:07.703',-82.0930316
'0:07.707',-84.24488039
'0:07.711',-92.60122655
'0:07.715',-85.32080479
'0:07.719',-88.56651006
'0:07.723',-66.18728257
'0:07.727',-69.41505577
'0:07.730',-76.69547753
'0:07.734',-67.80116917
'0:07.738',-70.77789334
'0:07.742',-80.7481261
'0:07.746',-68.87709357
'0:07.750',-62.40361511
'0:07.754',-38.14151992
'0:07.758',-7.96184055
'0:07.762',-0.68141879
'0:07.766',27.63332497
'0:07.770',49.20560915
'0:07.773',57.56195531
'0:07.777',89.37345336
'0:07.781',127.6584299
'0:07.785',-47.32274146
'0:07.789',-235.4839867
'0:07.793',-400.2080121
'0:07.797',-357.619338
'0:07.801',-250.3138113
'0:07.805',-174.5687336
'0:07.809',-106.0861457
'0:07.813',-13.61044364
'0:07.816',19.0079977
'0:07.820',-14.68636804
'0:07.824',-35.45170893
'0:07.828',-54.04726895
'0:07.832',-46.22888498
'0:07.836',-44.61499839
'0:07.840',-92.06326435
'0:07.844',-97.99878062
'0:07.848',-73.73668544
'0:07.852',-52.43338235
'0:07.855',-45.42194168
'0:07.859',-55.41010652
'0:07.863',-47.86070365
'0:07.867',-28.70924936
'0:07.871',-23.0427142
'0:07.875',-26.82638167
'0:07.879',-34.37578453
'0:07.883',-30.59211706
'0:07.887',14.41738694
'0:07.891',19.5459599
'0:07.895',-8.49980275
'0:07.898',-10.38267044
'0:07.902',3.64021088
'0:07.906',9.30674605
'0:07.910',15.22433024
'0:07.914',9.03776495
'0:07.918',-5.52307858
'0:07.922',-9.30674605
'0:07.926',6.86798408
'0:07.930',41.11824409
'0:07.934',53.50930675
'0:07.938',60.78972851
'0:07.941',43.53907399
'0:07.945',72.12279884
'0:07.949',85.32080479
'0:07.953',98.53674282
'0:07.957',79.11630743
'0:07.961',95.57795072
'0:07.965',103.3963347
'0:07.969',113.3665674
'0:07.973',112.8286052
'0:07.977',113.3665674
'0:07.980',114.1735107
'0:07.984',119.0331026
'0:07.988',126.2955923
'0:07.992',141.6633791
'0:07.996',144.9090844
'0:08.000',132.5000897
'0:08.004',121.4539325
'0:08.008',125.488649
'0:08.012',138.1666248
'0:08.016',142.4882545
'0:08.020',148.6748198
'0:08.023',122.798838
'0:08.027',95.30896962
'0:08.031',90.71835886
'0:08.035',92.87020765
'0:08.039',98.26776172
'0:08.043',73.73668544
'0:08.047',78.84732633
'0:08.051',73.73668544
'0:08.055',75.88853423
'0:08.059',35.98967113
'0:08.063',13.07248144
'0:08.066',30.05415486
'0:08.070',36.25865223
'0:08.074',71.02894237
'0:08.078',128.4653732
'0:08.082',153.8033928
'0:08.086',142.4882545
'0:08.090',106.6241079
'0:08.094',78.57834523
'0:08.098',67.80116917
'0:08.102',71.02894237
'0:08.105',119.0331026
'0:08.109',84.78284259
'0:08.113',-11.99655704
'0:08.117',-32.22393573
'0:08.121',-38.14151992
'0:08.125',-49.20560915
'0:08.129',-50.81949575
'0:08.133',-31.41699243
'0:08.137',-32.49291683
'0:08.141',-35.72069003
'0:08.145',-31.68597353
'0:08.148',-21.1598465
'0:08.152',-2.29530538
'0:08.156',-0.14345659
'0:08.160',-0.41243769
'0:08.164',2.29530538
'0:08.168',-6.06104078
'0:08.172',11.99655704
'0:08.176',15.76229244
'0:08.180',17.12513001
'0:08.184',19.5459599
'0:08.188',24.67453287
'0:08.191',10.65165154
'0:08.195',17.12513001
'0:08.199',19.2769788
'0:08.203',19.2769788
'0:08.207',7.13696518
'0:08.211',-5.79205968
'0:08.215',-13.07248144
'0:08.219',-10.92063264
'0:08.223',-13.07248144
'0:08.227',-11.45859484
'0:08.230',22.2357709
'0:08.234',32.49291683
'0:08.238',84.78284259
'0:08.242',129.5412976
'0:08.246',99.34368612
'0:08.250',-17.93207331
'0:08.254',-49.47459025
'0:08.258',-23.32962737
'0:08.262',-8.49980275
'0:08.266',7.40594628
'0:08.270',40.31130079
'0:08.273',61.86565291
'0:08.277',45.95990388
'0:08.281',-0.14345659
'0:08.285',-20.0839221
'0:08.289',-26.55740057
'0:08.293',-37.87253882
'0:08.297',-64.57339598
'0:08.301',-91.79428326
'0:08.305',-84.78284259
'0:08.309',-65.38033927
'0:08.313',-43.80805509
'0:08.316',-47.59172255
'0:08.320',-54.58523114
'0:08.324',-50.28153355
'0:08.328',-5.25409748
'0:08.332',30.05415486
'0:08.336',16.31818671
'0:08.340',-76.15751533
'0:08.344',-102.3204103
'0:08.348',-85.32080479
'0:08.352',-60.25176631
'0:08.355',-54.87214432
'0:08.359',-74.27464763
'0:08.363',-81.2860883
'0:08.367',-83.43793709
'0:08.371',-62.69052828
'0:08.375',-26.82638167
'0:08.379',18.20105441
'0:08.383',60.25176631
'0:08.387',107.4310512
'0:08.391',175.644658
'0:08.395',134.9388516
'0:08.398',-16.04920561
'0:08.402',-219.0402754
'0:08.406',-230.1043647
'0:08.410',-158.3940035
'0:08.414',-132.7690708
'0:08.418',-156.7621848
'0:08.422',-118.2261593
'0:08.426',-81.2860883
'0:08.430',-77.77140193
'0:08.434',-83.97589929
'0:08.438',-60.25176631
'0:08.441',-23.59860847
'0:08.445',-47.59172255
'0:08.449',-71.04687444
'0:08.453',-94.77100742
'0:08.457',-62.69052828
'0:08.461',-30.32313596
'0:08.465',-18.47003551
'0:08.469',-35.45170893
'0:08.473',-41.92518739
'0:08.477',-14.95534914
'0:08.480',13.61044364
'0:08.484',11.99655704
'0:08.488',-14.95534914
'0:08.492',-51.62643905
'0:08.496',-60.52074741
'0:08.500',-52.70236345
'0:08.504',-39.77333859
'0:08.508',-48.66764695
'0:08.512',-66.45626367
'0:08.516',-43.80805509
'0:08.520',-23.0427142
'0:08.523',5.25409748
'0:08.527',-0.68141879
'0:08.531',-15.22433024
'0:08.535',-8.76878385
'0:08.539',8.76878385
'0:08.543',3.90919198
'0:08.547',-0.14345659
'0:08.551',1.75734318
'0:08.555',22.2357709
'0:08.559',23.0427142
'0:08.563',35.98967113
'0:08.566',63.76645268
'0:08.570',33.56884123
'0:08.574',24.67453287
'0:08.578',72.66076104
'0:08.582',80.2101639
'0:08.586',77.23343973
'0:08.590',52.43338235
'0:08.594',44.61499839
'0:08.598',72.66076104
'0:08.602',92.60122655
'0:08.605',120.3780081
'0:08.609',99.07470502
'0:08.613',49.47459025
'0:08.617',47.86070365
'0:08.621',45.69092278
'0:08.625',51.35745795
'0:08.629',45.95990388
'0:08.633',78.84732633
'0:08.637',94.48409425
'0:08.641',63.76645268
'0:08.645',39.75540652
'0:08.648',47.57379048
'0:08.652',43.80805509
'0:08.656',13.61044364
'0:08.660',-12.53451924
'0:08.664',-37.33457662
'0:08.668',-50.01255245
'0:08.672',-55.67908762
'0:08.676',-52.70236345
'0:08.680',-45.42194168
'0:08.684',-7.69285945
'0:08.688',-36.25865223
'0:08.691',-53.50930675
'0:08.695',-63.49747158
'0:08.699',-74.81260983
'0:08.703',-103.3963347
'0:08.707',-116.5943406
'0:08.711',-103.6653158
'0:08.715',-113.9045296
'0:08.719',-106.3551268
'0:08.723',-117.9571782
'0:08.727',-116.5943406
'0:08.730',-105.0102213
'0:08.734',-83.16895599
'0:08.738',-74.54362873
'0:08.742',-52.97134455
'0:08.746',-52.43338235
'0:08.750',-87.22160456
'0:08.754',-78.8652584
'0:08.758',-72.39177994
'0:08.762',-70.49098017
'0:08.766',-70.22199907
'0:08.770',-56.21704982
'0:08.773',-78.04038303
'0:08.777',-68.87709357
'0:08.781',-68.60811247
'0:08.785',-71.58483664
'0:08.789',-58.63787971
'0:08.793',-47.05376036
'0:08.797',-36.25865223
'0:08.801',-34.91374673
'0:08.805',-23.32962737
'0:08.809',-27.63332497
'0:08.813',-45.95990388
'0:08.816',-48.39866585
'0:08.820',-33.03087903
'0:08.824',-41.65620629
'0:08.828',-61.05870961
'0:08.832',-45.15296059
'0:08.836',-47.59172255
'0:08.840',-48.39866585
'0:08.844',-57.02399311
'0:08.848',-46.22888498
'0:08.852',-31.41699243
'0:08.855',-16.04920561
'0:08.859',-14.95534914
'0:08.863',-23.0427142
'0:08.867',-29.51619266
'0:08.871',-15.78022451
'0:08.875',-16.31818671
'0:08.879',-13.87942474
'0:08.883',-22.2357709
'0:08.887',0.95039989
'0:08.891',-2.02632428
'0:08.895',0.39450561
'0:08.898',4.71613528
'0:08.902',10.38267044
'0:08.906',14.95534914
'0:08.910',12.80350034
'0:08.914',-13.34146254
'0:08.918',-38.41050102
'0:08.922',-50.81949575
'0:08.926',-66.72524477
'0:08.930',-39.50435749
'0:08.934',-33.03087903
'0:08.938',-38.41050102
'0:08.941',-47.86070365
'0:08.945',-79.6722017
'0:08.949',-70.77789334
'0:08.953',-66.45626367
'0:08.957',-71.85381774
'0:08.961',-63.76645268
'0:08.965',-63.76645268
'0:08.969',-55.94806872
'0:08.973',-66.18728257
'0:08.977',-54.04726895
'0:08.980',-47.05376036
'0:08.984',-48.66764695
'0:08.988',-40.58028189
'0:08.992',-33.83782233
'0:08.996',-21.4288276
'0:09.000',-14.68636804
'0:09.004',45.15296059
'0:09.008',82.0930316
'0:09.012',122.798838
'0:09.016',155.6862605
'0:09.020',164.8495499
'0:09.023',37.33457662
'0:09.027',-140.0494925
'0:09.031',-275.1138687
'0:09.035',-212.8537102
'0:09.039',-115.5184162
'0:09.043',-54.04726895
'0:09.047',9.03776495
'0:09.051',64.84237708
'0:09.055',52.97134455
'0:09.059',9.30674605
'0:09.063',-13.34146254
'0:09.066',-7.96184055
'0:09.070',-4.17817308
'0:09.074',3.64021088
'0:09.078',-20.3529032
'0:09.082',-12.53451924
'0:09.086',4.44715418
'0:09.090',8.21288957
'0:09.094',5.25409748
'0:09.098',-0.14345659
'0:09.102',-26.55740057
'0:09.105',2.56428648
'0:09.109',19.814941
'0:09.113',19.814941
'0:09.117',3.64021088
'0:09.121',-6.59900298
'0:09.125',32.22393573
'0:09.129',30.86109816
'0:09.133',35.18272783
'0:09.137',23.8496575
'0:09.141',27.90230606
'0:09.145',15.22433024
'0:09.148',-2.02632428
'0:09.152',4.17817308
'0:09.156',8.49980275
'0:09.160',26.01943837
'0:09.164',43.53907399
'0:09.168',74.54362873
'0:09.172',67.80116917
'0:09.176',45.42194168
'0:09.180',47.30480938
'0:09.184',43.27009289
'0:09.188',54.31625004
'0:09.191',49.74357135
'0:09.195',77.77140193
'0:09.199',94.75307535
'0:09.203',105.2792024
'0:09.207',55.12319334
'0:09.211',38.94846322
'0:09.215',33.83782233
'0:09.219',29.78517376
'0:09.223',36.79661442
'0:09.227',65.64932037
'0:09.230',67.26320697
'0:09.234',67.53218807
'0:09.238',81.5550694
'0:09.242',85.05182369
'0:09.246',79.11630743
'0:09.250',66.99422587
'0:09.254',54.58523114
'0:09.258',52.43338235
'0:09.262',52.16440125
'0:09.266',74.27464763
'0:09.270',62.94157731
'0:09.273',55.94806872
'0:09.277',25.75045727
'0:09.281',-7.69285945
'0:09.285',-21.9667898
'0:09.289',-20.8908654
'0:09.293',-27.36434387
'0:09.297',-22.2357709
'0:09.301',-69.41505577
'0:09.305',-83.97589929
'0:09.309',-70.22199907
'0:09.313',-47.86070365
'0:09.316',-56.48603091
'0:09.320',-113.3665674
'0:09.324',-126.3135244
'0:09.328',-87.49058566
'0:09.332',-70.77789334
'0:09.336',-106.3551268
'0:09.340',-123.6057813
'0:09.344',-122.5298569
'0:09.348',-136.5527382
'0:09.352',-151.3825629
'0:09.355',-137.6286626
'0:09.359',-125.2196679
'0:09.363',-109.0449378
'0:09.367',-105.0102213
'0:09.371',-101.764516
'0:09.375',-87.49058566
'0:09.379',-76.42649643
'0:09.383',-77.23343973
'0:09.387',-87.75956676
'0:09.391',-98.80572392
'0:09.395',-85.85876699
'0:09.398',-77.50242083
'0:09.402',-48.12968475
'0:09.406',-41.92518739
'0:09.410',-49.74357135
'0:09.414',-65.11135818
'0:09.418',-57.56195531
'0:09.422',-33.29986013
'0:09.426',-60.78972851
'0:09.430',-64.57339598
'0:09.434',-62.13463401
'0:09.438',-57.02399311
'0:09.441',-35.45170893
'0:09.445',-31.41699243
'0:09.449',-48.66764695
'0:09.453',-58.09991751
'0:09.457',-53.24032565
'0:09.461',-67.26320697
'0:09.465',-49.74357135
'0:09.469',-35.98967113
'0:09.473',-27.63332497
'0:09.477',-34.91374673
'0:09.480',-31.95495463
'0:09.484',-18.20105441
'0:09.488',-6.86798408
'0:09.492',3.10224868
'0:09.496',-0.68141879
'0:09.500',-27.90230606
'0:09.504',-46.76684718
'0:09.508',-54.58523114
'0:09.512',-47.05376036
'0:09.516',-35.18272783
'0:09.520',-28.97823046
'0:09.523',-31.14801133
'0:09.527',8.21288957
'0:09.531',14.68636804
'0:09.535',13.61044364
'0:09.539',22.2357709
'0:09.543',33.83782233
'0:09.547',38.41050102
'0:09.551',46.22888498
'0:09.555',31.39906036
'0:09.559',-5.79205968
'0:09.563',-10.92063264
'0:09.566',-26.28841947
'0:09.570',-21.1598465
'0:09.574',-19.0079977
'0:09.578',-22.2357709
'0:09.582',-41.92518739
'0:09.586',-56.21704982
'0:09.590',-52.70236345
'0:09.594',-36.79661442
'0:09.598',-40.31130079
'0:09.602',-26.28841947
'0:09.605',-24.40555177
'0:09.609',-20.6218843
'0:09.613',-35.45170893
'0:09.617',-37.87253882
'0:09.621',-26.01943837
'0:09.625',-26.01943837
'0:09.629',-21.9667898
'0:09.633',-19.0079977
'0:09.637',-5.52307858
'0:09.641',5.52307858
'0:09.645',51.62643905
'0:09.648',86.39672919
'0:09.652',107.1620701
'0:09.656',155.4172794
'0:09.660',197.4679913
'0:09.664',87.49058566
'0:09.668',-104.4722591
'0:09.672',-284.8330524
'0:09.676',-223.6308862
'0:09.680',-177.2585446
'0:09.684',-147.5988954
'0:09.688',-68.07015027
'0:09.691',2.02632428
'0:09.695',-10.65165154
'0:09.699',-37.06559552
'0:09.703',-57.83093641
'0:09.707',-52.16440125
'0:09.711',-34.10680343
'0:09.715',-27.63332497
'0:09.719',-35.18272783
'0:09.723',-56.21704982
'0:09.727',-37.06559552
'0:09.730',-20.6218843
'0:09.734',-12.26553814
'0:09.738',-16.85614891
'0:09.742',-22.504752
'0:09.746',-21.9667898
'0:09.750',-5.79205968
'0:09.754',3.90919198
'0:09.758',-14.95534914
'0:09.762',-5.25409748
'0:09.766',7.94390847
'0:09.770',23.0427142
'0:09.773',20.6218843
'0:09.777',20.6218843
'0:09.781',12.53451924
'0:09.785',22.504752
'0:09.789',36.52763332
'0:09.793',20.8908654
'0:09.797',23.5806764
'0:09.801',13.87942474
'0:09.805',20.6218843
'0:09.809',64.57339598
'0:09.813',66.18728257
'0:09.816',41.92518739
'0:09.820',35.18272783
'0:09.824',37.60355772
'0:09.828',45.42194168
'0:09.832',48.12968475
'0:09.836',58.09991751
'0:09.840',51.62643905
'0:09.844',68.87709357
'0:09.848',44.88397949
'0:09.852',64.84237708
'0:09.855',74.00566654
'0:09.859',66.45626367
'0:09.863',83.97589929
'0:09.867',76.42649643
'0:09.871',81.0171072
'0:09.875',75.61955313
'0:09.879',98.53674282
'0:09.883',159.2009468
'0:09.887',212.566797
'0:09.891',160.0078901
'0:09.895',71.58483664
'0:09.898',48.12968475
'0:09.902',47.57379048
'0:09.906',58.09991751
'0:09.910',70.75996127
'0:09.914',84.24488039
'0:09.918',81.5550694
'0:09.922',66.99422587
'0:09.926',44.61499839
'0:09.930',38.41050102
'0:09.934',50.01255245
'0:09.938',32.22393573
'0:09.941',4.98511638
'0:09.945',-1.21938098
'0:09.949',4.44715418
'0:09.953',-1.75734318
'0:09.957',-15.78022451
'0:09.961',-39.77333859
'0:09.965',-47.32274146
'0:09.969',-60.78972851
'0:09.973',-67.80116917
'0:09.977',-49.20560915
'0:09.980',-56.48603091
'0:09.984',-62.95950938
'0:09.988',-75.61955313
'0:09.992',-82.8999749
'0:09.996',-80.7481261
'0:10.000',-72.66076104
'0:10.004',-79.6722017
'0:10.008',-91.52530216
'0:10.012',-97.72979952
'0:10.016',-64.84237708
'0:10.020',-74.00566654
'0:10.023',-79.4032206
'0:10.027',-58.63787971
'0:10.031',-66.18728257
'0:10.035',-79.6722017
'0:10.039',-86.41466126
'0:10.043',-62.69052828
'0:10.047',-77.50242083
'0:10.051',-67.53218807
'0:10.055',-62.69052828
'0:10.059',-53.24032565
'0:10.063',-31.14801133
'0:10.066',-46.22888498
'0:10.070',-34.91374673
'0:10.074',-13.87942474
'0:10.078',-36.25865223
'0:10.082',-44.34601729
'0:10.086',-44.34601729
'0:10.090',-36.79661442
'0:10.094',-31.95495463
'0:10.098',-20.3529032
'0:10.102',-12.26553814
'0:10.105',-12.53451924
'0:10.109',-4.98511638
'0:10.113',-14.95534914
'0:10.117',-2.56428648
'0:10.121',4.17817308
'0:10.125',-13.07248144
'0:10.129',10.65165154
'0:10.133',31.66804146
'0:10.137',43.53907399
'0:10.141',52.43338235
'0:10.145',52.16440125
'0:10.148',43.80805509
'0:10.152',48.93662805
'0:10.156',59.98278521
'0:10.160',67.26320697
'0:10.164',66.72524477
'0:10.168',59.71380411
'0:10.172',34.91374673
'0:10.176',15.49331134
'0:10.180',4.98511638
'0:10.184',0.95039989
'0:10.188',23.0427142
'0:10.191',15.49331134
'0:10.195',15.76229244
'0:10.199',23.0427142
'0:10.203',17.12513001
'0:10.207',6.33002188
'0:10.211',15.49331134
'0:10.215',15.76229244
'0:10.219',7.67492738
'0:10.223',2.02632428
'0:10.227',6.06104078
'0:10.230',-1.75734318
'0:10.234',15.49331134
'0:10.238',7.67492738
'0:10.242',2.56428648
'0:10.246',21.4288276
'0:10.250',28.17128716
'0:10.254',30.59211706
'0:10.258',56.48603091
'0:10.262',96.65387512
'0:10.266',129.2723165
'0:10.270',184.8079475
'0:10.273',205.8422695
'0:10.277',111.2147187
'0:10.281',-45.95990388
'0:10.285',-234.1390812
'0:10.289',-209.876986
'0:10.293',-149.212782
'0:10.297',-60.78972851
'0:10.301',-13.61044364
'0:10.305',38.14151992
'0:10.309',68.87709357
'0:10.313',66.99422587
'0:10.316',57.29297421
'0:10.320',68.60811247
'0:10.324',53.50930675
'0:10.328',7.94390847
'0:10.332',-22.7737331
'0:10.336',-21.1598465
'0:10.340',13.07248144
'0:10.344',28.70924936
'0:10.348',37.87253882
'0:10.352',29.51619266
'0:10.355',30.86109816
'0:10.359',44.61499839
'0:10.363',57.02399311
'0:10.367',52.43338235
'0:10.371',48.39866585
'0:10.375',19.0079977
'0:10.379',29.78517376
'0:10.383',37.60355772
'0:10.387',33.03087903
'0:10.391',2.02632428
'0:10.395',7.13696518
'0:10.398',28.44026826
'0:10.402',16.85614891
'0:10.406',-0.14345659
'0:10.410',5.25409748
'0:10.414',39.48642542
'0:10.418',56.48603091
'0:10.422',61.32769071
'0:10.426',48.66764695
'0:10.430',41.38722519
'0:10.434',27.90230606
'0:10.438',56.48603091
'0:10.441',25.48147617
'0:10.445',-15.51124341
'0:10.449',12.53451924
'0:10.453',11.72757594
'0:10.457',21.4288276
'0:10.461',22.7737331
'0:10.465',45.69092278
'0:10.469',43.80805509
'0:10.473',47.30480938
'0:10.477',40.84926299
'0:10.480',53.77828785
'0:10.484',104.203278
'0:10.488',119.0331026
'0:10.492',128.7343543
'0:10.496',141.394398
'0:10.500',135.2078327
'0:10.504',119.3020837
'0:10.508',119.8400459
'0:10.512',114.1735107
'0:10.516',125.488649
'0:10.520',101.4955349
'0:10.523',85.85876699
'0:10.527',57.02399311
'0:10.531',21.9667898
'0:10.535',0.39450561
'0:10.539',3.37122978
'0:10.543',14.68636804
'0:10.547',19.2769788
'0:10.551',22.2357709
'0:10.555',4.44715418
'0:10.559',5.52307858
'0:10.563',-3.10224868
'0:10.566',0.68141879
'0:10.570',5.79205968
'0:10.574',-40.31130079
'0:10.578',-85.32080479
'0:10.582',-66.18728257
'0:10.586',-84.51386149
'0:10.590',-93.13918875
'0:10.594',-117.4012839
'0:10.598',-130.3482409
'0:10.602',-115.7873973
'0:10.605',-89.64243446
'0:10.609',-65.38033927
'0:10.613',-83.97589929
'0:10.617',-92.60122655
'0:10.621',-80.7481261
'0:10.625',-90.98733996
'0:10.629',-82.6309938
'0:10.633',-67.53218807
'0:10.637',-75.88853423
'0:10.641',-64.30441488
'0:10.645',-28.44026826
'0:10.648',-52.16440125
'0:10.652',-95.03998852
'0:10.656',-100.6885916
'0:10.660',-79.9411828
'0:10.664',-66.72524477
'0:10.668',-41.38722519
'0:10.672',-31.95495463
'0:10.676',-49.20560915
'0:10.680',-58.63787971
'0:10.684',-48.66764695
'0:10.688',-28.44026826
'0:10.691',-4.17817308
'0:10.695',-17.12513001
'0:10.699',-22.504752
'0:10.703',-28.97823046
'0:10.707',-13.07248144
'0:10.711',8.49980275
'0:10.715',-2.83326758
'0:10.719',-3.90919198
'0:10.723',-9.84470825
'0:10.727',-27.90230606
'0:10.730',-8.49980275
'0:10.734',-4.98511638
'0:10.738',-20.6218843
'0:10.742',-23.59860847
'0:10.746',-11.18961374
'0:10.750',-26.01943837
'0:10.754',-21.4288276
'0:10.758',-20.0839221
'0:10.762',-23.32962737
'0:10.766',-42.19416849
'0:10.770',-10.11368934
'0:10.773',7.40594628
'0:10.777',-21.4288276
'0:10.781',-19.814941
'0:10.785',-23.0427142
'0:10.789',-11.18961374
'0:10.793',-10.92063264
'0:10.797',9.30674605
'0:10.801',11.72757594
'0:10.805',9.84470825
'0:10.809',-8.76878385
'0:10.813',-39.77333859
'0:10.816',-52.70236345
'0:10.820',-52.70236345
'0:10.824',-56.48603091
'0:10.828',-43.00111179
'0:10.832',-56.75501201
'0:10.836',-52.16440125
'0:10.840',-51.89542015
'0:10.844',-86.68364236
'0:10.848',-88.56651006
'0:10.852',-73.19872324
'0:10.855',-56.21704982
'0:10.859',-23.59860847
'0:10.863',-7.96184055
'0:10.867',-38.14151992
'0:10.871',-82.3620127
'0:10.875',-82.3620127
'0:10.879',-57.29297421
'0:10.883',-30.86109816
'0:10.887',-26.55740057
'0:10.891',-33.03087903
'0:10.895',0.39450561
'0:10.898',7.13696518
'0:10.902',31.93702256
'0:10.906',67.26320697
'0:10.910',138.9735681
'0:10.914',80.2101639
'0:10.918',-44.07703619
'0:10.922',-203.1345264
'0:10.926',-179.9483556
'0:10.930',-100.6885916
'0:10.934',-71.31585554
'0:10.938',-22.504752
'0:10.941',23.0427142
'0:10.945',17.39411111
'0:10.949',-12.53451924
'0:10.953',-31.95495463
'0:10.957',-21.9667898
'0:10.961',-12.80350034
'0:10.965',-16.31818671
'0:10.969',-26.82638167
'0:10.973',-30.32313596
'0:10.977',-23.0427142
'0:10.980',-14.95534914
'0:10.984',-16.31818671
'0:10.988',-24.94351397
'0:10.992',-28.97823046
'0:10.996',-23.59860847
'0:11.000',-16.58716781
'0:11.004',-16.85614891
'0:11.008',-38.94846322
'0:11.012',-57.83093641
'0:11.016',-54.87214432
'0:11.020',-50.81949575
'0:11.023',-50.81949575
'0:11.027',-54.58523114
'0:11.031',-72.39177994
'0:11.035',-69.95301797
'0:11.039',-51.89542015
'0:11.043',-21.9667898
'0:11.047',-24.40555177
'0:11.051',-22.7737331
'0:11.055',-34.64476563
'0:11.059',-18.20105441
'0:11.063',8.76878385
'0:11.066',-25.48147617
'0:11.070',-82.3620127
'0:11.074',-76.69547753
'0:11.078',-36.25865223
'0:11.082',-30.86109816
'0:11.086',-28.70924936
'0:11.090',-16.85614891
'0:11.094',4.17817308
'0:11.098',27.63332497
'0:11.102',33.03087903
'0:11.105',4.98511638
'0:11.109',-13.07248144
'0:11.113',-9.03776495
'0:11.117',10.38267044
'0:11.121',13.87942474
'0:11.125',33.83782233
'0:11.129',17.93207331
'0:11.133',-5.52307858
'0:11.137',-0.68141879
'0:11.141',-1.75734318
'0:11.145',-1.75734318
'0:11.148',14.41738694
'0:11.152',40.58028189
'0:11.156',47.30480938
'0:11.160',63.4795395
'0:11.164',31.39906036
'0:11.168',1.21938098
'0:11.172',26.82638167
'0:11.176',30.05415486
'0:11.180',28.97823046
'0:11.184',-0.68141879
'0:11.188',-28.70924936
'0:11.191',-19.2769788
'0:11.195',-49.20560915
'0:11.199',-51.08847685
'0:11.203',-35.18272783
'0:11.207',-18.20105441
'0:11.211',-6.33002188
'0:11.215',-14.14840584
'0:11.219',-14.95534914
'0:11.223',-33.83782233
'0:11.227',-34.91374673
'0:11.230',-69.68403687
'0:11.234',-44.07703619
'0:11.238',-62.95950938
'0:11.242',-67.53218807
'0:11.246',-68.60811247
'0:11.250',-39.23537639
'0:11.254',-44.88397949
'0:11.258',-44.88397949
'0:11.262',-34.37578453
'0:11.266',-38.14151992
'0:11.270',-39.50435749
'0:11.273',-26.82638167
'0:11.277',-42.73213069
'0:11.281',-34.10680343
'0:11.285',-54.87214432
'0:11.289',-40.04231969
'0:11.293',-57.56195531
'0:11.297',-56.75501201
'0:11.301',-50.28153355
'0:11.305',-41.92518739
'0:11.309',-26.82638167
'0:11.313',-40.31130079
'0:11.316',-52.16440125
'0:11.320',-47.59172255
'0:11.324',-44.07703619
'0:11.328',-30.32313596
'0:11.332',-24.94351397
'0:11.336',-33.83782233
'0:11.340',-44.61499839
'0:11.344',-43.27009289
'0:11.348',-16.85614891
'0:11.352',-27.09536277
'0:11.355',-31.95495463
'0:11.359',-25.75045727
'0:11.363',-27.63332497
'0:11.367',-50.01255245
'0:11.371',-41.65620629
'0:11.375',-46.76684718
'0:11.379',-26.55740057
'0:11.383',1.21938098
'0:11.387',-20.3529032
'0:11.391',-23.32962737
'0:11.395',-26.01943837
'0:11.398',-55.94806872
'0:11.402',-31.14801133
'0:11.406',-24.13657067
'0:11.410',4.17817308
'0:11.414',20.8908654
'0:11.418',10.65165154
'0:11.422',19.5459599
'0:11.426',24.13657067
'0:11.430',50.01255245
'0:11.434',51.89542015
'0:11.438',44.61499839
'0:11.441',53.77828785
'0:11.445',24.94351397
'0:11.449',-12.26553814
'0:11.453',-24.67453287
'0:11.457',-19.0079977
'0:11.461',-29.78517376
'0:11.465',-41.92518739
'0:11.469',-44.88397949
'0:11.473',-40.58028189
'0:11.477',-35.18272783
'0:11.480',-45.69092278
'0:11.484',-42.19416849
'0:11.488',-30.05415486
'0:11.492',-25.48147617
'0:11.496',-48.93662805
'0:11.500',-58.09991751
'0:11.504',-57.56195531
'0:11.508',-48.93662805
'0:11.512',-43.53907399
'0:11.516',-48.12968475
'0:11.520',-24.94351397
'0:11.523',-26.55740057
'0:11.527',12.80350034
'0:11.531',34.37578453
'0:11.535',78.84732633
'0:11.539',117.9392461
'0:11.543',148.4058387
'0:11.547',126.2955923
'0:11.551',-34.10680343
'0:11.555',-203.6724886
'0:11.559',-220.9410752
'0:11.563',-121.9918947
'0:11.566',-63.22849048
'0:11.570',11.72757594
'0:11.574',82.8999749
'0:11.578',75.08159093
'0:11.582',35.18272783
'0:11.586',-3.90919198
'0:11.590',-2.56428648
'0:11.594',13.87942474
'0:11.598',38.67948212
'0:11.602',34.10680343
'0:11.605',28.70924936
'0:11.609',14.14840584
'0:11.613',30.32313596
'0:11.617',54.31625004
'0:11.621',49.47459025
'0:11.625',13.87942474
'0:11.629',0.39450561
'0:11.633',-0.95039989
'0:11.637',5.52307858
'0:11.641',15.76229244
'0:11.645',26.82638167
'0:11.648',44.61499839
'0:11.652',46.22888498
'0:11.656',41.11824409
'0:11.660',36.25865223
'0:11.664',11.99655704
'0:11.668',26.55740057
'0:11.672',58.36889861
'0:11.676',70.22199907
'0:11.680',69.41505577
'0:11.684',62.40361511
'0:11.688',58.90686081
'0:11.691',57.83093641
'0:11.695',70.75996127
'0:11.699',69.68403687
'0:11.703',77.50242083
'0:11.707',88.29752896
'0:11.711',119.0331026
'0:11.715',133.5760141
'0:11.719',104.203278
'0:11.723',82.0930316
'0:11.727',74.27464763
'0:11.730',84.51386149
'0:11.734',98.26776172
'0:11.738',102.5714593
'0:11.742',144.1021411
'0:11.746',135.4768138
'0:11.750',132.7690708
'0:11.754',133.8449952
'0:11.758',136.8217193
'0:11.762',127.1204677
'0:11.766',148.6748198
'0:11.770',161.0838145
'0:11.773',164.3115877
'0:11.777',139.5115303
'0:11.781',145.9850088
'0:11.785',131.6931464
'0:11.789',111.2147187
'0:11.793',116.3253595
'0:11.797',123.0678191
'0:11.801',127.3894488
'0:11.805',129.0033354
'0:11.809',110.3898433
'0:11.813',102.0334971
'0:11.816',93.13918875
'0:11.820',79.6722017
'0:11.824',63.4795395
'0:11.828',45.15296059
'0:11.832',53.24032565
'0:11.836',59.98278521
'0:11.840',31.13007926
'0:11.844',0.95039989
'0:11.848',13.61044364
'0:11.852',3.10224868
'0:11.855',-4.71613528
'0:11.859',-15.78022451
'0:11.863',-0.14345659
'0:11.867',-5.79205968
'0:11.871',2.02632428
'0:11.875',-3.10224868
'0:11.879',1.75734318
'0:11.883',-0.68141879
'0:11.887',24.13657067
'0:11.891',16.58716781
'0:11.895',-16.31818671
'0:11.898',-9.84470825
'0:11.902',-16.58716781
'0:11.906',3.90919198
'0:11.910',13.07248144
'0:11.914',0.12552451
'0:11.918',9.03776495
'0:11.922',16.58716781
'0:11.926',2.56428648
'0:11.930',-3.10224868
'0:11.934',1.48836208
'0:11.938',24.67453287
'0:11.941',45.69092278
'0:11.945',32.49291683
'0:11.949',14.95534914
'0:11.953',20.8908654
'0:11.957',25.75045727
'0:11.961',28.17128716
'0:11.965',14.95534914
'0:11.969',14.68636804
'0:11.973',21.4288276
'0:11.977',10.65165154
'0:11.980',12.80350034
'0:11.984',13.87942474
'0:11.988',43.27009289
'0:11.992',20.0839221
'0:11.996',29.78517376
'0:12.000',0.39450561
'0:12.004',-16.85614891
'0:12.008',9.03776495
'0:12.012',0.68141879
'0:12.016',12.53451924
'0:12.020',2.02632428
'0:12.023',-0.14345659
'0:12.027',7.94390847
'0:12.031',-0.14345659
'0:12.035',-2.29530538
'0:12.039',3.64021088
'0:12.043',14.68636804
'0:12.047',21.1598465
'0:12.051',15.49331134
'0:12.055',31.13007926
'0:12.059',51.89542015
'0:12.063',45.15296059
'0:12.066',37.33457662
'0:12.070',48.66764695
'0:12.074',32.49291683
'0:12.078',21.6978087
'0:12.082',-0.95039989
'0:12.086',-26.55740057
'0:12.090',-31.95495463
'0:12.094',-32.49291683
'0:12.098',-43.27009289
'0:12.102',-34.10680343
'0:12.105',-28.70924936
'0:12.109',-18.20105441
'0:12.113',-0.95039989
'0:12.117',-25.21249507
'0:12.121',-15.51124341
'0:12.125',-12.80350034
'0:12.129',-19.814941
'0:12.133',-16.58716781
'0:12.137',-23.32962737
'0:12.141',-15.22433024
'0:12.145',-14.14840584
'0:12.148',-20.8908654
'0:12.152',-15.78022451
'0:12.156',9.03776495
'0:12.160',30.59211706
'0:12.164',16.03127354
'0:12.168',28.17128716
'0:12.172',64.84237708
'0:12.176',87.22160456
'0:12.180',124.4127246
'0:12.184',142.7572356
'0:12.188',1.75734318
'0:12.191',-187.4977585
'0:12.195',-260.8399383
'0:12.199',-200.1757343
'0:12.203',-140.0494925
'0:12.207',-69.95301797
'0:12.211',-3.10224868
'0:12.215',32.22393573
'0:12.219',3.37122978
'0:12.223',-16.85614891
'0:12.227',-3.37122978
'0:12.230',8.49980275
'0:12.234',14.14840584
'0:12.238',6.86798408
'0:12.242',2.02632428
'0:12.246',26.01943837
'0:12.250',35.72069003
'0:12.254',-16.31818671
'0:12.258',-17.12513001
'0:12.262',4.44715418
'0:12.266',34.10680343
'0:12.270',74.54362873
'0:12.273',47.30480938
'0:12.277',8.21288957
'0:12.281',-2.02632428
'0:12.285',16.85614891
'0:12.289',17.66309221
'0:12.293',57.56195531
'0:12.297',87.49058566
'0:12.301',110.9457376
'0:12.305',113.6355485
'0:12.309',52.16440125
'0:12.313',15.76229244
'0:12.316',28.44026826
'0:12.320',59.98278521
'0:12.324',26.82638167
'0:12.328',17.66309221
'0:12.332',47.57379048
'0:12.336',75.35057203
'0:12.340',60.25176631
'0:12.344',14.41738694
'0:12.348',34.91374673
'0:12.352',44.07703619
'0:12.355',26.01943837
'0:12.359',31.66804146
'0:12.363',31.13007926
'0:12.367',61.59667181
'0:12.371',86.39672919
'0:12.375',105.5481835
'0:12.379',53.50930675
'0:12.383',53.77828785
'0:12.387',76.15751533
'0:12.391',79.6722017
'0:12.395',87.22160456
'0:12.398',73.19872324
'0:12.402',72.66076104
'0:12.406',59.17584191
'0:12.410',76.69547753
'0:12.414',85.05182369
'0:12.418',89.37345336
'0:12.422',74.27464763
'0:12.426',75.61955313
'0:12.430',105.8171646
'0:12.434',98.26776172
'0:12.438',106.6241079
'0:12.441',77.50242083
'0:12.445',45.95990388
'0:12.449',42.19416849
'0:12.453',32.76189793
'0:12.457',9.84470825
'0:12.461',-17.12513001
'0:12.465',-18.20105441
'0:12.469',-24.94351397
'0:12.473',-33.56884123
'0:12.477',-22.2357709
'0:12.480',-32.76189793
'0:12.484',-34.64476563
'0:12.488',-56.75501201
'0:12.492',-48.66764695
'0:12.496',-69.14607467
'0:12.500',-64.03543378
'0:12.504',-67.53218807
'0:12.508',-74.54362873
'0:12.512',-80.7481261
'0:12.516',-98.53674282
'0:12.520',-109.5829
'0:12.523',-130.617222
'0:12.527',-108.5069756
'0:12.531',-100.1506294
'0:12.535',-99.88164832
'0:12.539',-106.893089
'0:12.543',-127.3894488
'0:12.547',-154.0723739
'0:12.551',-147.3299143
'0:12.555',-117.9571782
'0:12.559',-110.4077754
'0:12.563',-112.0216619
'0:12.566',-89.10447226
'0:12.570',-82.8999749
'0:12.574',-84.51386149
'0:12.578',-60.52074741
'0:12.582',-63.76645268
'0:12.586',-57.56195531
'0:12.590',-50.01255245
'0:12.594',-51.08847685
'0:12.598',-27.63332497
'0:12.602',-16.85614891
'0:12.605',19.814941
'0:12.609',28.44026826
'0:12.613',0.12552451
'0:12.617',-5.52307858
'0:12.621',-13.61044364
'0:12.625',-29.24721156
'0:12.629',-37.06559552
'0:12.633',-16.85614891
'0:12.637',-7.40594628
'0:12.641',0.95039989
'0:12.645',2.29530538
'0:12.648',-4.17817308
'0:12.652',0.39450561
'0:12.656',24.94351397
'0:12.660',31.13007926
'0:12.664',-13.34146254
'0:12.668',-16.58716781
'0:12.672',-13.61044364
'0:12.676',6.86798408
'0:12.680',11.99655704
'0:12.684',32.22393573
'0:12.688',30.32313596
'0:12.691',20.6218843
'0:12.695',26.55740057
'0:12.699',28.97823046
'0:12.703',30.05415486
'0:12.707',43.80805509
'0:12.711',51.89542015
'0:12.715',44.07703619
'0:12.719',31.66804146
'0:12.723',30.86109816
'0:12.727',41.65620629
'0:12.730',-12.26553814
'0:12.734',-15.51124341
'0:12.738',-14.14840584
'0:12.742',10.11368934
'0:12.746',19.2769788
'0:12.750',18.20105441
'0:12.754',3.90919198
'0:12.758',-9.30674605
'0:12.762',-4.71613528
'0:12.766',-0.14345659
'0:12.770',14.14840584
'0:12.773',19.2769788
'0:12.777',24.67453287
'0:12.781',28.44026826
'0:12.785',31.13007926
'0:12.789',44.61499839
'0:12.793',66.18728257
'0:12.797',88.29752896
'0:12.801',92.60122655
'0:12.805',110.6588244
'0:12.809',138.9735681
'0:12.813',176.1826202
'0:12.816',199.6377721
'0:12.820',143.83316
'0:12.824',9.30674605
'0:12.828',-164.3115877
'0:12.832',-166.7503497
'0:12.836',-116.3253595
'0:12.840',-55.94806872
'0:12.844',23.5806764
'0:12.848',101.2265538
'0:12.852',108.7759567
'0:12.855',72.92974214
'0:12.859',83.70691819
'0:12.863',72.12279884
'0:12.867',49.47459025
'0:12.871',45.69092278
'0:12.875',43.53907399
'0:12.879',19.814941
'0:12.883',-9.03776495
'0:12.887',-0.41243769
'0:12.891',26.55740057
'0:12.895',26.01943837
'0:12.898',36.25865223
'0:12.902',38.41050102
'0:12.906',14.68636804
'0:12.910',13.07248144
'0:12.914',28.97823046
'0:12.918',35.18272783
'0:12.922',50.01255245
'0:12.926',74.27464763
'0:12.930',91.79428326
'0:12.934',49.47459025
'0:12.938',11.72757594
'0:12.941',5.52307858
'0:12.945',36.25865223
'0:12.949',35.98967113
'0:12.953',17.93207331
'0:12.957',32.22393573
'0:12.961',52.70236345
'0:12.965',93.67715095
'0:12.969',80.479145
'0:12.973',54.85421224
'0:12.977',40.31130079
'0:12.980',23.5806764
'0:12.984',41.65620629
'0:12.988',58.09991751
'0:12.992',67.53218807
'0:12.996',74.00566654
'0:13.000',74.00566654
'0:13.004',73.46770434
'0:13.008',103.6653158
'0:13.012',113.0975863
'0:13.016',91.52530216
'0:13.020',94.21511315
'0:13.023',90.18039666
'0:13.027',84.78284259
'0:13.031',110.6588244
'0:13.035',152.9964495
'0:13.039',124.9506868
'0:13.043',93.67715095
'0:13.047',88.83549116
'0:13.051',94.21511315
'0:13.055',101.764516
'0:13.059',106.6241079
'0:13.063',123.3368002
'0:13.066',134.3829574
'0:13.070',126.0266112
'0:13.074',105.2792024
'0:13.078',109.8518811
'0:13.082',74.81260983
'0:13.086',53.50930675
'0:13.090',61.59667181
'0:13.094',55.67908762
'0:13.098',28.70924936
'0:13.102',42.73213069
'0:13.105',35.18272783
'0:13.109',12.26553814
'0:13.113',-20.8908654
'0:13.117',-16.04920561
'0:13.121',-23.59860847
'0:13.125',-17.39411111
'0:13.129',-6.33002188
'0:13.133',-20.6218843
'0:13.137',-29.24721156
'0:13.141',-37.33457662
'0:13.145',-34.37578453
'0:13.148',-40.58028189
'0:13.152',-67.53218807
'0:13.156',-74.00566654
'0:13.160',-53.24032565
'0:13.164',-39.23537639
'0:13.168',-28.70924936
'0:13.172',-34.91374673
'0:13.176',-37.87253882
'0:13.180',-18.73901661
'0:13.184',-9.03776495
'0:13.188',-30.59211706
'0:13.191',-48.12968475
'0:13.195',-34.37578453
'0:13.199',-34.91374673
'0:13.203',-43.00111179
'0:13.207',-32.22393573
'0:13.211',-17.66309221
'0:13.215',-2.83326758
'0:13.219',-16.85614891
'0:13.223',6.59900298
'0:13.227',-1.48836208
'0:13.230',13.07248144
'0:13.234',29.51619266
'0:13.238',16.85614891
'0:13.242',-6.86798408
'0:13.246',-0.14345659
'0:13.250',-4.44715418
'0:13.254',11.99655704
'0:13.258',16.31818671
'0:13.262',9.03776495
'0:13.266',0.12552451
'0:13.270',11.72757594
'0:13.273',11.72757594
'0:13.277',32.22393573
'0:13.281',24.40555177
'0:13.285',0.68141879
'0:13.289',13.07248144
'0:13.293',43.00111179
'0:13.297',61.05870961
'0:13.301',54.85421224
'0:13.305',50.01255245
'0:13.309',47.03582828
'0:13.313',44.88397949
'0:13.316',30.59211706
'0:13.320',38.67948212
'0:13.324',46.76684718
'0:13.328',59.71380411
'0:13.332',45.42194168
'0:13.336',3.37122978
'0:13.340',-35.98967113
'0:13.344',-32.76189793
'0:13.348',-25.21249507
'0:13.352',-23.32962737
'0:13.355',2.02632428
'0:13.359',-4.17817308
'0:13.363',-16.04920561
'0:13.367',-23.0427142
'0:13.371',-37.06559552
'0:13.375',-60.25176631
'0:13.379',-36.25865223
'0:13.383',-4.98511638
'0:13.387',3.37122978
'0:13.391',-35.45170893
'0:13.395',-37.06559552
'0:13.398',-33.29986013
'0:13.402',-24.13657067
'0:13.406',-1.21938098
'0:13.410',-5.25409748
'0:13.414',-3.10224868
'0:13.418',2.02632428
'0:13.422',23.8496575
'0:13.426',74.00566654
'0:13.430',116.8633217
'0:13.434',139.2425492
'0:13.438',26.55740057
'0:13.441',-133.0380519
'0:13.445',-260.032995
'0:13.449',-219.5782376
'0:13.453',-153.8033928
'0:13.457',-92.33224545
'0:13.461',-77.23343973
'0:13.465',-47.05376036
'0:13.469',-35.98967113
'0:13.473',-36.52763332
'0:13.477',-41.65620629
'0:13.480',-29.24721156
'0:13.484',-31.68597353
'0:13.488',-49.74357135
'0:13.492',-48.66764695
'0:13.496',-26.28841947
'0:13.500',-18.20105441
'0:13.504',-17.93207331
'0:13.508',-30.59211706
'0:13.512',-12.80350034
'0:13.516',4.71613528
'0:13.520',25.48147617
'0:13.523',58.36889861
'0:13.527',65.64932037
'0:13.531',40.04231969
'0:13.535',26.82638167
'0:13.539',11.18961374
'0:13.543',8.21288957
'0:13.547',-0.14345659
'0:13.551',-22.7737331
'0:13.555',-4.17817308
'0:13.559',-22.7737331
'0:13.563',-10.65165154
'0:13.566',-1.21938098
'0:13.570',-6.06104078
'0:13.574',-2.56428648
'0:13.578',40.04231969
'0:13.582',64.03543378
'0:13.586',60.78972851
'0:13.590',46.76684718
'0:13.594',35.72069003
'0:13.598',25.75045727
'0:13.602',45.15296059
'0:13.605',56.21704982
'0:13.609',60.78972851
'0:13.613',53.77828785
'0:13.617',44.61499839
'0:13.621',45.42194168
'0:13.625',54.04726895
'0:13.629',43.53907399
'0:13.633',39.21744432
'0:13.637',45.95990388
'0:13.641',59.17584191
'0:13.645',82.0930316
'0:13.648',105.0102213
'0:13.652',72.66076104
'0:13.656',35.98967113
'0:13.660',47.30480938
'0:13.664',47.03582828
'0:13.668',51.89542015
'0:13.672',86.12774809
'0:13.676',98.26776172
'0:13.680',95.02205645
'0:13.684',50.81949575
'0:13.688',25.48147617
'0:13.691',8.76878385
'0:13.695',16.31818671
'0:13.699',26.28841947
'0:13.703',30.59211706
'0:13.707',8.76878385
'0:13.711',-34.64476563
'0:13.715',-27.09536277
'0:13.719',-38.67948212
'0:13.723',-37.87253882
'0:13.727',-57.29297421
'0:13.730',-65.38033927
'0:13.734',-72.92974214
'0:13.738',-70.49098017
'0:13.742',-72.12279884
'0:13.746',-90.71835886
'0:13.750',-80.479145
'0:13.754',-87.49058566
'0:13.758',-85.85876699
'0:13.762',-73.19872324
'0:13.766',-76.96445863
'0:13.770',-64.84237708
'0:13.773',-99.88164832
'0:13.777',-97.46081842
'0:13.781',-104.4722591
'0:13.785',-96.11591292
'0:13.789',-83.70691819
'0:13.793',-68.07015027
'0:13.797',-79.6722017
'0:13.801',-70.49098017
'0:13.805',-79.6722017
'0:13.809',-68.33913137
'0:13.813',-52.16440125
'0:13.816',-31.95495463
'0:13.820',-23.32962737
'0:13.824',-16.04920561
'0:13.828',-19.2769788
'0:13.832',-32.76189793
'0:13.836',-28.44026826
'0:13.840',-38.67948212
'0:13.844',-49.47459025
'0:13.848',-51.89542015
'0:13.852',-33.03087903
'0:13.855',-29.24721156
'0:13.859',-23.32962737
'0:13.863',12.80350034
'0:13.867',9.84470825
'0:13.871',-30.32313596
'0:13.875',-37.60355772
'0:13.879',-36.52763332
'0:13.883',-23.59860847
'0:13.887',-11.45859484
'0:13.891',-15.22433024
'0:13.895',-18.73901661
'0:13.898',-17.12513001
'0:13.902',-23.59860847
'0:13.906',-28.97823046
'0:13.910',-16.31818671
'0:13.914',-18.47003551
'0:13.918',-16.04920561
'0:13.922',-7.69285945
'0:13.926',-14.68636804
'0:13.930',-16.58716781
'0:13.934',14.41738694
'0:13.938',30.86109816
'0:13.941',23.0427142
'0:13.945',33.56884123
'0:13.949',32.22393573
'0:13.953',31.93702256
'0:13.957',17.66309221
'0:13.961',24.13657067
'0:13.965',30.86109816
'0:13.969',-1.48836208
'0:13.973',-12.80350034
'0:13.977',-26.55740057
'0:13.980',-40.04231969
'0:13.984',-36.25865223
'0:13.988',-21.1598465
'0:13.992',0.39450561
'0:13.996',5.79205968
'0:14.000',-36.79661442
'0:14.004',-48.12968475
'0:14.008',-21.4288276
'0:14.012',-19.5459599
'0:14.016',-11.99655704
'0:14.020',-34.64476563
'0:14.023',-30.32313596
'0:14.027',-37.60355772
'0:14.031',-20.3529032
'0:14.035',-12.80350034
'0:14.039',-3.37122978
'0:14.043',-30.05415486
'0:14.047',-35.18272783
'0:14.051',-18.73901661
'0:14.055',1.48836208
'0:14.059',40.31130079
'0:14.063',92.87020765
'0:14.066',121.4539325
'0:14.070',158.1070903
'0:14.074',41.92518739
'0:14.078',-86.68364236
'0:14.082',-195.8541047
'0:14.086',-121.1849514
'0:14.090',-70.49098017
'0:14.094',-40.04231969
'0:14.098',4.98511638
'0:14.102',46.76684718
'0:14.105',27.09536277
'0:14.109',1.48836208
'0:14.113',13.61044364
'0:14.117',19.0079977
'0:14.121',11.45859484
'0:14.125',11.99655704
'0:14.129',3.64021088
'0:14.133',-32.76189793
'0:14.137',-12.53451924
'0:14.141',23.5806764
'0:14.145',38.67948212
'0:14.148',19.814941
'0:14.152',-11.18961374
'0:14.156',6.86798408
'0:14.160',36.79661442
'0:14.164',49.47459025
'0:14.168',50.55051465
'0:14.172',55.12319334
'0:14.176',41.38722519
'0:14.180',38.67948212
'0:14.184',49.47459025
'0:14.188',48.66764695
'0:14.191',37.87253882
'0:14.195',42.19416849
'0:14.199',23.8496575
'0:14.203',33.83782233
'0:14.207',62.13463401
'0:14.211',65.91830147
'0:14.215',42.19416849
'0:14.219',28.70924936
'0:14.223',52.16440125
'0:14.227',58.90686081
'0:14.230',62.13463401
'0:14.234',88.56651006
'0:14.238',76.96445863
'0:14.242',40.04231969
'0:14.246',62.67259621
'0:14.250',59.98278521
'0:14.254',37.06559552
'0:14.258',61.05870961
'0:14.262',71.58483664
'0:14.266',76.96445863
'0:14.270',90.71835886
'0:14.273',99.88164832
'0:14.277',108.2379945
'0:14.281',89.64243446
'0:14.285',64.84237708
'0:14.289',60.78972851
'0:14.293',111.7526808
'0:14.297',148.1368576
'0:14.301',103.6653158
'0:14.305',88.02854786
'0:14.309',51.89542015
'0:14.313',48.12968475
'0:14.316',79.11630743
'0:14.320',96.92285622
'0:14.324',85.05182369
'0:14.328',71.02894237
'0:14.332',37.06559552
'0:14.336',17.93207331
'0:14.340',31.39906036
'0:14.344',32.22393573
'0:14.348',4.71613528
'0:14.352',-39.23537639
'0:14.355',-42.19416849
'0:14.359',-34.10680343
'0:14.363',-21.1598465
'0:14.367',-30.86109816
'0:14.371',-22.7737331
'0:14.375',-8.76878385
'0:14.379',-17.66309221
'0:14.383',-51.35745795
'0:14.387',-44.34601729
'0:14.391',-24.13657067
'0:14.395',-27.90230606
'0:14.398',-64.30441488
'0:14.402',-63.76645268
'0:14.406',-29.51619266
'0:14.410',-28.97823046
'0:14.414',-44.34601729
'0:14.418',-28.97823046
'0:14.422',-30.86109816
'0:14.426',-30.32313596
'0:14.430',-28.70924936
'0:14.434',-27.63332497
'0:14.438',2.02632428
'0:14.441',-0.14345659
'0:14.445',-13.87942474
'0:14.449',-40.84926299
'0:14.453',-24.94351397
'0:14.457',-15.78022451
'0:14.461',-19.2769788
'0:14.465',-14.41738694
'0:14.469',-8.23082165
'0:14.473',6.86798408
'0:14.477',16.03127354
'0:14.480',-2.56428648
'0:14.484',-27.90230606
'0:14.488',-37.33457662
'0:14.492',-24.94351397
'0:14.496',-34.10680343
'0:14.500',-20.6218843
'0:14.504',-13.61044364
'0:14.508',-21.6978087
'0:14.512',-22.7737331
'0:14.516',-0.68141879
'0:14.520',9.30674605
'0:14.523',-14.95534914
'0:14.527',-34.64476563
'0:14.531',-50.28153355
'0:14.535',-47.59172255
'0:14.539',-26.01943837
'0:14.543',-50.81949575
'0:14.547',-65.91830147
'0:14.551',-47.32274146
'0:14.555',-47.05376036
'0:14.559',-28.17128716
'0:14.563',9.30674605
'0:14.566',10.92063264
'0:14.570',18.47003551
'0:14.574',21.9667898
'0:14.578',-8.49980275
'0:14.582',-36.79661442
'0:14.586',-21.1598465
'0:14.590',-16.31818671
'0:14.594',-11.72757594
'0:14.598',6.86798408
'0:14.602',-5.79205968
'0:14.605',-51.62643905
'0:14.609',-74.27464763
'0:14.613',-87.49058566
'0:14.617',-90.44937776
'0:14.621',-90.71835886
'0:14.625',-72.39177994
'0:14.629',-60.52074741
'0:14.633',-54.04726895
'0:14.637',-71.04687444
'0:14.641',-41.92518739
'0:14.645',-27.90230606
'0:14.648',-45.69092278
'0:14.652',-49.20560915
'0:14.656',-65.91830147
'0:14.660',-88.83549116
'0:14.664',-62.13463401
'0:14.668',-34.37578453
'0:14.672',-20.3529032
'0:14.676',-0.95039989
'0:14.680',24.13657067
'0:14.684',48.12968475
'0:14.688',91.52530216
'0:14.691',154.0723739
'0:14.695',81.8240505
'0:14.699',-73.73668544
'0:14.703',-250.3138113
'0:14.707',-220.1161998
'0:14.711',-150.8446007
'0:14.715',-118.7641215
'0:14.719',-54.31625004
'0:14.723',-11.18961374
'0:14.727',-37.87253882
'0:14.730',-58.36889861
'0:14.734',-47.05376036
'0:14.738',-57.02399311
'0:14.742',-63.49747158
'0:14.746',-52.97134455
'0:14.750',-55.67908762
'0:14.754',-61.86565291
'0:14.758',-58.36889861
'0:14.762',-34.91374673
'0:14.766',-22.7737331
'0:14.770',-21.1598465
'0:14.773',-10.92063264
'0:14.777',-26.28841947
'0:14.781',-50.81949575
'0:14.785',-52.16440125
'0:14.789',-50.81949575
'0:14.793',-74.54362873
'0:14.797',-60.25176631
'0:14.801',-23.86758957
'0:14.805',6.86798408
'0:14.809',-17.12513001
'0:14.813',-34.91374673
'0:14.816',-40.04231969
'0:14.820',-42.19416849
'0:14.824',-13.07248144
'0:14.828',-17.93207331
'0:14.832',-1.75734318
'0:14.836',8.21288957
'0:14.840',-26.28841947
'0:14.844',-26.55740057
'0:14.848',-45.95990388
'0:14.852',-63.76645268
'0:14.855',-57.02399311
'0:14.859',-15.78022451
'0:14.863',14.68636804
'0:14.867',16.85614891
'0:14.871',21.1598465
'0:14.875',11.45859484
'0:14.879',1.21938098
'0:14.883',-1.48836208
'0:14.887',16.58716781
'0:14.891',35.72069003
'0:14.895',10.65165154
'0:14.898',33.56884123
'0:14.902',30.05415486
'0:14.906',32.49291683
'0:14.910',52.97134455
'0:14.914',58.09991751
'0:14.918',47.86070365
'0:14.922',46.76684718
'0:14.926',19.5459599
'0:14.930',-7.13696518
'0:14.934',-4.44715418
'0:14.938',27.09536277
'0:14.941',70.22199907
'0:14.945',48.39866585
'0:14.949',45.95990388
'0:14.953',64.57339598
'0:14.957',57.83093641
'0:14.961',67.26320697
'0:14.965',2.29530538
'0:14.969',-11.99655704
'0:14.973',-12.53451924
'0:14.977',-71.85381774
'0:14.980',-78.5962773
'0:14.984',-48.66764695
'0:14.988',-64.03543378
'0:14.992',-75.88853423
'0:14.996',-53.77828785
'0:15.000',-33.83782233
'0:15.004',-36.25865223
'0:15.008',-30.32313596
'0:15.012',-70.49098017
'0:15.016',-81.0171072
'0:15.020',-66.18728257
'0:15.023',-41.92518739
'0:15.027',-19.0079977
'0:15.031',-6.59900298
'0:15.035',-14.14840584
'0:15.039',15.49331134
'0:15.043',5.52307858
'0:15.047',-33.29986013
'0:15.051',-64.30441488
'0:15.055',-43.00111179
'0:15.059',-21.6978087
'0:15.063',-17.12513001
'0:15.066',-18.47003551
'0:15.070',-28.44026826
'0:15.074',-7.96184055
'0:15.078',-21.4288276
'0:15.082',-18.47003551
'0:15.086',11.45859484
'0:15.090',17.66309221
'0:15.094',9.30674605
'0:15.098',-1.48836208
'0:15.102',-16.58716781
'0:15.105',-21.1598465
'0:15.109',-46.22888498
'0:15.113',-21.9667898
'0:15.117',-3.90919198
'0:15.121',-19.814941
'0:15.125',-5.52307858
'0:15.129',3.10224868
'0:15.133',-4.44715418
'0:15.137',-17.39411111
'0:15.141',12.26553814
'0:15.145',22.2357709
'0:15.148',1.75734318
'0:15.152',-15.78022451
'0:15.156',-13.07248144
'0:15.160',-20.8908654
'0:15.164',17.66309221
'0:15.168',44.61499839
'0:15.172',46.76684718
'0:15.176',38.94846322
'0:15.180',62.40361511
'0:15.184',33.29986013
'0:15.188',28.97823046
'0:15.191',47.86070365
'0:15.195',69.14607467
'0:15.199',59.98278521
'0:15.203',34.37578453
'0:15.207',31.66804146
'0:15.211',2.02632428
'0:15.215',-9.30674605
'0:15.219',-20.0839221
'0:15.223',-16.58716781
'0:15.227',10.92063264
'0:15.230',15.22433024
'0:15.234',-7.40594628
'0:15.238',-15.51124341
'0:15.242',-15.51124341
'0:15.246',7.40594628
'0:15.250',-18.73901661
'0:15.254',-36.25865223
'0:15.258',-12.80350034
'0:15.262',-17.93207331
'0:15.266',-11.72757594
'0:15.270',12.26553814
'0:15.273',11.72757594
'0:15.277',-10.65165154
'0:15.281',16.58716781
'0:15.285',49.47459025
'0:15.289',9.30674605
'0:15.293',-0.41243769
'0:15.297',40.84926299
'0:15.301',75.88853423
'0:15.305',121.9918947
'0:15.309',180.7552989
'0:15.313',52.43338235
'0:15.316',-99.34368612
'0:15.320',-222.0169996
'0:15.324',-150.5756196
'0:15.328',-84.24488039
'0:15.332',-4.71613528
'0:15.336',51.89542015
'0:15.340',102.5714593
'0:15.344',51.89542015
'0:15.348',-6.86798408
'0:15.352',2.02632428
'0:15.355',31.13007926
'0:15.359',31.39906036
'0:15.363',-10.92063264
'0:15.367',-2.02632428
'0:15.371',1.21938098
'0:15.375',26.01943837
'0:15.379',28.70924936
'0:15.383',-7.96184055
'0:15.387',17.66309221
'0:15.391',0.95039989
'0:15.395',7.67492738
'0:15.398',-3.37122978
'0:15.402',-6.33002188
'0:15.406',-13.61044364
'0:15.410',15.49331134
'0:15.414',50.81949575
'0:15.418',57.29297421
'0:15.422',28.44026826
'0:15.426',9.57572715
'0:15.430',3.10224868
'0:15.434',16.31818671
'0:15.438',51.35745795
'0:15.441',71.85381774
'0:15.445',26.82638167
'0:15.449',10.11368934
'0:15.453',20.3529032
'0:15.457',16.31818671
'0:15.461',35.45170893
'0:15.465',56.21704982
'0:15.469',41.65620629
'0:15.473',38.94846322
'0:15.477',34.91374673
'0:15.480',50.28153355
'0:15.484',68.87709357
'0:15.488',40.84926299
'0:15.492',41.92518739
'0:15.496',68.07015027
'0:15.500',63.4795395
'0:15.504',66.99422587
'0:15.508',58.09991751
'0:15.512',90.18039666
'0:15.516',113.9045296
'0:15.520',109.3139189
'0:15.523',84.51386149
'0:15.527',78.04038303
'0:15.531',91.25632106
'0:15.535',110.9457376
'0:15.539',121.4539325
'0:15.543',68.60811247
'0:15.547',66.45626367
'0:15.551',77.50242083
'0:15.555',91.79428326
'0:15.559',116.0563784
'0:15.563',97.72979952
'0:15.566',53.24032565
'0:15.570',36.52763332
'0:15.574',15.49331134
'0:15.578',16.85614891
'0:15.582',27.09536277
'0:15.586',32.22393573
'0:15.590',21.1598465
'0:15.594',-11.18961374
'0:15.598',-42.46314959
'0:15.602',-22.2357709
'0:15.605',-21.9667898
'0:15.609',-29.51619266
'0:15.613',-55.41010652
'0:15.617',-54.58523114
'0:15.621',-55.94806872
'0:15.625',-57.56195531
'0:15.629',-16.04920561
'0:15.633',-8.49980275
'0:15.637',-36.79661442
'0:15.641',-51.62643905
'0:15.645',-40.31130079
'0:15.648',-34.37578453
'0:15.652',-41.38722519
'0:15.656',-50.81949575
'0:15.660',-19.814941
'0:15.664',19.0079977
'0:15.668',-20.3529032
'0:15.672',-19.814941
'0:15.676',-13.87942474
'0:15.680',-20.8908654
'0:15.684',-15.51124341
'0:15.688',-5.52307858
'0:15.691',-4.17817308
'0:15.695',18.47003551
'0:15.699',10.92063264
'0:15.703',16.03127354
'0:15.707',-4.44715418
'0:15.711',-17.12513001
'0:15.715',-11.45859484
'0:15.719',-6.33002188
'0:15.723',27.36434387
'0:15.727',39.21744432
'0:15.730',15.76229244
'0:15.734',-4.98511638
'0:15.738',-17.39411111
'0:15.742',9.30674605
'0:15.746',1.75734318
'0:15.750',-2.02632428
'0:15.754',-17.66309221
'0:15.758',-44.88397949
'0:15.762',-37.60355772
'0:15.766',-33.56884123
'0:15.770',-6.86798408
'0:15.773',-3.64021088
'0:15.777',4.71613528
'0:15.781',-3.37122978
'0:15.785',-16.04920561
'0:15.789',-6.59900298
'0:15.793',11.18961374
'0:15.797',19.2769788
'0:15.801',-2.56428648
'0:15.805',1.75734318
'0:15.809',24.67453287
'0:15.813',40.58028189
'0:15.816',-11.72757594
'0:15.820',-44.34601729
'0:15.824',-58.09991751
'0:15.828',-88.29752896
'0:15.832',-105.0102213
'0:15.836',-93.13918875
'0:15.840',-64.57339598
'0:15.844',-78.04038303
'0:15.848',-71.58483664
'0:15.852',-54.87214432
'0:15.855',-60.52074741
'0:15.859',-48.39866585
'0:15.863',-45.95990388
'0:15.867',-39.77333859
'0:15.871',-53.50930675
'0:15.875',-42.19416849
'0:15.879',-32.49291683
'0:15.883',14.68636804
'0:15.887',35.98967113
'0:15.891',-4.17817308
'0:15.895',-3.10224868
'0:15.898',-11.72757594
'0:15.902',-18.20105441
'0:15.906',0.95039989
'0:15.910',8.76878385
'0:15.914',73.46770434
'0:15.918',128.1963921
'0:15.922',200.9826776
'0:15.926',68.33913137
'0:15.930',-129.8102787
'0:15.934',-252.4835922
'0:15.938',-205.0353262
'0:15.941',-143.5641789
'0:15.945',-102.0334971
'0:15.949',-28.70924936
'0:15.953',21.4288276
'0:15.957',-3.64021088
'0:15.961',-50.55051465
'0:15.965',-47.32274146
'0:15.969',-48.39866585
'0:15.973',-15.78022451
'0:15.977',-3.90919198
'0:15.980',-16.58716781
'0:15.984',-30.32313596
'0:15.988',-48.12968475
'0:15.992',-31.14801133
'0:15.996',-19.2769788
'0:16.000',-32.22393573
'0:16.004',-31.41699243
'0:16.008',-34.10680343
'0:16.012',-62.13463401
'0:16.016',-46.49786608
'0:16.020',-77.50242083
'0:16.023',-65.64932037
'0:16.027',-8.76878385
'0:16.031',11.72757594
'0:16.035',3.37122978
'0:16.039',-20.8908654
'0:16.043',-28.97823046
'0:16.047',-27.09536277
'0:16.051',-23.59860847
'0:16.055',-12.53451924
'0:16.059',-3.37122978
'0:16.063',17.66309221
'0:16.066',2.02632428
'0:16.070',24.40555177
'0:16.074',21.9667898
'0:16.078',0.12552451
'0:16.082',-11.99655704
'0:16.086',0.39450561
'0:16.090',50.55051465
'0:16.094',96.92285622
'0:16.098',49.47459025
'0:16.102',12.26553814
'0:16.105',52.70236345
'0:16.109',45.69092278
'0:16.113',14.68636804
'0:16.117',36.79661442
'0:16.121',59.17584191
'0:16.125',62.94157731
'0:16.129',60.52074741
'0:16.133',50.01255245
'0:16.137',71.58483664
'0:16.141',58.63787971
'0:16.145',45.95990388
'0:16.148',44.34601729
'0:16.152',65.38033927
'0:16.156',85.32080479
'0:16.160',88.83549116
'0:16.164',62.40361511
'0:16.168',0.95039989
'0:16.172',6.59900298
'0:16.176',-10.11368934
'0:16.180',-10.92063264
'0:16.184',-6.33002188
'0:16.188',28.17128716
'0:16.191',4.98511638
'0:16.195',-36.25865223
'0:16.199',-67.26320697
'0:16.203',-85.05182369
'0:16.207',-57.56195531
'0:16.211',-64.57339598
'0:16.215',-68.33913137
'0:16.219',-79.9411828
'0:16.223',-114.4424918
'0:16.227',-136.014776
'0:16.230',-128.1963921
'0:16.234',-149.4996952
'0:16.238',-144.1021411
'0:16.242',-131.6931464
'0:16.246',-107.7000323
'0:16.250',-98.53674282
'0:16.254',-83.70691819
'0:16.258',-108.2379945
'0:16.262',-111.7526808
'0:16.266',-106.893089
'0:16.270',-100.1506294
'0:16.273',-84.78284259
'0:16.277',-76.15751533
'0:16.281',-48.39866585
'0:16.285',-59.44482301
'0:16.289',-65.91830147
'0:16.293',-65.11135818
'0:16.297',-43.00111179
'0:16.301',-34.64476563
'0:16.305',-44.61499839
'0:16.309',-33.03087903
'0:16.313',-31.41699243
'0:16.316',-26.01943837
'0:16.320',12.26553814
'0:16.324',0.68141879
'0:16.328',-16.04920561
'0:16.332',-26.55740057
'0:16.336',-37.87253882
'0:16.340',-35.98967113
'0:16.344',-3.64021088
'0:16.348',25.75045727
'0:16.352',-11.18961374
'0:16.355',-30.59211706
'0:16.359',-29.78517376
'0:16.363',-37.06559552
'0:16.367',-27.09536277
'0:16.371',1.48836208
'0:16.375',15.76229244
'0:16.379',-11.72757594
'0:16.383',-47.59172255
'0:16.387',-40.31130079
'0:16.391',13.34146254
'0:16.395',55.94806872
'0:16.398',49.74357135
'0:16.402',36.79661442
'0:16.406',29.51619266
'0:16.410',31.39906036
'0:16.414',-22.504752
'0:16.418',-27.63332497
'0:16.422',-27.90230606
'0:16.426',-23.0427142
'0:16.430',-19.814941
'0:16.434',-37.33457662
'0:16.438',-57.02399311
'0:16.441',-42.73213069
'0:16.445',-57.02399311
'0:16.449',-83.97589929
'0:16.453',-67.80116917
'0:16.457',-73.19872324
'0:16.461',-76.42649643
'0:16.465',-73.19872324
'0:16.469',-83.70691819
'0:16.473',-82.6309938
'0:16.477',-72.66076104
'0:16.480',-61.59667181
'0:16.484',-58.90686081
'0:16.488',-20.6218843
'0:16.492',-3.90919198
'0:16.496',-23.0427142
'0:16.500',-40.58028189
'0:16.504',-54.58523114
'0:16.508',-37.06559552
'0:16.512',-7.96184055
'0:16.516',35.98967113
'0:16.520',67.80116917
'0:16.523',119.8400459
'0:16.527',154.341355
'0:16.531',138.9735681
'0:16.535',-16.31818671
'0:16.539',-229.8353836
'0:16.543',-310.7090342
'0:16.547',-191.281426
'0:16.551',-102.0334971
'0:16.555',-72.39177994
'0:16.559',23.8496575
'0:16.563',78.84732633
'0:16.566',41.11824409
'0:16.570',6.86798408
'0:16.574',14.68636804
'0:16.578',35.72069003
'0:16.582',57.56195531
'0:16.586',41.92518739
'0:16.590',-34.64476563
'0:16.594',-28.17128716
'0:16.598',0.12552451
'0:16.602',17.66309221
'0:16.605',23.3116953
'0:16.609',31.13007926
'0:16.613',20.8908654
'0:16.617',32.49291683
'0:16.621',34.37578453
'0:16.625',9.03776495
'0:16.629',-13.87942474
'0:16.633',4.98511638
'0:16.637',12.26553814
'0:16.641',30.59211706
'0:16.645',25.21249507
'0:16.648',4.98511638
'0:16.652',22.504752
'0:16.656',42.19416849
'0:16.660',59.17584191
'0:16.664',41.65620629
'0:16.668',55.67908762
'0:16.672',55.12319334
'0:16.676',57.29297421
'0:16.680',74.27464763
'0:16.684',57.56195531
'0:16.688',41.38722519
'0:16.691',56.48603091
'0:16.695',55.39217444
'0:16.699',56.21704982
'0:16.703',72.92974214
'0:16.707',88.02854786
'0:16.711',102.8404404
'0:16.715',103.3963347
'0:16.719',105.2792024
'0:16.723',121.4539325
'0:16.727',119.5710648
'0:16.730',118.7641215
'0:16.734',181.5622422
'0:16.738',212.0288348
'0:16.742',183.7320231
'0:16.746',142.4882545
'0:16.750',126.5645734
'0:16.754',148.9438009
'0:16.758',172.6679339
'0:16.762',161.6217767
'0:16.766',173.7438583
'0:16.770',145.4470466
'0:16.773',136.2837571
'0:16.777',125.488649
'0:16.781',126.8514866
'0:16.785',137.3596815
'0:16.789',142.7572356
'0:16.793',136.5527382
'0:16.797',127.1204677
'0:16.801',111.4836998
'0:16.805',73.73668544
'0:16.809',17.93207331
'0:16.813',11.45859484
'0:16.816',12.80350034
'0:16.820',24.40555177
'0:16.824',20.3529032
'0:16.828',17.39411111
'0:16.832',-1.21938098
'0:16.836',-15.78022451
'0:16.840',-7.96184055
'0:16.844',15.49331134
'0:16.848',13.07248144
'0:16.852',-15.22433024
'0:16.855',-56.48603091
'0:16.859',-51.89542015
'0:16.863',-52.16440125
'0:16.867',-40.84926299
'0:16.871',-33.56884123
'0:16.875',-23.59860847
'0:16.879',-3.37122978
'0:16.883',10.65165154
'0:16.887',6.06104078
'0:16.891',-14.68636804
'0:16.895',-3.10224868
'0:16.898',-17.93207331
'0:16.902',-7.13696518
'0:16.906',18.47003551
'0:16.910',-0.68141879
'0:16.914',-31.41699243
'0:16.918',-28.17128716
'0:16.922',-23.59860847
'0:16.926',-18.73901661
'0:16.930',-4.17817308
'0:16.934',-14.68636804
'0:16.938',6.33002188
'0:16.941',39.75540652
'0:16.945',26.28841947
'0:16.949',-3.10224868
'0:16.953',-9.03776495
'0:16.957',-6.59900298
'0:16.961',-9.84470825
'0:16.965',-9.03776495
'0:16.969',9.84470825
'0:16.973',21.1598465
'0:16.977',11.45859484
'0:16.980',9.84470825
'0:16.984',7.40594628
'0:16.988',22.7737331
'0:16.992',50.28153355
'0:16.996',74.27464763
'0:17.000',74.54362873
'0:17.004',57.56195531
'0:17.008',72.12279884
'0:17.012',66.18728257
'0:17.016',59.44482301
'0:17.020',29.24721156
'0:17.023',26.55740057
'0:17.027',21.6978087
'0:17.031',15.76229244
'0:17.035',-3.90919198
'0:17.039',-31.68597353
'0:17.043',-36.52763332
'0:17.047',-29.51619266
'0:17.051',-20.3529032
'0:17.055',-5.52307858
'0:17.059',0.68141879
'0:17.063',-3.90919198
'0:17.066',-12.53451924
'0:17.070',-3.64021088
'0:17.074',25.75045727
'0:17.078',15.49331134
'0:17.082',-2.56428648
'0:17.086',5.52307858
'0:17.090',-19.0079977
'0:17.094',-21.4288276
'0:17.098',-0.41243769
'0:17.102',10.11368934
'0:17.105',2.56428648
'0:17.109',13.87942474
'0:17.113',28.17128716
'0:17.117',62.67259621
'0:17.121',102.5714593
'0:17.125',157.5691281
'0:17.129',171.3230284
'0:17.133',21.6978087
'0:17.137',-200.1757343
'0:17.141',-291.575512
'0:17.145',-217.4263888
'0:17.148',-147.5988954
'0:17.152',-83.43793709
'0:17.156',-29.51619266
'0:17.160',33.83782233
'0:17.164',29.51619266
'0:17.168',-10.92063264
'0:17.172',-12.53451924
'0:17.176',3.37122978
'0:17.180',14.95534914
'0:17.184',13.07248144
'0:17.188',-9.30674605
'0:17.191',3.64021088
'0:17.195',33.03087903
'0:17.199',44.61499839
'0:17.203',14.95534914
'0:17.207',-20.0839221
'0:17.211',20.8908654
'0:17.215',74.27464763
'0:17.219',70.49098017
'0:17.223',3.64021088
'0:17.227',-56.48603091
'0:17.230',-53.77828785
'0:17.234',-27.63332497
'0:17.238',-2.83326758
'0:17.242',-16.31818671
'0:17.246',8.76878385
'0:17.250',11.72757594
'0:17.254',21.1598465
'0:17.258',14.41738694
'0:17.262',0.95039989
'0:17.266',9.03776495
'0:17.270',26.55740057
'0:17.273',20.0839221
'0:17.277',30.59211706
'0:17.281',48.39866585
'0:17.285',39.75540652
'0:17.289',43.53907399
'0:17.293',54.04726895
'0:17.297',62.13463401
'0:17.301',62.67259621
'0:17.305',86.39672919
'0:17.309',106.0861457
'0:17.313',101.764516
'0:17.316',81.0171072
'0:17.320',66.18728257
'0:17.324',86.12774809
'0:17.328',102.3024782
'0:17.332',99.07470502
'0:17.336',113.0975863
'0:17.340',114.4424918
'0:17.344',117.670265
'0:17.348',133.8449952
'0:17.352',146.2539899
'0:17.355',128.4653732
'0:17.359',100.6885916
'0:17.363',73.19872324
'0:17.367',86.39672919
'0:17.371',94.21511315
'0:17.375',92.06326435
'0:17.379',98.80572392
'0:17.383',89.64243446
'0:17.387',72.39177994
'0:17.391',49.20560915
'0:17.395',44.88397949
'0:17.398',48.12968475
'0:17.402',38.41050102
'0:17.406',24.40555177
'0:17.410',3.37122978
'0:17.414',-2.02632428
'0:17.418',28.97823046
'0:17.422',17.93207331
'0:17.426',-22.7737331
'0:17.430',-38.67948212
'0:17.434',-62.69052828
'0:17.438',-52.97134455
'0:17.441',-50.55051465
'0:17.445',-57.83093641
'0:17.449',-54.31625004
'0:17.453',-60.78972851
'0:17.457',-52.70236345
'0:17.461',-51.89542015
'0:17.465',-58.63787971
'0:17.469',-53.24032565
'0:17.473',-43.53907399
'0:17.477',-52.43338235
'0:17.480',-66.99422587
'0:17.484',-73.46770434
'0:17.488',-53.50930675
'0:17.492',-60.52074741
'0:17.496',-52.43338235
'0:17.500',-51.08847685
'0:17.504',-57.56195531
'0:17.508',-52.43338235
'0:17.512',-43.27009289
'0:17.516',-36.79661442
'0:17.520',-35.98967113
'0:17.523',-26.01943837
'0:17.527',-20.3529032
'0:17.531',-25.75045727
'0:17.535',-3.64021088
'0:17.539',-5.25409748
'0:17.543',4.44715418
'0:17.547',-3.37122978
'0:17.551',-6.86798408
'0:17.555',-2.02632428
'0:17.559',9.57572715
'0:17.563',32.76189793
'0:17.566',42.46314959
'0:17.570',27.09536277
'0:17.574',18.73901661
'0:17.578',42.73213069
'0:17.582',29.78517376
'0:17.586',24.94351397
'0:17.590',13.34146254
'0:17.594',5.25409748
'0:17.598',-4.71613528
'0:17.602',-19.2769788
'0:17.605',-24.40555177
'0:17.609',-19.2769788
'0:17.613',-26.82638167
'0:17.617',-36.25865223
'0:17.621',-19.814941
'0:17.625',-11.18961374
'0:17.629',-20.3529032
'0:17.633',-24.13657067
'0:17.637',-17.93207331
'0:17.641',-20.8908654
'0:17.645',-13.07248144
'0:17.648',-20.6218843
'0:17.652',-6.86798408
'0:17.656',-1.48836208
'0:17.660',-5.52307858
'0:17.664',2.29530538
'0:17.668',-4.44715418
'0:17.672',-5.52307858
'0:17.676',-0.14345659
'0:17.680',40.31130079
'0:17.684',61.05870961
'0:17.688',88.56651006
'0:17.691',107.4310512
'0:17.695',145.7160277
'0:17.699',152.4584873
'0:17.703',18.47003551
'0:17.707',-150.5756196
'0:17.711',-181.3111932
'0:17.715',-117.1323028
'0:17.719',-63.22849048
'0:17.723',-15.78022451
'0:17.727',36.79661442
'0:17.730',63.2105584
'0:17.734',36.79661442
'0:17.738',10.65165154
'0:17.742',2.83326758
'0:17.746',16.58716781
'0:17.750',12.26553814
'0:17.754',22.7737331
'0:17.758',-3.10224868
'0:17.762',1.75734318
'0:17.766',13.07248144
'0:17.770',26.28841947
'0:17.773',9.03776495
'0:17.777',-14.41738694
'0:17.781',-13.61044364
'0:17.785',23.8496575
'0:17.789',6.33002188
'0:17.793',-19.0079977
'0:17.797',6.86798408
'0:17.801',30.86109816
'0:17.805',48.39866585
'0:17.809',68.07015027
'0:17.813',64.84237708
'0:17.816',59.98278521
'0:17.820',33.83782233
'0:17.824',31.66804146
'0:17.828',49.47459025
'0:17.832',47.30480938
'0:17.836',44.88397949
'0:17.840',50.28153355
'0:17.844',45.69092278
'0:17.848',47.86070365
'0:17.852',64.03543378
'0:17.855',61.86565291
'0:17.859',50.55051465
'0:17.863',60.78972851
'0:17.867',77.50242083
'0:17.871',78.84732633
'0:17.875',64.30441488
'0:17.879',68.87709357
'0:17.883',90.18039666
'0:17.887',89.37345336
'0:17.891',94.75307535
'0:17.895',99.07470502
'0:17.898',101.764516
'0:17.902',104.4722591
'0:17.906',119.0331026
'0:17.910',125.7576301
'0:17.914',116.5943406
'0:17.918',104.203278
'0:17.922',120.109027
'0:17.926',130.8862031
'0:17.930',123.6057813
'0:17.934',134.1139763
'0:17.938',137.3596815
'0:17.941',119.0331026
'0:17.945',130.0792598
'0:17.949',122.798838
'0:17.953',118.4772083
'0:17.957',106.6241079
'0:17.961',102.8404404
'0:17.965',95.84693182
'0:17.969',74.00566654
'0:17.973',87.22160456
'0:17.977',120.6469892
'0:17.980',145.1780655
'0:17.984',78.30936413
'0:17.988',2.83326758
'0:17.992',-14.95534914
'0:17.996',-23.32962737
'0:18.000',-23.0427142
'0:18.004',5.52307858
'0:18.008',13.34146254
'0:18.012',17.93207331
'0:18.016',-17.39411111
'0:18.020',-49.20560915
'0:18.023',-42.46314959
'0:18.027',-24.13657067
'0:18.031',-18.47003551
'0:18.035',-47.05376036
'0:18.039',-60.25176631
'0:18.043',-58.09991751
'0:18.047',-44.07703619
'0:18.051',-52.70236345
'0:18.055',-45.15296059
'0:18.059',-42.73213069
'0:18.063',-43.00111179
'0:18.066',-45.42194168
'0:18.070',-20.8908654
'0:18.074',-13.07248144
'0:18.078',5.25409748
'0:18.082',-26.28841947
'0:18.086',-42.73213069
'0:18.090',-80.479145
'0:18.094',-89.64243446
'0:18.098',-91.25632106
'0:18.102',-63.49747158
'0:18.105',-33.83782233
'0:18.109',-4.17817308
'0:18.113',7.94390847
'0:18.117',-21.6978087
'0:18.121',-26.28841947
'0:18.125',-32.76189793
'0:18.129',-53.24032565
'0:18.133',-85.58978589
'0:18.137',-97.99878062
'0:18.141',-91.25632106
'0:18.145',-70.49098017
'0:18.148',-58.09991751
'0:18.152',-53.77828785
'0:18.156',-31.41699243
'0:18.160',-26.28841947
'0:18.164',-23.0427142
'0:18.168',-25.48147617
'0:18.172',-4.44715418
'0:18.176',1.21938098
'0:18.180',5.79205968
'0:18.184',8.76878385
'0:18.188',6.33002188
'0:18.191',-18.47003551
'0:18.195',-57.56195531
'0:18.199',-54.87214432
'0:18.203',-42.73213069
'0:18.207',-63.22849048
'0:18.211',-35.98967113
'0:18.215',-9.57572715
'0:18.219',7.67492738
'0:18.223',-26.01943837
'0:18.227',-43.00111179
'0:18.230',-48.39866585
'0:18.234',-56.48603091
'0:18.238',-41.65620629
'0:18.242',-29.51619266
'0:18.246',-14.95534914
'0:18.250',-16.85614891
'0:18.254',-5.25409748
'0:18.258',-22.2357709
'0:18.262',-12.80350034
'0:18.266',-1.48836208
'0:18.270',27.90230606
'0:18.273',41.65620629
'0:18.277',74.54362873
'0:18.281',129.2723165
'0:18.285',154.0723739
'0:18.289',16.85614891
'0:18.293',-145.4470466
'0:18.297',-194.2402181
'0:18.301',-148.4058387
'0:18.305',-125.2196679
'0:18.309',-65.11135818
'0:18.313',-6.59900298
'0:18.316',1.48836208
'0:18.320',-26.82638167
'0:18.324',-37.06559552
'0:18.328',-33.03087903
'0:18.332',-26.01943837
'0:18.336',-14.68636804
'0:18.340',-24.13657067
'0:18.344',-35.72069003
'0:18.348',-34.37578453
'0:18.352',-12.53451924
'0:18.355',0.39450561
'0:18.359',-37.06559552
'0:18.363',-47.59172255
'0:18.367',-50.55051465
'0:18.371',-32.22393573
'0:18.375',-17.93207331
'0:18.379',-35.45170893
'0:18.383',-60.25176631
'0:18.387',-49.47459025
'0:18.391',-35.18272783
'0:18.395',-35.72069003
'0:18.398',-33.83782233
'0:18.402',-42.46314959
'0:18.406',-34.37578453
'0:18.410',-20.8908654
'0:18.414',-19.814941
'0:18.418',-16.04920561
'0:18.422',-9.30674605
'0:18.426',-19.0079977
'0:18.430',-5.52307858
'0:18.434',-3.37122978
'0:18.438',1.21938098
'0:18.441',6.86798408
'0:18.445',11.72757594
'0:18.449',9.30674605
'0:18.453',44.61499839
'0:18.457',33.56884123
'0:18.461',24.40555177
'0:18.465',28.97823046
'0:18.469',40.04231969
'0:18.473',58.63787971
'0:18.477',49.74357135
'0:18.480',57.83093641
'0:18.484',60.78972851
'0:18.488',70.49098017
'0:18.492',74.00566654
'0:18.496',82.6309938
'0:18.500',74.54362873
'0:18.504',92.06326435
'0:18.508',84.78284259
'0:18.512',74.54362873
'0:18.516',100.1506294
'0:18.520',105.2792024
'0:18.523',89.91141556
'0:18.527',100.9575727
'0:18.531',106.6241079
'0:18.535',115.5184162
'0:18.539',89.91141556
'0:18.543',106.6241079
'0:18.547',68.33913137
'0:18.551',44.34601729
'0:18.555',22.7737331
'0:18.559',26.01943837
'0:18.563',21.9667898
'0:18.566',31.93702256
'0:18.570',26.55740057
'0:18.574',8.76878385
'0:18.578',12.80350034
'0:18.582',-40.58028189
'0:18.586',-78.30936413
'0:18.590',-68.60811247
'0:18.594',-58.36889861
'0:18.598',-55.67908762
'0:18.602',-42.73213069
'0:18.605',-31.68597353
'0:18.609',-21.1598465
'0:18.613',-24.40555177
'0:18.617',-35.98967113
'0:18.621',-25.21249507
'0:18.625',-33.29986013
'0:18.629',-22.504752
'0:18.633',-23.59860847
'0:18.637',11.99655704
'0:18.641',20.3529032
'0:18.645',13.34146254
'0:18.648',-3.90919198
'0:18.652',-18.73901661
'0:18.656',-32.76189793
'0:18.660',-12.80350034
'0:18.664',23.0427142
'0:18.668',53.50930675
'0:18.672',29.51619266
'0:18.676',37.87253882
'0:18.680',8.21288957
'0:18.684',-54.04726895
'0:18.688',-41.11824409
'0:18.691',-21.6978087
'0:18.695',-0.41243769
'0:18.699',20.8908654
'0:18.703',25.21249507
'0:18.707',38.94846322
'0:18.711',44.07703619
'0:18.715',50.01255245
'0:18.719',54.04726895
'0:18.723',56.21704982
'0:18.727',69.41505577
'0:18.730',75.61955313
'0:18.734',67.80116917
'0:18.738',71.85381774
'0:18.742',86.93469139
'0:18.746',97.72979952
'0:18.750',90.71835886
'0:18.754',86.39672919
'0:18.758',90.18039666
'0:18.762',101.4955349
'0:18.766',110.1208622
'0:18.770',89.91141556
'0:18.773',89.37345336
'0:18.777',76.96445863
'0:18.781',68.87709357
'0:18.785',59.98278521
'0:18.789',40.84926299
'0:18.793',57.56195531
'0:18.797',44.61499839
'0:18.801',36.25865223
'0:18.805',42.73213069
'0:18.809',39.21744432
'0:18.813',41.11824409
'0:18.816',61.05870961
'0:18.820',51.35745795
'0:18.824',41.92518739
'0:18.828',39.75540652
'0:18.832',41.92518739
'0:18.836',29.78517376
'0:18.840',35.45170893
'0:18.844',39.75540652
'0:18.848',37.33457662
'0:18.852',57.56195531
'0:18.855',62.40361511
'0:18.859',98.26776172
'0:18.863',116.3253595
'0:18.867',130.8862031
'0:18.871',138.9735681
'0:18.875',176.7205824
'0:18.879',147.0609332
'0:18.883',10.65165154
'0:18.887',-172.6679339
'0:18.891',-169.1711796
'0:18.895',-75.08159093
'0:18.898',-23.32962737
'0:18.902',26.01943837
'0:18.906',97.19183732
'0:18.910',107.9690134
'0:18.914',64.57339598
'0:18.918',6.06104078
'0:18.922',13.34146254
'0:18.926',25.75045727
'0:18.930',52.97134455
'0:18.934',63.76645268
'0:18.938',56.21704982
'0:18.941',123.0678191
'0:18.945',162.6977011
'0:18.949',146.7919521
'0:18.953',12.80350034
'0:18.957',-22.504752
'0:18.961',11.18961374
'0:18.965',34.64476563
'0:18.969',69.68403687
'0:18.973',91.52530216
'0:18.977',124.4127246
'0:18.980',78.84732633
'0:18.984',9.03776495
'0:18.988',11.18961374
'0:18.992',25.75045727
'0:18.996',22.7737331
'0:19.000',-3.10224868
'0:19.004',-6.59900298
'0:19.008',40.84926299
'0:19.012',115.5184162
'0:19.016',114.4424918
'0:19.020',49.74357135
'0:19.023',-11.18961374
'0:19.027',14.41738694
'0:19.031',-0.14345659
'0:19.035',-2.56428648
'0:19.039',-16.58716781
'0:19.043',-43.53907399
'0:19.047',-17.12513001
'0:19.051',14.41738694
'0:19.055',56.75501201
'0:19.059',121.1849514
'0:19.063',143.83316
'0:19.066',52.97134455
'0:19.070',14.95534914
'0:19.074',-28.70924936
'0:19.078',-26.82638167
'0:19.082',4.17817308
'0:19.086',58.36889861
'0:19.090',59.44482301
'0:19.094',56.48603091
'0:19.098',74.00566654
'0:19.102',82.6309938
'0:19.105',71.85381774
'0:19.109',77.77140193
'0:19.113',91.25632106
'0:19.117',73.73668544
'0:19.121',65.11135818
'0:19.125',101.764516
'0:19.129',91.79428326
'0:19.133',92.87020765
'0:19.137',92.33224545
'0:19.141',64.84237708
'0:19.145',37.60355772
'0:19.148',14.41738694
'0:19.152',-16.31818671
'0:19.156',-50.81949575
'0:19.160',-34.37578453
'0:19.164',-2.29530538
'0:19.168',-7.13696518
'0:19.172',-44.61499839
'0:19.176',-74.54362873
'0:19.180',-79.6722017
'0:19.184',-55.41010652
'0:19.188',-60.52074741
'0:19.191',-45.15296059
'0:19.195',-25.21249507
'0:19.199',-78.04038303
'0:19.203',-53.24032565
'0:19.207',-44.88397949
'0:19.211',-77.77140193
'0:19.215',-116.8633217
'0:19.219',-121.4539325
'0:19.223',-119.5710648
'0:19.227',-98.26776172
'0:19.230',-81.2860883
'0:19.234',-84.51386149
'0:19.238',-56.21704982
'0:19.242',-55.41010652
'0:19.246',-65.38033927
'0:19.250',-62.40361511
'0:19.254',-50.81949575
'0:19.258',-56.75501201
'0:19.262',-40.04231969
'0:19.266',-34.37578453
'0:19.270',-30.32313596
'0:19.273',-17.66309221
'0:19.277',-69.68403687
'0:19.281',-68.33913137
'0:19.285',-50.28153355
'0:19.289',-34.91374673
'0:19.293',-20.8908654
'0:19.297',-21.1598465
'0:19.301',-18.73901661
'0:19.305',-16.85614891
'0:19.309',-33.29986013
'0:19.313',-66.18728257
'0:19.316',-35.72069003
'0:19.320',-22.2357709
'0:19.324',-36.25865223
'0:19.328',-31.95495463
'0:19.332',-31.68597353
'0:19.336',-20.0839221
'0:19.340',-23.0427142
'0:19.344',-4.98511638
'0:19.348',-0.68141879
'0:19.352',16.03127354
'0:19.355',28.17128716
'0:19.359',10.11368934
'0:19.363',28.44026826
'0:19.367',0.39450561
'0:19.371',-14.14840584
'0:19.375',-33.29986013
'0:19.379',-37.33457662
'0:19.383',-37.87253882
'0:19.387',-49.74357135
'0:19.391',-46.49786608
'0:19.395',-48.93662805
'0:19.398',-22.504752
'0:19.402',-23.86758957
'0:19.406',-33.56884123
'0:19.410',-43.53907399
'0:19.414',-30.59211706
'0:19.418',-23.59860847
'0:19.422',-41.11824409
'0:19.426',-33.29986013
'0:19.430',-27.36434387
'0:19.434',-15.22433024
'0:19.438',-23.32962737
'0:19.441',-39.50435749
'0:19.445',-16.85614891
'0:19.449',-13.07248144
'0:19.453',14.95534914
'0:19.457',39.48642542
'0:19.461',55.12319334
'0:19.465',124.6817057
'0:19.469',206.1112506
'0:19.473',111.7526808
'0:19.477',-23.86758957
'0:19.480',-193.4332748
'0:19.484',-171.5920095
'0:19.488',-114.4424918
'0:19.492',-72.39177994
'0:19.496',-20.8908654
'0:19.500',45.69092278
'0:19.504',40.84926299
'0:19.508',7.13696518
'0:19.512',0.39450561
'0:19.516',11.45859484
'0:19.520',40.31130079
'0:19.523',38.41050102
'0:19.527',10.38267044
'0:19.531',4.44715418
'0:19.535',11.18961374
'0:19.539',20.6218843
'0:19.543',36.25865223
'0:19.547',11.72757594
'0:19.551',-8.23082165
'0:19.555',-3.37122978
'0:19.559',17.93207331
'0:19.563',1.48836208
'0:19.566',-18.47003551
'0:19.570',-5.79205968
'0:19.574',-4.98511638
'0:19.578',14.68636804
'0:19.582',0.95039989
'0:19.586',-15.78022451
'0:19.590',-18.73901661
'0:19.594',-5.52307858
'0:19.598',-4.44715418
'0:19.602',14.68636804
'0:19.605',-14.95534914
'0:19.609',-15.78022451
'0:19.613',11.18961374
'0:19.617',8.49980275
'0:19.621',28.17128716
'0:19.625',33.03087903
'0:19.629',17.93207331
'0:19.633',14.14840584
'0:19.637',25.48147617
'0:19.641',26.01943837
'0:19.645',31.13007926
'0:19.648',49.47459025
'0:19.652',46.22888498
'0:19.656',57.83093641
'0:19.660',58.09991751
'0:19.664',62.94157731
'0:19.668',65.64932037
'0:19.672',62.94157731
'0:19.676',58.63787971
'0:19.680',89.10447226
'0:19.684',91.79428326
'0:19.688',81.0171072
'0:19.691',81.5550694
'0:19.695',76.42649643
'0:19.699',88.02854786
'0:19.703',74.00566654
'0:19.707',64.84237708
'0:19.711',66.45626367
'0:19.715',60.52074741
'0:19.719',55.12319334
'0:19.723',57.02399311
'0:19.727',32.22393573
'0:19.730',35.45170893
'0:19.734',29.24721156
'0:19.738',37.87253882
'0:19.742',23.0427142
'0:19.746',16.03127354
'0:19.750',20.0839221
'0:19.754',13.61044364
'0:19.758',21.1598465
'0:19.762',6.33002188
'0:19.766',15.22433024
'0:19.770',4.17817308
'0:19.773',14.41738694
'0:19.777',5.25409748
'0:19.781',5.52307858
'0:19.785',-1.48836208
'0:19.789',4.17817308
'0:19.793',14.41738694
'0:19.797',20.6218843
'0:19.801',20.6218843
'0:19.805',14.41738694
'0:19.809',21.1598465
'0:19.813',15.49331134
'0:19.816',5.79205968
'0:19.820',20.0839221
'0:19.824',12.53451924
'0:19.828',4.71613528
'0:19.832',17.12513001
'0:19.836',6.33002188
'0:19.840',-11.99655704
'0:19.844',-3.64021088
'0:19.848',-11.99655704
'0:19.852',-14.95534914
'0:19.855',-8.76878385
'0:19.859',-12.80350034
'0:19.863',-20.8908654
'0:19.867',-27.36434387
'0:19.871',-29.24721156
'0:19.875',-24.40555177
'0:19.879',-29.78517376
'0:19.883',-37.87253882
'0:19.887',-43.00111179
'0:19.891',-43.80805509
'0:19.895',-55.14112542
'0:19.898',-76.96445863
'0:19.902',-70.22199907
'0:19.906',-61.05870961
'0:19.910',-61.32769071
'0:19.914',-69.95301797
'0:19.918',-59.44482301
'0:19.922',-55.41010652
'0:19.926',-62.13463401
'0:19.930',-59.71380411
'0:19.934',-52.16440125
'0:19.938',-28.70924936
'0:19.941',4.98511638
'0:19.945',14.95534914
'0:19.949',6.33002188
'0:19.953',16.85614891
'0:19.957',52.43338235
'0:19.961',49.74357135
'0:19.965',61.59667181
'0:19.969',56.21704982
'0:19.973',52.16440125
'0:19.977',54.31625004
'0:19.980',64.57339598
'0:19.984',74.00566654
'0:19.988',55.12319334
'0:19.992',55.12319334
'0:19.996',56.75501201
'0:20.000',47.57379048
