'0:00.000',-0.44256757
'0:00.003',-0.4222973
'0:00.006',-0.40540541
'0:00.008',-0.40878378
'0:00.011',-0.42567568
'0:00.014',-0.43581081
'0:00.017',-0.4222973
'0:00.019',-0.4222973
'0:00.022',-0.42905405
'0:00.025',-0.42905405
'0:00.028',-0.43918919
'0:00.031',-0.43918919
'0:00.033',-0.42905405
'0:00.036',-0.41554054
'0:00.039',-0.41216216
'0:00.042',-0.40540541
'0:00.044',-0.40202703
'0:00.047',-0.41216216
'0:00.050',-0.41554054
'0:00.053',-0.41216216
'0:00.056',-0.39189189
'0:00.058',-0.375
'0:00.061',-0.36486486
'0:00.064',-0.36148649
'0:00.067',-0.37162162
'0:00.069',-0.38175676
'0:00.072',-0.37837838
'0:00.075',-0.38513514
'0:00.078',-0.38851351
'0:00.081',-0.38513514
'0:00.083',-0.375
'0:00.086',-0.35472973
'0:00.089',-0.32094595
'0:00.092',-0.28716216
'0:00.094',-0.26013514
'0:00.097',-0.25337838
'0:00.100',-0.27027027
'0:00.103',-0.28378378
'0:00.106',-0.28716216
'0:00.108',-0.27364865
'0:00.111',-0.25675676
'0:00.114',-0.25
'0:00.117',-0.24324324
'0:00.119',-0.20945946
'0:00.122',-0.18581081
'0:00.125',-0.18581081
'0:00.128',-0.20608108
'0:00.131',-0.2027027
'0:00.133',-0.18581081
'0:00.136',-0.18918919
'0:00.139',-0.22297297
'0:00.142',-0.25337838
'0:00.144',-0.28378378
'0:00.147',-0.30067568
'0:00.150',-0.31081081
'0:00.153',-0.31418919
'0:00.156',-0.30743243
'0:00.158',-0.2972973
'0:00.161',-0.30067568
'0:00.164',-0.3277027
'0:00.167',-0.34797297
'0:00.169',-0.34459459
'0:00.172',-0.37162162
'0:00.175',-0.41891892
'0:00.178',-0.44932432
'0:00.181',-0.45945946
'0:00.183',-0.43243243
'0:00.186',-0.4222973
'0:00.189',-0.43243243
'0:00.192',-0.44932432
'0:00.194',-0.4527027
'0:00.197',-0.44594595
'0:00.200',-0.44594595
'0:00.203',-0.4527027
'0:00.206',-0.45608108
'0:00.208',-0.44256757
'0:00.211',-0.45945946
'0:00.214',-0.47972973
'0:00.217',-0.47972973
'0:00.219',-0.46621622
'0:00.222',-0.44932432
'0:00.225',-0.43581081
'0:00.228',-0.43918919
'0:00.231',-0.45945946
'0:00.233',-0.45945946
'0:00.236',-0.42905405
'0:00.239',-0.40540541
'0:00.242',-0.42905405
'0:00.244',-0.46621622
'0:00.247',-0.48648649
'0:00.250',-0.49662162
'0:00.253',-0.48310811
'0:00.256',-0.46621622
'0:00.258',-0.47297297
'0:00.261',-0.52702703
'0:00.264',-0.62837838
'0:00.267',-0.75337838
'0:00.269',-0.83783784
'0:00.272',-0.82432432
'0:00.275',-0.73986486
'0:00.278',-0.5472973
'0:00.281',-0.24662162
'0:00.283',0.18243243
'0:00.286',0.77027027
'0:00.289',1.42567568
'0:00.292',2.06418919
'0:00.294',2.63851351
'0:00.297',3.09459459
'0:00.300',3.35810811
'0:00.303',3.36824324
'0:00.306',3.03716216
'0:00.308',2.375
'0:00.311',1.28378378
'0:00.314',0.02364865
'0:00.317',-0.56081081
'0:00.319',-0.56756757
'0:00.322',-0.56756757
'0:00.325',-0.69932432
'0:00.328',-0.80743243
'0:00.331',-0.80067568
'0:00.333',-0.73310811
'0:00.336',-0.65878378
'0:00.339',-0.57432432
'0:00.342',-0.50675676
'0:00.344',-0.48310811
'0:00.347',-0.47635135
'0:00.350',-0.44256757
'0:00.353',-0.39527027
'0:00.356',-0.36486486
'0:00.358',-0.36486486
'0:00.361',-0.38513514
'0:00.364',-0.39189189
'0:00.367',-0.38513514
'0:00.369',-0.375
'0:00.372',-0.35810811
'0:00.375',-0.35472973
'0:00.378',-0.35135135
'0:00.381',-0.34459459
'0:00.383',-0.35135135
'0:00.386',-0.35472973
'0:00.389',-0.34797297
'0:00.392',-0.32094595
'0:00.394',-0.28378378
'0:00.397',-0.26013514
'0:00.400',-0.26689189
'0:00.403',-0.26351351
'0:00.406',-0.24324324
'0:00.408',-0.23986486
'0:00.411',-0.25
'0:00.414',-0.25337838
'0:00.417',-0.21621622
'0:00.419',-0.17567568
'0:00.422',-0.1722973
'0:00.425',-0.1722973
'0:00.428',-0.16554054
'0:00.431',-0.14864865
'0:00.433',-0.14189189
'0:00.436',-0.11824324
'0:00.439',-0.08783784
'0:00.442',-0.06081081
'0:00.444',-0.04391892
'0:00.447',-0.02027027
'0:00.450',0.02702703
'0:00.453',0.09121622
'0:00.456',0.13175676
'0:00.458',0.14189189
'0:00.461',0.14864865
'0:00.464',0.16891892
'0:00.467',0.19594595
'0:00.469',0.20945946
'0:00.472',0.21621622
'0:00.475',0.26013514
'0:00.478',0.3277027
'0:00.481',0.39527027
'0:00.483',0.43581081
'0:00.486',0.45608108
'0:00.489',0.49324324
'0:00.492',0.55067568
'0:00.494',0.60135135
'0:00.497',0.62837838
'0:00.500',0.64527027
'0:00.503',0.68581081
'0:00.506',0.75675676
'0:00.508',0.7972973
'0:00.511',0.81418919
'0:00.514',0.81756757
'0:00.517',0.81756757
'0:00.519',0.84459459
'0:00.522',0.90878378
'0:00.525',0.93243243
'0:00.528',0.91216216
'0:00.531',0.88513514
'0:00.533',0.85135135
'0:00.536',0.7972973
'0:00.539',0.72972973
'0:00.542',0.66891892
'0:00.544',0.62162162
'0:00.547',0.57094595
'0:00.550',0.50337838
'0:00.553',0.39527027
'0:00.556',0.28716216
'0:00.558',0.22297297
'0:00.561',0.17567568
'0:00.564',0.09797297
'0:00.567',0.03378378
'0:00.569',-0.00675676
'0:00.572',-0.04054054
'0:00.575',-0.08445946
'0:00.578',-0.12837838
'0:00.581',-0.16554054
'0:00.583',-0.2027027
'0:00.586',-0.22635135
'0:00.589',-0.25
'0:00.592',-0.27702703
'0:00.594',-0.30743243
'0:00.597',-0.32432432
'0:00.600',-0.33108108
'0:00.603',-0.32432432
'0:00.606',-0.3277027
'0:00.608',-0.35135135
'0:00.611',-0.36824324
'0:00.614',-0.37837838
'0:00.617',-0.39527027
'0:00.619',-0.39864865
'0:00.622',-0.39189189
'0:00.625',-0.39864865
'0:00.628',-0.40878378
'0:00.631',-0.40540541
'0:00.633',-0.39527027
'0:00.636',-0.38175676
'0:00.639',-0.39189189
'0:00.642',-0.41554054
'0:00.644',-0.42905405
'0:00.647',-0.43243243
'0:00.650',-0.43243243
'0:00.653',-0.41554054
'0:00.656',-0.38851351
'0:00.658',-0.36486486
'0:00.661',-0.375
'0:00.664',-0.40540541
'0:00.667',-0.39864865
'0:00.669',-0.375
'0:00.672',-0.37837838
'0:00.675',-0.40540541
'0:00.678',-0.42905405
'0:00.681',-0.41554054
'0:00.683',-0.38851351
'0:00.686',-0.38513514
'0:00.689',-0.39189189
'0:00.692',-0.37837838
'0:00.694',-0.36824324
'0:00.697',-0.36486486
'0:00.700',-0.37837838
'0:00.703',-0.38851351
'0:00.706',-0.38175676
'0:00.708',-0.38513514
'0:00.711',-0.38851351
'0:00.714',-0.40202703
'0:00.717',-0.40202703
'0:00.719',-0.38513514
'0:00.722',-0.375
'0:00.725',-0.38175676
'0:00.728',-0.39189189
'0:00.731',-0.375
'0:00.733',-0.35810811
'0:00.736',-0.34121622
'0:00.739',-0.32432432
'0:00.742',-0.31081081
'0:00.744',-0.2972973
'0:00.747',-0.28716216
'0:00.750',-0.27702703
'0:00.753',-0.25675676
'0:00.756',-0.23986486
'0:00.758',-0.23986486
'0:00.761',-0.25
'0:00.764',-0.23648649
'0:00.767',-0.22635135
'0:00.769',-0.21959459
'0:00.772',-0.20945946
'0:00.775',-0.18918919
'0:00.778',-0.17905405
'0:00.781',-0.19594595
'0:00.783',-0.20608108
'0:00.786',-0.21283784
'0:00.789',-0.22635135
'0:00.792',-0.23310811
'0:00.794',-0.23986486
'0:00.797',-0.25337838
'0:00.800',-0.27702703
'0:00.803',-0.29391892
'0:00.806',-0.30067568
'0:00.808',-0.28716216
'0:00.811',-0.28378378
'0:00.814',-0.30743243
'0:00.817',-0.34797297
'0:00.819',-0.37162162
'0:00.822',-0.38513514
'0:00.825',-0.38851351
'0:00.828',-0.40202703
'0:00.831',-0.41554054
'0:00.833',-0.42567568
'0:00.836',-0.42905405
'0:00.839',-0.44932432
'0:00.842',-0.44932432
'0:00.844',-0.43243243
'0:00.847',-0.43243243
'0:00.850',-0.43581081
'0:00.853',-0.44256757
'0:00.856',-0.46283784
'0:00.858',-0.46959459
'0:00.861',-0.46283784
'0:00.864',-0.45608108
'0:00.867',-0.45608108
'0:00.869',-0.43918919
'0:00.872',-0.42905405
'0:00.875',-0.44594595
'0:00.878',-0.47297297
'0:00.881',-0.47297297
'0:00.883',-0.45608108
'0:00.886',-0.4527027
'0:00.889',-0.4527027
'0:00.892',-0.43581081
'0:00.894',-0.42905405
'0:00.897',-0.42905405
'0:00.900',-0.44256757
'0:00.903',-0.45945946
'0:00.906',-0.46959459
'0:00.908',-0.46959459
'0:00.911',-0.49662162
'0:00.914',-0.58783784
'0:00.917',-0.72297297
'0:00.919',-0.81418919
'0:00.922',-0.81081081
'0:00.925',-0.72635135
'0:00.928',-0.56418919
'0:00.931',-0.31756757
'0:00.933',0.05405405
'0:00.936',0.60135135
'0:00.939',1.24324324
'0:00.942',1.90540541
'0:00.944',2.52702703
'0:00.947',3.05405405
'0:00.950',3.40202703
'0:00.953',3.48648649
'0:00.956',3.21621622
'0:00.958',2.60810811
'0:00.961',1.64189189
'0:00.964',0.33445946
'0:00.967',-0.51013514
'0:00.969',-0.65202703
'0:00.972',-0.59121622
'0:00.975',-0.65202703
'0:00.978',-0.76013514
'0:00.981',-0.78040541
'0:00.983',-0.71621622
'0:00.986',-0.625
'0:00.989',-0.52364865
'0:00.992',-0.45945946
'0:00.994',-0.42905405
'0:00.997',-0.42567568
'0:01.000',-0.41891892
'0:01.003',-0.42567568
'0:01.006',-0.41554054
'0:01.008',-0.37837838
'0:01.011',-0.35135135
'0:01.014',-0.34121622
'0:01.017',-0.34797297
'0:01.019',-0.35810811
'0:01.022',-0.35135135
'0:01.025',-0.33445946
'0:01.028',-0.32432432
'0:01.031',-0.3277027
'0:01.033',-0.33445946
'0:01.036',-0.33783784
'0:01.039',-0.3277027
'0:01.042',-0.31756757
'0:01.044',-0.30067568
'0:01.047',-0.28716216
'0:01.050',-0.28378378
'0:01.053',-0.26351351
'0:01.056',-0.22972973
'0:01.058',-0.20945946
'0:01.061',-0.19932432
'0:01.064',-0.19256757
'0:01.067',-0.19256757
'0:01.069',-0.18918919
'0:01.072',-0.18243243
'0:01.075',-0.16216216
'0:01.078',-0.12837838
'0:01.081',-0.10135135
'0:01.083',-0.09459459
'0:01.086',-0.06756757
'0:01.089',-0.02027027
'0:01.092',0.00675676
'0:01.094',0.00337838
'0:01.097',0
'0:01.100',0
'0:01.103',0.02027027
'0:01.106',0.06081081
'0:01.108',0.09459459
'0:01.111',0.11824324
'0:01.114',0.13851351
'0:01.117',0.18581081
'0:01.119',0.25337838
'0:01.122',0.31081081
'0:01.125',0.36148649
'0:01.128',0.39864865
'0:01.131',0.41554054
'0:01.133',0.44594595
'0:01.136',0.47972973
'0:01.139',0.52027027
'0:01.142',0.58445946
'0:01.144',0.61148649
'0:01.147',0.625
'0:01.150',0.66891892
'0:01.153',0.73310811
'0:01.156',0.78040541
'0:01.158',0.81081081
'0:01.161',0.83445946
'0:01.164',0.86148649
'0:01.167',0.89189189
'0:01.169',0.90878378
'0:01.172',0.92905405
'0:01.175',0.94932432
'0:01.178',0.94256757
'0:01.181',0.9222973
'0:01.183',0.89527027
'0:01.186',0.85810811
'0:01.189',0.80067568
'0:01.192',0.73310811
'0:01.194',0.64864865
'0:01.197',0.5777027
'0:01.200',0.50675676
'0:01.203',0.43918919
'0:01.206',0.39527027
'0:01.208',0.33783784
'0:01.211',0.26013514
'0:01.214',0.16891892
'0:01.217',0.09121622
'0:01.219',0.02702703
'0:01.222',-0.00337838
'0:01.225',-0.03040541
'0:01.228',-0.08108108
'0:01.231',-0.13175676
'0:01.233',-0.17567568
'0:01.236',-0.21959459
'0:01.239',-0.26351351
'0:01.242',-0.27027027
'0:01.244',-0.27027027
'0:01.247',-0.28040541
'0:01.250',-0.28716216
'0:01.253',-0.28378378
'0:01.256',-0.28378378
'0:01.258',-0.30067568
'0:01.261',-0.31418919
'0:01.264',-0.3277027
'0:01.267',-0.35472973
'0:01.269',-0.39189189
'0:01.272',-0.39864865
'0:01.275',-0.38513514
'0:01.278',-0.38513514
'0:01.281',-0.39527027
'0:01.283',-0.40202703
'0:01.286',-0.39527027
'0:01.289',-0.375
'0:01.292',-0.38851351
'0:01.294',-0.40878378
'0:01.297',-0.40878378
'0:01.300',-0.40540541
'0:01.303',-0.41554054
'0:01.306',-0.42567568
'0:01.308',-0.40540541
'0:01.311',-0.39189189
'0:01.314',-0.38513514
'0:01.317',-0.375
'0:01.319',-0.34459459
'0:01.322',-0.33445946
'0:01.325',-0.36824324
'0:01.328',-0.41216216
'0:01.331',-0.42567568
'0:01.333',-0.41216216
'0:01.336',-0.38513514
'0:01.339',-0.36486486
'0:01.342',-0.33783784
'0:01.344',-0.33783784
'0:01.347',-0.36148649
'0:01.350',-0.37162162
'0:01.353',-0.36824324
'0:01.356',-0.36486486
'0:01.358',-0.36824324
'0:01.361',-0.36824324
'0:01.364',-0.36148649
'0:01.367',-0.36486486
'0:01.369',-0.37837838
'0:01.372',-0.40202703
'0:01.375',-0.40202703
'0:01.378',-0.38851351
'0:01.381',-0.36824324
'0:01.383',-0.33783784
'0:01.386',-0.31081081
'0:01.389',-0.33108108
'0:01.392',-0.37162162
'0:01.394',-0.39864865
'0:01.397',-0.41216216
'0:01.400',-0.40202703
'0:01.403',-0.36824324
'0:01.406',-0.3277027
'0:01.408',-0.29391892
'0:01.411',-0.28378378
'0:01.414',-0.27364865
'0:01.417',-0.25675676
'0:01.419',-0.26013514
'0:01.422',-0.27364865
'0:01.425',-0.27027027
'0:01.428',-0.23986486
'0:01.431',-0.22297297
'0:01.433',-0.23648649
'0:01.436',-0.23648649
'0:01.439',-0.21621622
'0:01.442',-0.19594595
'0:01.444',-0.18581081
'0:01.447',-0.19256757
'0:01.450',-0.2027027
'0:01.453',-0.19594595
'0:01.456',-0.19256757
'0:01.458',-0.19932432
'0:01.461',-0.21621622
'0:01.464',-0.23310811
'0:01.467',-0.24662162
'0:01.469',-0.26351351
'0:01.472',-0.27027027
'0:01.475',-0.28716216
'0:01.478',-0.31418919
'0:01.481',-0.34121622
'0:01.483',-0.34797297
'0:01.486',-0.32094595
'0:01.489',-0.27702703
'0:01.492',-0.27702703
'0:01.494',-0.31418919
'0:01.497',-0.33445946
'0:01.500',-0.34121622
'0:01.503',-0.37162162
'0:01.506',-0.42905405
'0:01.508',-0.48648649
'0:01.511',-0.52364865
'0:01.514',-0.52702703
'0:01.517',-0.5
'0:01.519',-0.47297297
'0:01.522',-0.47972973
'0:01.525',-0.48986486
'0:01.528',-0.47297297
'0:01.531',-0.4527027
'0:01.533',-0.44594595
'0:01.536',-0.44256757
'0:01.539',-0.44256757
'0:01.542',-0.4527027
'0:01.544',-0.45945946
'0:01.547',-0.46283784
'0:01.550',-0.46959459
'0:01.553',-0.46621622
'0:01.556',-0.44932432
'0:01.558',-0.43918919
'0:01.561',-0.43243243
'0:01.564',-0.4222973
'0:01.567',-0.4222973
'0:01.569',-0.43243243
'0:01.572',-0.43243243
'0:01.575',-0.43243243
'0:01.578',-0.46283784
'0:01.581',-0.51351351
'0:01.583',-0.60135135
'0:01.586',-0.75
'0:01.589',-0.87837838
'0:01.592',-0.89189189
'0:01.594',-0.7972973
'0:01.597',-0.61148649
'0:01.600',-0.31756757
'0:01.603',0.10135135
'0:01.606',0.62162162
'0:01.608',1.23310811
'0:01.611',1.89527027
'0:01.614',2.54054054
'0:01.617',3.08108108
'0:01.619',3.43918919
'0:01.622',3.52027027
'0:01.625',3.21959459
'0:01.628',2.54391892
'0:01.631',1.51351351
'0:01.633',0.24662162
'0:01.636',-0.49662162
'0:01.639',-0.60135135
'0:01.642',-0.57432432
'0:01.644',-0.6722973
'0:01.647',-0.77027027
'0:01.650',-0.76689189
'0:01.653',-0.7027027
'0:01.656',-0.59797297
'0:01.658',-0.48310811
'0:01.661',-0.42905405
'0:01.664',-0.41554054
'0:01.667',-0.40540541
'0:01.669',-0.40202703
'0:01.672',-0.39864865
'0:01.675',-0.37162162
'0:01.678',-0.35135135
'0:01.681',-0.34459459
'0:01.683',-0.375
'0:01.686',-0.38513514
'0:01.689',-0.36824324
'0:01.692',-0.33783784
'0:01.694',-0.31756757
'0:01.697',-0.33108108
'0:01.700',-0.34459459
'0:01.703',-0.32094595
'0:01.706',-0.28378378
'0:01.708',-0.27027027
'0:01.711',-0.27364865
'0:01.714',-0.29391892
'0:01.717',-0.2972973
'0:01.719',-0.28040541
'0:01.722',-0.25337838
'0:01.725',-0.24324324
'0:01.728',-0.23986486
'0:01.731',-0.22635135
'0:01.733',-0.2027027
'0:01.736',-0.19256757
'0:01.739',-0.19256757
'0:01.742',-0.17905405
'0:01.744',-0.15540541
'0:01.747',-0.13513514
'0:01.750',-0.11486486
'0:01.753',-0.10135135
'0:01.756',-0.08783784
'0:01.758',-0.0777027
'0:01.761',-0.06756757
'0:01.764',-0.06081081
'0:01.767',-0.03716216
'0:01.769',0
'0:01.772',0.04054054
'0:01.775',0.07432432
'0:01.778',0.09121622
'0:01.781',0.11824324
'0:01.783',0.16216216
'0:01.786',0.21283784
'0:01.789',0.24324324
'0:01.792',0.26689189
'0:01.794',0.2972973
'0:01.797',0.3277027
'0:01.800',0.37162162
'0:01.803',0.42567568
'0:01.806',0.47635135
'0:01.808',0.52364865
'0:01.811',0.55067568
'0:01.814',0.58108108
'0:01.817',0.62162162
'0:01.819',0.65540541
'0:01.822',0.7027027
'0:01.825',0.76013514
'0:01.828',0.80405405
'0:01.831',0.82432432
'0:01.833',0.85135135
'0:01.836',0.875
'0:01.839',0.89189189
'0:01.842',0.90540541
'0:01.844',0.91554054
'0:01.847',0.91554054
'0:01.850',0.89864865
'0:01.853',0.87162162
'0:01.856',0.84121622
'0:01.858',0.80405405
'0:01.861',0.74662162
'0:01.864',0.66554054
'0:01.867',0.57432432
'0:01.869',0.50675676
'0:01.872',0.44256757
'0:01.875',0.38175676
'0:01.878',0.3277027
'0:01.881',0.26351351
'0:01.883',0.19256757
'0:01.886',0.12837838
'0:01.889',0.07094595
'0:01.892',0.02027027
'0:01.894',-0.02702703
'0:01.897',-0.08445946
'0:01.900',-0.15878378
'0:01.903',-0.2027027
'0:01.906',-0.21621622
'0:01.908',-0.22635135
'0:01.911',-0.23310811
'0:01.914',-0.25
'0:01.917',-0.28040541
'0:01.919',-0.31756757
'0:01.922',-0.33108108
'0:01.925',-0.3277027
'0:01.928',-0.33783784
'0:01.931',-0.36148649
'0:01.933',-0.36486486
'0:01.936',-0.35135135
'0:01.939',-0.33108108
'0:01.942',-0.32432432
'0:01.944',-0.33445946
'0:01.947',-0.35472973
'0:01.950',-0.375
'0:01.953',-0.37837838
'0:01.956',-0.36824324
'0:01.958',-0.35810811
'0:01.961',-0.35472973
'0:01.964',-0.35472973
'0:01.967',-0.36824324
'0:01.969',-0.39189189
'0:01.972',-0.40202703
'0:01.975',-0.39527027
'0:01.978',-0.38513514
'0:01.981',-0.38175676
'0:01.983',-0.38851351
'0:01.986',-0.38851351
'0:01.989',-0.38175676
'0:01.992',-0.35810811
'0:01.994',-0.34121622
'0:01.997',-0.36148649
'0:02.000',-0.39527027
'0:02.003',-0.41216216
'0:02.006',-0.40540541
'0:02.008',-0.37837838
'0:02.011',-0.37837838
'0:02.014',-0.38513514
'0:02.017',-0.39189189
'0:02.019',-0.39864865
'0:02.022',-0.38851351
'0:02.025',-0.36148649
'0:02.028',-0.35472973
'0:02.031',-0.36824324
'0:02.033',-0.39189189
'0:02.036',-0.41216216
'0:02.039',-0.40878378
'0:02.042',-0.39864865
'0:02.044',-0.38851351
'0:02.047',-0.375
'0:02.050',-0.36148649
'0:02.053',-0.34797297
'0:02.056',-0.35472973
'0:02.058',-0.375
'0:02.061',-0.37837838
'0:02.064',-0.36824324
'0:02.067',-0.35472973
'0:02.069',-0.36824324
'0:02.072',-0.38175676
'0:02.075',-0.38175676
'0:02.078',-0.37162162
'0:02.081',-0.35810811
'0:02.083',-0.35810811
'0:02.086',-0.36148649
'0:02.089',-0.34797297
'0:02.092',-0.3277027
'0:02.094',-0.31756757
'0:02.097',-0.33108108
'0:02.100',-0.34459459
'0:02.103',-0.32432432
'0:02.106',-0.31756757
'0:02.108',-0.32094595
'0:02.111',-0.29391892
'0:02.114',-0.27027027
'0:02.117',-0.26689189
'0:02.119',-0.26013514
'0:02.122',-0.25
'0:02.125',-0.24662162
'0:02.128',-0.24324324
'0:02.131',-0.23986486
'0:02.133',-0.23310811
'0:02.136',-0.21283784
'0:02.139',-0.18581081
'0:02.142',-0.16554054
'0:02.144',-0.16891892
'0:02.147',-0.18581081
'0:02.150',-0.2027027
'0:02.153',-0.22972973
'0:02.156',-0.25
'0:02.158',-0.24662162
'0:02.161',-0.25
'0:02.164',-0.27027027
'0:02.167',-0.31081081
'0:02.169',-0.33445946
'0:02.172',-0.32094595
'0:02.175',-0.30405405
'0:02.178',-0.30743243
'0:02.181',-0.33108108
'0:02.183',-0.375
'0:02.186',-0.40878378
'0:02.189',-0.40878378
'0:02.192',-0.39527027
'0:02.194',-0.38513514
'0:02.197',-0.39864865
'0:02.200',-0.43243243
'0:02.203',-0.46959459
'0:02.206',-0.46959459
'0:02.208',-0.44932432
'0:02.211',-0.42905405
'0:02.214',-0.42905405
'0:02.217',-0.44256757
'0:02.219',-0.44256757
'0:02.222',-0.43243243
'0:02.225',-0.4222973
'0:02.228',-0.44932432
'0:02.231',-0.47297297
'0:02.233',-0.47635135
'0:02.236',-0.47297297
'0:02.239',-0.46283784
'0:02.242',-0.45945946
'0:02.244',-0.44256757
'0:02.247',-0.43918919
'0:02.250',-0.43918919
'0:02.253',-0.44932432
'0:02.256',-0.46283784
'0:02.258',-0.46621622
'0:02.261',-0.47972973
'0:02.264',-0.45945946
'0:02.267',-0.43243243
'0:02.269',-0.43243243
'0:02.272',-0.45608108
'0:02.275',-0.51689189
'0:02.278',-0.61148649
'0:02.281',-0.72972973
'0:02.283',-0.81418919
'0:02.286',-0.80067568
'0:02.289',-0.7027027
'0:02.292',-0.50675676
'0:02.294',-0.23310811
'0:02.297',0.13513514
'0:02.300',0.65878378
'0:02.303',1.29054054
'0:02.306',1.9527027
'0:02.308',2.56418919
'0:02.311',3.06081081
'0:02.314',3.39189189
'0:02.317',3.45945946
'0:02.319',3.15878378
'0:02.322',2.50675676
'0:02.325',1.47635135
'0:02.328',0.18918919
'0:02.331',-0.56081081
'0:02.333',-0.64527027
'0:02.336',-0.60472973
'0:02.339',-0.67905405
'0:02.342',-0.78378378
'0:02.344',-0.80067568
'0:02.347',-0.72972973
'0:02.350',-0.65540541
'0:02.353',-0.59797297
'0:02.356',-0.54054054
'0:02.358',-0.48648649
'0:02.361',-0.44256757
'0:02.364',-0.41216216
'0:02.367',-0.39189189
'0:02.369',-0.38513514
'0:02.372',-0.39864865
'0:02.375',-0.42905405
'0:02.378',-0.41891892
'0:02.381',-0.35472973
'0:02.383',-0.2972973
'0:02.386',-0.27364865
'0:02.389',-0.24662162
'0:02.392',-0.20945946
'0:02.394',-0.2027027
'0:02.397',-0.24662162
'0:02.400',-0.30743243
'0:02.403',-0.35810811
'0:02.406',-0.36486486
'0:02.408',-0.33108108
'0:02.411',-0.2972973
'0:02.414',-0.26351351
'0:02.417',-0.23310811
'0:02.419',-0.22635135
'0:02.422',-0.24662162
'0:02.425',-0.26351351
'0:02.428',-0.25
'0:02.431',-0.23310811
'0:02.433',-0.23648649
'0:02.436',-0.22972973
'0:02.439',-0.2027027
'0:02.442',-0.17567568
'0:02.444',-0.15540541
'0:02.447',-0.14189189
'0:02.450',-0.12837838
'0:02.453',-0.08783784
'0:02.456',-0.0472973
'0:02.458',-0.02027027
'0:02.461',0.00337838
'0:02.464',0.03378378
'0:02.467',0.06081081
'0:02.469',0.10135135
'0:02.472',0.14527027
'0:02.475',0.18243243
'0:02.478',0.20608108
'0:02.481',0.2027027
'0:02.483',0.16554054
'0:02.486',0.15540541
'0:02.489',0.2027027
'0:02.492',0.27027027
'0:02.494',0.33783784
'0:02.497',0.39527027
'0:02.500',0.44256757
'0:02.503',0.48648649
'0:02.506',0.54391892
'0:02.508',0.59459459
'0:02.511',0.62162162
'0:02.514',0.65540541
'0:02.517',0.69256757
'0:02.519',0.74324324
'0:02.522',0.78716216
'0:02.525',0.83108108
'0:02.528',0.85135135
'0:02.531',0.86486486
'0:02.533',0.88175676
'0:02.536',0.90540541
'0:02.539',0.92567568
'0:02.542',0.9222973
'0:02.544',0.88851351
'0:02.547',0.85472973
'0:02.550',0.82432432
'0:02.553',0.78040541
'0:02.556',0.73310811
'0:02.558',0.6722973
'0:02.561',0.59121622
'0:02.564',0.51689189
'0:02.567',0.43918919
'0:02.569',0.36824324
'0:02.572',0.30067568
'0:02.575',0.23986486
'0:02.578',0.16216216
'0:02.581',0.0777027
'0:02.583',0.01351351
'0:02.586',-0.03040541
'0:02.589',-0.06756757
'0:02.592',-0.09459459
'0:02.594',-0.13175676
'0:02.597',-0.16891892
'0:02.600',-0.2027027
'0:02.603',-0.23986486
'0:02.606',-0.27027027
'0:02.608',-0.29391892
'0:02.611',-0.32432432
'0:02.614',-0.34797297
'0:02.617',-0.35135135
'0:02.619',-0.34459459
'0:02.622',-0.35472973
'0:02.625',-0.35472973
'0:02.628',-0.35135135
'0:02.631',-0.35135135
'0:02.633',-0.35810811
'0:02.636',-0.37162162
'0:02.639',-0.37837838
'0:02.642',-0.38513514
'0:02.644',-0.39189189
'0:02.647',-0.40878378
'0:02.650',-0.41891892
'0:02.653',-0.41216216
'0:02.656',-0.39189189
'0:02.658',-0.36824324
'0:02.661',-0.36486486
'0:02.664',-0.36824324
'0:02.667',-0.375
'0:02.669',-0.38513514
'0:02.672',-0.39864865
'0:02.675',-0.40878378
'0:02.678',-0.41891892
'0:02.681',-0.42567568
'0:02.683',-0.43243243
'0:02.686',-0.43243243
'0:02.689',-0.40540541
'0:02.692',-0.38175676
'0:02.694',-0.37837838
'0:02.697',-0.40202703
'0:02.700',-0.43918919
'0:02.703',-0.44256757
'0:02.706',-0.41891892
'0:02.708',-0.41554054
'0:02.711',-0.43918919
'0:02.714',-0.44594595
'0:02.717',-0.43581081
'0:02.719',-0.41216216
'0:02.722',-0.39189189
'0:02.725',-0.38513514
'0:02.728',-0.39527027
'0:02.731',-0.41891892
'0:02.733',-0.42905405
'0:02.736',-0.41554054
'0:02.739',-0.40540541
'0:02.742',-0.40540541
'0:02.744',-0.40202703
'0:02.747',-0.40202703
'0:02.750',-0.39527027
'0:02.753',-0.38851351
'0:02.756',-0.38851351
'0:02.758',-0.38175676
'0:02.761',-0.39527027
'0:02.764',-0.40540541
'0:02.767',-0.40202703
'0:02.769',-0.37837838
'0:02.772',-0.36148649
'0:02.775',-0.36148649
'0:02.778',-0.36824324
'0:02.781',-0.36486486
'0:02.783',-0.34797297
'0:02.786',-0.32094595
'0:02.789',-0.29054054
'0:02.792',-0.27364865
'0:02.794',-0.27702703
'0:02.797',-0.28040541
'0:02.800',-0.28040541
'0:02.803',-0.27364865
'0:02.806',-0.27027027
'0:02.808',-0.25675676
'0:02.811',-0.23648649
'0:02.814',-0.21621622
'0:02.817',-0.2027027
'0:02.819',-0.20608108
'0:02.822',-0.21959459
'0:02.825',-0.21621622
'0:02.828',-0.20945946
'0:02.831',-0.23310811
'0:02.833',-0.27702703
'0:02.836',-0.29054054
'0:02.839',-0.28040541
'0:02.842',-0.26689189
'0:02.844',-0.27702703
'0:02.847',-0.30405405
'0:02.850',-0.33108108
'0:02.853',-0.33445946
'0:02.856',-0.33783784
'0:02.858',-0.33445946
'0:02.861',-0.33445946
'0:02.864',-0.35472973
'0:02.867',-0.38513514
'0:02.869',-0.40202703
'0:02.872',-0.41216216
'0:02.875',-0.41891892
'0:02.878',-0.43243243
'0:02.881',-0.43918919
'0:02.883',-0.43918919
'0:02.886',-0.43918919
'0:02.889',-0.44256757
'0:02.892',-0.43918919
'0:02.894',-0.44594595
'0:02.897',-0.46283784
'0:02.900',-0.48310811
'0:02.903',-0.47297297
'0:02.906',-0.44594595
'0:02.908',-0.43918919
'0:02.911',-0.46621622
'0:02.914',-0.47297297
'0:02.917',-0.45608108
'0:02.919',-0.44256757
'0:02.922',-0.4527027
'0:02.925',-0.47972973
'0:02.928',-0.47297297
'0:02.931',-0.45608108
'0:02.933',-0.46283784
'0:02.936',-0.46959459
'0:02.939',-0.45608108
'0:02.942',-0.4527027
'0:02.944',-0.45945946
'0:02.947',-0.46959459
'0:02.950',-0.48310811
'0:02.953',-0.52027027
'0:02.956',-0.61148649
'0:02.958',-0.72972973
'0:02.961',-0.81081081
'0:02.964',-0.80067568
'0:02.967',-0.73986486
'0:02.969',-0.60810811
'0:02.972',-0.34121622
'0:02.975',0.08445946
'0:02.978',0.64189189
'0:02.981',1.24662162
'0:02.983',1.87837838
'0:02.986',2.48648649
'0:02.989',2.98310811
'0:02.992',3.2972973
'0:02.994',3.35472973
'0:02.997',3.0777027
'0:03.000',2.51689189
'0:03.003',1.60810811
'0:03.006',0.33445946
'0:03.008',-0.5
'0:03.011',-0.63175676
'0:03.014',-0.5777027
'0:03.017',-0.65540541
'0:03.019',-0.76689189
'0:03.022',-0.78040541
'0:03.025',-0.71283784
'0:03.028',-0.64189189
'0:03.031',-0.58445946
'0:03.033',-0.53716216
'0:03.036',-0.46959459
'0:03.039',-0.41554054
'0:03.042',-0.40540541
'0:03.044',-0.42567568
'0:03.047',-0.44256757
'0:03.050',-0.42905405
'0:03.053',-0.39864865
'0:03.056',-0.38175676
'0:03.058',-0.38513514
'0:03.061',-0.38513514
'0:03.064',-0.37162162
'0:03.067',-0.35810811
'0:03.069',-0.34459459
'0:03.072',-0.33445946
'0:03.075',-0.31756757
'0:03.078',-0.31081081
'0:03.081',-0.32432432
'0:03.083',-0.33783784
'0:03.086',-0.31756757
'0:03.089',-0.29391892
'0:03.092',-0.26351351
'0:03.094',-0.23310811
'0:03.097',-0.21621622
'0:03.100',-0.21621622
'0:03.103',-0.21621622
'0:03.106',-0.20608108
'0:03.108',-0.2027027
'0:03.111',-0.20608108
'0:03.114',-0.21621622
'0:03.117',-0.21621622
'0:03.119',-0.18581081
'0:03.122',-0.14527027
'0:03.125',-0.10810811
'0:03.128',-0.08783784
'0:03.131',-0.08108108
'0:03.133',-0.07432432
'0:03.136',-0.06418919
'0:03.139',-0.0472973
'0:03.142',-0.01351351
'0:03.144',0.02364865
'0:03.147',0.05405405
'0:03.150',0.08108108
'0:03.153',0.11824324
'0:03.156',0.14864865
'0:03.158',0.1722973
'0:03.161',0.18581081
'0:03.164',0.21959459
'0:03.167',0.28378378
'0:03.169',0.34797297
'0:03.172',0.38513514
'0:03.175',0.4222973
'0:03.178',0.45608108
'0:03.181',0.46621622
'0:03.183',0.48310811
'0:03.186',0.53378378
'0:03.189',0.60472973
'0:03.192',0.6722973
'0:03.194',0.72635135
'0:03.197',0.76351351
'0:03.200',0.78378378
'0:03.203',0.81418919
'0:03.206',0.84797297
'0:03.208',0.85472973
'0:03.211',0.84797297
'0:03.214',0.85472973
'0:03.217',0.90202703
'0:03.219',0.93581081
'0:03.222',0.91554054
'0:03.225',0.86486486
'0:03.228',0.80067568
'0:03.231',0.72972973
'0:03.233',0.68581081
'0:03.236',0.64864865
'0:03.239',0.58108108
'0:03.242',0.51689189
'0:03.244',0.45945946
'0:03.247',0.40202703
'0:03.250',0.31756757
'0:03.253',0.22297297
'0:03.256',0.12837838
'0:03.258',0.0472973
'0:03.261',-0.02027027
'0:03.264',-0.07432432
'0:03.267',-0.10472973
'0:03.269',-0.125
'0:03.272',-0.14527027
'0:03.275',-0.17567568
'0:03.278',-0.21959459
'0:03.281',-0.26351351
'0:03.283',-0.2972973
'0:03.286',-0.30743243
'0:03.289',-0.30067568
'0:03.292',-0.29391892
'0:03.294',-0.29391892
'0:03.297',-0.3277027
'0:03.300',-0.37837838
'0:03.303',-0.40540541
'0:03.306',-0.40878378
'0:03.308',-0.39527027
'0:03.311',-0.38513514
'0:03.314',-0.37162162
'0:03.317',-0.36486486
'0:03.319',-0.36824324
'0:03.322',-0.38851351
'0:03.325',-0.38175676
'0:03.328',-0.38513514
'0:03.331',-0.40878378
'0:03.333',-0.42905405
'0:03.336',-0.43243243
'0:03.339',-0.42567568
'0:03.342',-0.42905405
'0:03.344',-0.44594595
'0:03.347',-0.44932432
'0:03.350',-0.43243243
'0:03.353',-0.39527027
'0:03.356',-0.36148649
'0:03.358',-0.375
'0:03.361',-0.41891892
'0:03.364',-0.44256757
'0:03.367',-0.44594595
'0:03.369',-0.43243243
'0:03.372',-0.41554054
'0:03.375',-0.40540541
'0:03.378',-0.41554054
'0:03.381',-0.42567568
'0:03.383',-0.43581081
'0:03.386',-0.43243243
'0:03.389',-0.42905405
'0:03.392',-0.43918919
'0:03.394',-0.4527027
'0:03.397',-0.43243243
'0:03.400',-0.41216216
'0:03.403',-0.40878378
'0:03.406',-0.4222973
'0:03.408',-0.41216216
'0:03.411',-0.39189189
'0:03.414',-0.39189189
'0:03.417',-0.40540541
'0:03.419',-0.40878378
'0:03.422',-0.40202703
'0:03.425',-0.38513514
'0:03.428',-0.38851351
'0:03.431',-0.39527027
'0:03.433',-0.39864865
'0:03.436',-0.37162162
'0:03.439',-0.34121622
'0:03.442',-0.33108108
'0:03.444',-0.33445946
'0:03.447',-0.34797297
'0:03.450',-0.34797297
'0:03.453',-0.33445946
'0:03.456',-0.30405405
'0:03.458',-0.28716216
'0:03.461',-0.29391892
'0:03.464',-0.29391892
'0:03.467',-0.28378378
'0:03.469',-0.27027027
'0:03.472',-0.26351351
'0:03.475',-0.24324324
'0:03.478',-0.21621622
'0:03.481',-0.20608108
'0:03.483',-0.2027027
'0:03.486',-0.19932432
'0:03.489',-0.19932432
'0:03.492',-0.20608108
'0:03.494',-0.22297297
'0:03.497',-0.23986486
'0:03.500',-0.25337838
'0:03.503',-0.24662162
'0:03.506',-0.25
'0:03.508',-0.27027027
'0:03.511',-0.29391892
'0:03.514',-0.31756757
'0:03.517',-0.33783784
'0:03.519',-0.34797297
'0:03.522',-0.34797297
'0:03.525',-0.34459459
'0:03.528',-0.36486486
'0:03.531',-0.38851351
'0:03.533',-0.39864865
'0:03.536',-0.40878378
'0:03.539',-0.43243243
'0:03.542',-0.43918919
'0:03.544',-0.43918919
'0:03.547',-0.4527027
'0:03.550',-0.46621622
'0:03.553',-0.46283784
'0:03.556',-0.4527027
'0:03.558',-0.44256757
'0:03.561',-0.44594595
'0:03.564',-0.4527027
'0:03.567',-0.45608108
'0:03.569',-0.46621622
'0:03.572',-0.46959459
'0:03.575',-0.45608108
'0:03.578',-0.44594595
'0:03.581',-0.45945946
'0:03.583',-0.47635135
'0:03.586',-0.47297297
'0:03.589',-0.46283784
'0:03.592',-0.45608108
'0:03.594',-0.45945946
'0:03.597',-0.45945946
'0:03.600',-0.44594595
'0:03.603',-0.44594595
'0:03.606',-0.45945946
'0:03.608',-0.46283784
'0:03.611',-0.45608108
'0:03.614',-0.46283784
'0:03.617',-0.47635135
'0:03.619',-0.51689189
'0:03.622',-0.60810811
'0:03.625',-0.72972973
'0:03.628',-0.83445946
'0:03.631',-0.84459459
'0:03.633',-0.75675676
'0:03.636',-0.5777027
'0:03.639',-0.30067568
'0:03.642',0.11148649
'0:03.644',0.64864865
'0:03.647',1.25
'0:03.650',1.89527027
'0:03.653',2.52702703
'0:03.656',3.05067568
'0:03.658',3.36148649
'0:03.661',3.40202703
'0:03.664',3.10810811
'0:03.667',2.48648649
'0:03.669',1.51013514
'0:03.672',0.25
'0:03.675',-0.49662162
'0:03.678',-0.59459459
'0:03.681',-0.5777027
'0:03.683',-0.69594595
'0:03.686',-0.80067568
'0:03.689',-0.80743243
'0:03.692',-0.72972973
'0:03.694',-0.64527027
'0:03.697',-0.58108108
'0:03.700',-0.53040541
'0:03.703',-0.47297297
'0:03.706',-0.4222973
'0:03.708',-0.39527027
'0:03.711',-0.39189189
'0:03.714',-0.39189189
'0:03.717',-0.40202703
'0:03.719',-0.39527027
'0:03.722',-0.375
'0:03.725',-0.36486486
'0:03.728',-0.36486486
'0:03.731',-0.35472973
'0:03.733',-0.32094595
'0:03.736',-0.29391892
'0:03.739',-0.28716216
'0:03.742',-0.29054054
'0:03.744',-0.28716216
'0:03.747',-0.27364865
'0:03.750',-0.27702703
'0:03.753',-0.2972973
'0:03.756',-0.31756757
'0:03.758',-0.30743243
'0:03.761',-0.28716216
'0:03.764',-0.28040541
'0:03.767',-0.26689189
'0:03.769',-0.22297297
'0:03.772',-0.18918919
'0:03.775',-0.16554054
'0:03.778',-0.16554054
'0:03.781',-0.16891892
'0:03.783',-0.1722973
'0:03.786',-0.15540541
'0:03.789',-0.14864865
'0:03.792',-0.14189189
'0:03.794',-0.125
'0:03.797',-0.09797297
'0:03.800',-0.06418919
'0:03.803',-0.03040541
'0:03.806',-0.00337838
'0:03.808',0.02702703
'0:03.811',0.04054054
'0:03.814',0.04391892
'0:03.817',0.06756757
'0:03.819',0.11486486
'0:03.822',0.15878378
'0:03.825',0.2027027
'0:03.828',0.23648649
'0:03.831',0.25
'0:03.833',0.27702703
'0:03.836',0.33108108
'0:03.839',0.39527027
'0:03.842',0.45945946
'0:03.844',0.51013514
'0:03.847',0.55743243
'0:03.850',0.57094595
'0:03.853',0.61486486
'0:03.856',0.67567568
'0:03.858',0.70945946
'0:03.861',0.73310811
'0:03.864',0.76013514
'0:03.867',0.80405405
'0:03.869',0.84459459
'0:03.872',0.87837838
'0:03.875',0.91216216
'0:03.878',0.92905405
'0:03.881',0.93581081
'0:03.883',0.92567568
'0:03.886',0.91216216
'0:03.889',0.90540541
'0:03.892',0.89189189
'0:03.894',0.85810811
'0:03.897',0.7972973
'0:03.900',0.70608108
'0:03.903',0.625
'0:03.906',0.5472973
'0:03.908',0.47972973
'0:03.911',0.42567568
'0:03.914',0.34121622
'0:03.917',0.23986486
'0:03.919',0.16554054
'0:03.922',0.12162162
'0:03.925',0.07432432
'0:03.928',0.03040541
'0:03.931',-0.02364865
'0:03.933',-0.09797297
'0:03.936',-0.13175676
'0:03.939',-0.13513514
'0:03.942',-0.14864865
'0:03.944',-0.19256757
'0:03.947',-0.24324324
'0:03.950',-0.28378378
'0:03.953',-0.31418919
'0:03.956',-0.32432432
'0:03.958',-0.33108108
'0:03.961',-0.34797297
'0:03.964',-0.34797297
'0:03.967',-0.34459459
'0:03.969',-0.34459459
'0:03.972',-0.34121622
'0:03.975',-0.34121622
'0:03.978',-0.35135135
'0:03.981',-0.37837838
'0:03.983',-0.39189189
'0:03.986',-0.36486486
'0:03.989',-0.33783784
'0:03.992',-0.35135135
'0:03.994',-0.38851351
'0:03.997',-0.43918919
'0:04.000',-0.46621622
'0:04.003',-0.45945946
'0:04.006',-0.44256757
'0:04.008',-0.43243243
'0:04.011',-0.4222973
'0:04.014',-0.41216216
'0:04.017',-0.38513514
'0:04.019',-0.33108108
'0:04.022',-0.31756757
'0:04.025',-0.36486486
'0:04.028',-0.40540541
'0:04.031',-0.42567568
'0:04.033',-0.43243243
'0:04.036',-0.43581081
'0:04.039',-0.4527027
'0:04.042',-0.45945946
'0:04.044',-0.45608108
'0:04.047',-0.43918919
'0:04.050',-0.40202703
'0:04.053',-0.35810811
'0:04.056',-0.32432432
'0:04.058',-0.33445946
'0:04.061',-0.38851351
'0:04.064',-0.44932432
'0:04.067',-0.47972973
'0:04.069',-0.47972973
'0:04.072',-0.4527027
'0:04.075',-0.43243243
'0:04.078',-0.41891892
'0:04.081',-0.38513514
'0:04.083',-0.32094595
'0:04.086',-0.26689189
'0:04.089',-0.27702703
'0:04.092',-0.34459459
'0:04.094',-0.40202703
'0:04.097',-0.40878378
'0:04.100',-0.38175676
'0:04.103',-0.35810811
'0:04.106',-0.34459459
'0:04.108',-0.30405405
'0:04.111',-0.26013514
'0:04.114',-0.23986486
'0:04.117',-0.23310811
'0:04.119',-0.22972973
'0:04.122',-0.24662162
'0:04.125',-0.28716216
'0:04.128',-0.33783784
'0:04.131',-0.37162162
'0:04.133',-0.37837838
'0:04.136',-0.34121622
'0:04.139',-0.28040541
'0:04.142',-0.24324324
'0:04.144',-0.24662162
'0:04.147',-0.27027027
'0:04.150',-0.27702703
'0:04.153',-0.25675676
'0:04.156',-0.22297297
'0:04.158',-0.20945946
'0:04.161',-0.23310811
'0:04.164',-0.24662162
'0:04.167',-0.25
'0:04.169',-0.25
'0:04.172',-0.26351351
'0:04.175',-0.27702703
'0:04.178',-0.30067568
'0:04.181',-0.3277027
'0:04.183',-0.3277027
'0:04.186',-0.30067568
'0:04.189',-0.29391892
'0:04.192',-0.2972973
'0:04.194',-0.2972973
'0:04.197',-0.31756757
'0:04.200',-0.34797297
'0:04.203',-0.39189189
'0:04.206',-0.41554054
'0:04.208',-0.42567568
'0:04.211',-0.42905405
'0:04.214',-0.41554054
'0:04.217',-0.40878378
'0:04.219',-0.40202703
'0:04.222',-0.39864865
'0:04.225',-0.39864865
'0:04.228',-0.41216216
'0:04.231',-0.40540541
'0:04.233',-0.38513514
'0:04.236',-0.36824324
'0:04.239',-0.37837838
'0:04.242',-0.38513514
'0:04.244',-0.38513514
'0:04.247',-0.40878378
'0:04.250',-0.46959459
'0:04.253',-0.51351351
'0:04.256',-0.51013514
'0:04.258',-0.48986486
'0:04.261',-0.48986486
'0:04.264',-0.51013514
'0:04.267',-0.52364865
'0:04.269',-0.52027027
'0:04.272',-0.51689189
'0:04.275',-0.5
'0:04.278',-0.47297297
'0:04.281',-0.45608108
'0:04.283',-0.46283784
'0:04.286',-0.45945946
'0:04.289',-0.46283784
'0:04.292',-0.50337838
'0:04.294',-0.60135135
'0:04.297',-0.74662162
'0:04.300',-0.85810811
'0:04.303',-0.87162162
'0:04.306',-0.77702703
'0:04.308',-0.57432432
'0:04.311',-0.27702703
'0:04.314',0.13851351
'0:04.317',0.6722973
'0:04.319',1.28716216
'0:04.322',1.9527027
'0:04.325',2.58108108
'0:04.328',3.09459459
'0:04.331',3.4222973
'0:04.333',3.47635135
'0:04.336',3.16554054
'0:04.339',2.52027027
'0:04.342',1.50675676
'0:04.344',0.23648649
'0:04.347',-0.51351351
'0:04.350',-0.63175676
'0:04.353',-0.59121622
'0:04.356',-0.66554054
'0:04.358',-0.75675676
'0:04.361',-0.76013514
'0:04.364',-0.69256757
'0:04.367',-0.61824324
'0:04.369',-0.54391892
'0:04.372',-0.47297297
'0:04.375',-0.42567568
'0:04.378',-0.40540541
'0:04.381',-0.40540541
'0:04.383',-0.40878378
'0:04.386',-0.40540541
'0:04.389',-0.38513514
'0:04.392',-0.37162162
'0:04.394',-0.36824324
'0:04.397',-0.37837838
'0:04.400',-0.38175676
'0:04.403',-0.35135135
'0:04.406',-0.32094595
'0:04.408',-0.31081081
'0:04.411',-0.31418919
'0:04.414',-0.32432432
'0:04.417',-0.32432432
'0:04.419',-0.31081081
'0:04.422',-0.30405405
'0:04.425',-0.29054054
'0:04.428',-0.27702703
'0:04.431',-0.26689189
'0:04.433',-0.26013514
'0:04.436',-0.24324324
'0:04.439',-0.22972973
'0:04.442',-0.22297297
'0:04.444',-0.20945946
'0:04.447',-0.18918919
'0:04.450',-0.18581081
'0:04.453',-0.18918919
'0:04.456',-0.18918919
'0:04.458',-0.16891892
'0:04.461',-0.14527027
'0:04.464',-0.12837838
'0:04.467',-0.11486486
'0:04.469',-0.09459459
'0:04.472',-0.06756757
'0:04.475',-0.03716216
'0:04.478',0.00337838
'0:04.481',0.04054054
'0:04.483',0.06756757
'0:04.486',0.08445946
'0:04.489',0.09797297
'0:04.492',0.11486486
'0:04.494',0.15202703
'0:04.497',0.19256757
'0:04.500',0.21621622
'0:04.503',0.25675676
'0:04.506',0.2972973
'0:04.508',0.34121622
'0:04.511',0.375
'0:04.514',0.39864865
'0:04.517',0.43918919
'0:04.519',0.50337838
'0:04.522',0.56418919
'0:04.525',0.61486486
'0:04.528',0.64864865
'0:04.531',0.67567568
'0:04.533',0.69932432
'0:04.536',0.74662162
'0:04.539',0.78716216
'0:04.542',0.83783784
'0:04.544',0.87837838
'0:04.547',0.89864865
'0:04.550',0.90202703
'0:04.553',0.91554054
'0:04.556',0.92567568
'0:04.558',0.93243243
'0:04.561',0.9222973
'0:04.564',0.89527027
'0:04.567',0.84121622
'0:04.569',0.78378378
'0:04.572',0.72972973
'0:04.575',0.67905405
'0:04.578',0.625
'0:04.581',0.56081081
'0:04.583',0.46283784
'0:04.586',0.37837838
'0:04.589',0.31756757
'0:04.592',0.26351351
'0:04.594',0.18581081
'0:04.597',0.10135135
'0:04.600',0.03716216
'0:04.603',0
'0:04.606',-0.02702703
'0:04.608',-0.07094595
'0:04.611',-0.12837838
'0:04.614',-0.1722973
'0:04.617',-0.19932432
'0:04.619',-0.21283784
'0:04.622',-0.22635135
'0:04.625',-0.26013514
'0:04.628',-0.2972973
'0:04.631',-0.32094595
'0:04.633',-0.34121622
'0:04.636',-0.34459459
'0:04.639',-0.31756757
'0:04.642',-0.29391892
'0:04.644',-0.2972973
'0:04.647',-0.32432432
'0:04.650',-0.375
'0:04.653',-0.40878378
'0:04.656',-0.39864865
'0:04.658',-0.37837838
'0:04.661',-0.38175676
'0:04.664',-0.38851351
'0:04.667',-0.38175676
'0:04.669',-0.36148649
'0:04.672',-0.36148649
'0:04.675',-0.36486486
'0:04.678',-0.375
'0:04.681',-0.38175676
'0:04.683',-0.39189189
'0:04.686',-0.37162162
'0:04.689',-0.35810811
'0:04.692',-0.36824324
'0:04.694',-0.38175676
'0:04.697',-0.39527027
'0:04.700',-0.40202703
'0:04.703',-0.40540541
'0:04.706',-0.38851351
'0:04.708',-0.36486486
'0:04.711',-0.37162162
'0:04.714',-0.39189189
'0:04.717',-0.40540541
'0:04.719',-0.40540541
'0:04.722',-0.38851351
'0:04.725',-0.38175676
'0:04.728',-0.40202703
'0:04.731',-0.41891892
'0:04.733',-0.41216216
'0:04.736',-0.38851351
'0:04.739',-0.37162162
'0:04.742',-0.36148649
'0:04.744',-0.35472973
'0:04.747',-0.35135135
'0:04.750',-0.375
'0:04.753',-0.38851351
'0:04.756',-0.37162162
'0:04.758',-0.34459459
'0:04.761',-0.34121622
'0:04.764',-0.35135135
'0:04.767',-0.35810811
'0:04.769',-0.35810811
'0:04.772',-0.36486486
'0:04.775',-0.36824324
'0:04.778',-0.37162162
'0:04.781',-0.35810811
'0:04.783',-0.34459459
'0:04.786',-0.33108108
'0:04.789',-0.32432432
'0:04.792',-0.32094595
'0:04.794',-0.31756757
'0:04.797',-0.30405405
'0:04.800',-0.29054054
'0:04.803',-0.25337838
'0:04.806',-0.23986486
'0:04.808',-0.25
'0:04.811',-0.26351351
'0:04.814',-0.26351351
'0:04.817',-0.26013514
'0:04.819',-0.25337838
'0:04.822',-0.24324324
'0:04.825',-0.22635135
'0:04.828',-0.19932432
'0:04.831',-0.18243243
'0:04.833',-0.18243243
'0:04.836',-0.19256757
'0:04.839',-0.2027027
'0:04.842',-0.19594595
'0:04.844',-0.20608108
'0:04.847',-0.23648649
'0:04.850',-0.26689189
'0:04.853',-0.29391892
'0:04.856',-0.29391892
'0:04.858',-0.29054054
'0:04.861',-0.29391892
'0:04.864',-0.29391892
'0:04.867',-0.30067568
'0:04.869',-0.31081081
'0:04.872',-0.31081081
'0:04.875',-0.30743243
'0:04.878',-0.33783784
'0:04.881',-0.39527027
'0:04.883',-0.41891892
'0:04.886',-0.41891892
'0:04.889',-0.41891892
'0:04.892',-0.43581081
'0:04.894',-0.44256757
'0:04.897',-0.4222973
'0:04.900',-0.40540541
'0:04.903',-0.40878378
'0:04.906',-0.4222973
'0:04.908',-0.44594595
'0:04.911',-0.44256757
'0:04.914',-0.39864865
'0:04.917',-0.38851351
'0:04.919',-0.40878378
'0:04.922',-0.42905405
'0:04.925',-0.44932432
'0:04.928',-0.47297297
'0:04.931',-0.46959459
'0:04.933',-0.46283784
'0:04.936',-0.45945946
'0:04.939',-0.46283784
'0:04.942',-0.44932432
'0:04.944',-0.43243243
'0:04.947',-0.42567568
'0:04.950',-0.43918919
'0:04.953',-0.46283784
'0:04.956',-0.46283784
'0:04.958',-0.44594595
'0:04.961',-0.43581081
'0:04.964',-0.41891892
'0:04.967',-0.42905405
'0:04.969',-0.48310811
'0:04.972',-0.625
'0:04.975',-0.78716216
'0:04.978',-0.86824324
'0:04.981',-0.83783784
'0:04.983',-0.70945946
'0:04.986',-0.46621622
'0:04.989',-0.07432432
'0:04.992',0.45608108
'0:04.994',1.10135135
'0:04.997',1.75675676
'0:05.000',2.35135135
'0:05.003',2.85135135
'0:05.006',3.22635135
'0:05.008',3.40878378
'0:05.011',3.29054054
'0:05.014',2.79054054
'0:05.017',1.94594595
'0:05.019',0.73648649
'0:05.022',-0.26351351
'0:05.025',-0.56756757
'0:05.028',-0.5472973
'0:05.031',-0.59797297
'0:05.033',-0.71959459
'0:05.036',-0.75675676
'0:05.039',-0.72635135
'0:05.042',-0.65540541
'0:05.044',-0.57432432
'0:05.047',-0.51013514
'0:05.050',-0.47297297
'0:05.053',-0.44256757
'0:05.056',-0.38851351
'0:05.058',-0.35810811
'0:05.061',-0.36824324
'0:05.064',-0.38513514
'0:05.067',-0.375
'0:05.069',-0.33445946
'0:05.072',-0.30067568
'0:05.075',-0.25675676
'0:05.078',-0.21621622
'0:05.081',-0.21283784
'0:05.083',-0.27027027
'0:05.086',-0.33445946
'0:05.089',-0.37162162
'0:05.092',-0.36486486
'0:05.094',-0.35472973
'0:05.097',-0.36486486
'0:05.100',-0.37837838
'0:05.103',-0.35135135
'0:05.106',-0.31418919
'0:05.108',-0.29391892
'0:05.111',-0.30743243
'0:05.114',-0.31081081
'0:05.117',-0.28378378
'0:05.119',-0.23310811
'0:05.122',-0.19932432
'0:05.125',-0.1722973
'0:05.128',-0.16891892
'0:05.131',-0.16891892
'0:05.133',-0.16216216
'0:05.136',-0.15540541
'0:05.139',-0.12837838
'0:05.142',-0.09797297
'0:05.144',-0.08108108
'0:05.147',-0.06418919
'0:05.150',-0.04054054
'0:05.153',-0.02364865
'0:05.156',0
'0:05.158',0.03040541
'0:05.161',0.05067568
'0:05.164',0.06756757
'0:05.167',0.09121622
'0:05.169',0.13175676
'0:05.172',0.17567568
'0:05.175',0.21283784
'0:05.178',0.25
'0:05.181',0.29391892
'0:05.183',0.34459459
'0:05.186',0.38175676
'0:05.189',0.41216216
'0:05.192',0.44932432
'0:05.194',0.48648649
'0:05.197',0.50675676
'0:05.200',0.54391892
'0:05.203',0.59121622
'0:05.206',0.63175676
'0:05.208',0.66216216
'0:05.211',0.68918919
'0:05.214',0.72635135
'0:05.217',0.76013514
'0:05.219',0.80743243
'0:05.222',0.85135135
'0:05.225',0.89189189
'0:05.228',0.90540541
'0:05.231',0.90202703
'0:05.233',0.89864865
'0:05.236',0.89189189
'0:05.239',0.86824324
'0:05.242',0.83445946
'0:05.244',0.80405405
'0:05.247',0.75675676
'0:05.250',0.68581081
'0:05.253',0.61148649
'0:05.256',0.52364865
'0:05.258',0.43581081
'0:05.261',0.38175676
'0:05.264',0.32432432
'0:05.267',0.24662162
'0:05.269',0.18243243
'0:05.272',0.12162162
'0:05.275',0.06418919
'0:05.278',0.01013514
'0:05.281',-0.03716216
'0:05.283',-0.08108108
'0:05.286',-0.11148649
'0:05.289',-0.14864865
'0:05.292',-0.18243243
'0:05.294',-0.21621622
'0:05.297',-0.25337838
'0:05.300',-0.29054054
'0:05.303',-0.30067568
'0:05.306',-0.2972973
'0:05.308',-0.2972973
'0:05.311',-0.32094595
'0:05.314',-0.35135135
'0:05.317',-0.35810811
'0:05.319',-0.34459459
'0:05.322',-0.33783784
'0:05.325',-0.33445946
'0:05.328',-0.35135135
'0:05.331',-0.37837838
'0:05.333',-0.38175676
'0:05.336',-0.36824324
'0:05.339',-0.35135135
'0:05.342',-0.35472973
'0:05.344',-0.36824324
'0:05.347',-0.375
'0:05.350',-0.38175676
'0:05.353',-0.38851351
'0:05.356',-0.39527027
'0:05.358',-0.38513514
'0:05.361',-0.37837838
'0:05.364',-0.39527027
'0:05.367',-0.40878378
'0:05.369',-0.40202703
'0:05.372',-0.37837838
'0:05.375',-0.37162162
'0:05.378',-0.39527027
'0:05.381',-0.40878378
'0:05.383',-0.41216216
'0:05.386',-0.40540541
'0:05.389',-0.39527027
'0:05.392',-0.38851351
'0:05.394',-0.38851351
'0:05.397',-0.39189189
'0:05.400',-0.38851351
'0:05.403',-0.39189189
'0:05.406',-0.40202703
'0:05.408',-0.40540541
'0:05.411',-0.42567568
'0:05.414',-0.43243243
'0:05.417',-0.4222973
'0:05.419',-0.38513514
'0:05.422',-0.37162162
'0:05.425',-0.36486486
'0:05.428',-0.37162162
'0:05.431',-0.37837838
'0:05.433',-0.40878378
'0:05.436',-0.4222973
'0:05.439',-0.40202703
'0:05.442',-0.375
'0:05.444',-0.375
'0:05.447',-0.38175676
'0:05.450',-0.37837838
'0:05.453',-0.37162162
'0:05.456',-0.35472973
'0:05.458',-0.35472973
'0:05.461',-0.36486486
'0:05.464',-0.375
'0:05.467',-0.38513514
'0:05.469',-0.38175676
'0:05.472',-0.375
'0:05.475',-0.35810811
'0:05.478',-0.34459459
'0:05.481',-0.33783784
'0:05.483',-0.33445946
'0:05.486',-0.33108108
'0:05.489',-0.34797297
'0:05.492',-0.34459459
'0:05.494',-0.3277027
'0:05.497',-0.32432432
'0:05.500',-0.31756757
'0:05.503',-0.2972973
'0:05.506',-0.27027027
'0:05.508',-0.25337838
'0:05.511',-0.25
'0:05.514',-0.26351351
'0:05.517',-0.27364865
'0:05.519',-0.25337838
'0:05.522',-0.21621622
'0:05.525',-0.19932432
'0:05.528',-0.19594595
'0:05.531',-0.18918919
'0:05.533',-0.18581081
'0:05.536',-0.18581081
'0:05.539',-0.17567568
'0:05.542',-0.17905405
'0:05.544',-0.20608108
'0:05.547',-0.23986486
'0:05.550',-0.26689189
'0:05.553',-0.29054054
'0:05.556',-0.30405405
'0:05.558',-0.31756757
'0:05.561',-0.32094595
'0:05.564',-0.31418919
'0:05.567',-0.32432432
'0:05.569',-0.34121622
'0:05.572',-0.34121622
'0:05.575',-0.34121622
'0:05.578',-0.35472973
'0:05.581',-0.38513514
'0:05.583',-0.40878378
'0:05.586',-0.41891892
'0:05.589',-0.44256757
'0:05.592',-0.4527027
'0:05.594',-0.46283784
'0:05.597',-0.45608108
'0:05.600',-0.44594595
'0:05.603',-0.42905405
'0:05.606',-0.41554054
'0:05.608',-0.41554054
'0:05.611',-0.43243243
'0:05.614',-0.45608108
'0:05.617',-0.47297297
'0:05.619',-0.46621622
'0:05.622',-0.46283784
'0:05.625',-0.45608108
'0:05.628',-0.44256757
'0:05.631',-0.43243243
'0:05.633',-0.44594595
'0:05.636',-0.4527027
'0:05.639',-0.43918919
'0:05.642',-0.43243243
'0:05.644',-0.44256757
'0:05.647',-0.44256757
'0:05.650',-0.43918919
'0:05.653',-0.4527027
'0:05.656',-0.46283784
'0:05.658',-0.43918919
'0:05.661',-0.43243243
'0:05.664',-0.44932432
'0:05.667',-0.51689189
'0:05.669',-0.63513514
'0:05.672',-0.76689189
'0:05.675',-0.83445946
'0:05.678',-0.80743243
'0:05.681',-0.69256757
'0:05.683',-0.49662162
'0:05.686',-0.16891892
'0:05.689',0.30743243
'0:05.692',0.89864865
'0:05.694',1.53040541
'0:05.697',2.18243243
'0:05.700',2.77027027
'0:05.703',3.22635135
'0:05.706',3.45945946
'0:05.708',3.36824324
'0:05.711',2.91891892
'0:05.714',2.16891892
'0:05.717',1.04391892
'0:05.719',-0.09459459
'0:05.722',-0.58783784
'0:05.725',-0.60135135
'0:05.728',-0.62162162
'0:05.731',-0.72635135
'0:05.733',-0.79391892
'0:05.736',-0.76351351
'0:05.739',-0.68243243
'0:05.742',-0.59459459
'0:05.744',-0.52027027
'0:05.747',-0.48986486
'0:05.750',-0.47635135
'0:05.753',-0.44256757
'0:05.756',-0.40202703
'0:05.758',-0.39527027
'0:05.761',-0.40540541
'0:05.764',-0.39864865
'0:05.767',-0.38513514
'0:05.769',-0.36486486
'0:05.772',-0.3277027
'0:05.775',-0.30405405
'0:05.778',-0.32094595
'0:05.781',-0.35472973
'0:05.783',-0.375
'0:05.786',-0.38175676
'0:05.789',-0.35135135
'0:05.792',-0.30743243
'0:05.794',-0.29054054
'0:05.797',-0.29391892
'0:05.800',-0.30405405
'0:05.803',-0.30067568
'0:05.806',-0.28716216
'0:05.808',-0.25675676
'0:05.811',-0.25
'0:05.814',-0.26013514
'0:05.817',-0.25675676
'0:05.819',-0.23310811
'0:05.822',-0.17905405
'0:05.825',-0.11486486
'0:05.828',-0.10810811
'0:05.831',-0.12837838
'0:05.833',-0.15540541
'0:05.836',-0.15540541
'0:05.839',-0.14864865
'0:05.842',-0.12837838
'0:05.844',-0.07432432
'0:05.847',-0.02364865
'0:05.850',0
'0:05.853',0.00337838
'0:05.856',0.02027027
'0:05.858',0.05743243
'0:05.861',0.09459459
'0:05.864',0.10135135
'0:05.867',0.07432432
'0:05.869',0.06418919
'0:05.872',0.09459459
'0:05.875',0.15202703
'0:05.878',0.20945946
'0:05.881',0.25
'0:05.883',0.2972973
'0:05.886',0.37837838
'0:05.889',0.43581081
'0:05.892',0.45608108
'0:05.894',0.46283784
'0:05.897',0.48986486
'0:05.900',0.53716216
'0:05.903',0.60135135
'0:05.906',0.64864865
'0:05.908',0.68581081
'0:05.911',0.70608108
'0:05.914',0.73986486
'0:05.917',0.78040541
'0:05.919',0.81756757
'0:05.922',0.85135135
'0:05.925',0.88513514
'0:05.928',0.89864865
'0:05.931',0.91554054
'0:05.933',0.91554054
'0:05.936',0.89864865
'0:05.939',0.86148649
'0:05.942',0.83783784
'0:05.944',0.80743243
'0:05.947',0.74324324
'0:05.950',0.64189189
'0:05.953',0.54391892
'0:05.956',0.47297297
'0:05.958',0.39864865
'0:05.961',0.3277027
'0:05.964',0.27702703
'0:05.967',0.20945946
'0:05.969',0.13851351
'0:05.972',0.08783784
'0:05.975',0.04054054
'0:05.978',0
'0:05.981',-0.04054054
'0:05.983',-0.10810811
'0:05.986',-0.16891892
'0:05.989',-0.18918919
'0:05.992',-0.19932432
'0:05.994',-0.21621622
'0:05.997',-0.23986486
'0:06.000',-0.27027027
'0:06.003',-0.30743243
'0:06.006',-0.34121622
'0:06.008',-0.35135135
'0:06.011',-0.34797297
'0:06.014',-0.33445946
'0:06.017',-0.36486486
'0:06.019',-0.40202703
'0:06.022',-0.40878378
'0:06.025',-0.40202703
'0:06.028',-0.39864865
'0:06.031',-0.40540541
'0:06.033',-0.40202703
'0:06.036',-0.39864865
'0:06.039',-0.39527027
'0:06.042',-0.38175676
'0:06.044',-0.36824324
'0:06.047',-0.37162162
'0:06.050',-0.38513514
'0:06.053',-0.40878378
'0:06.056',-0.4222973
'0:06.058',-0.42567568
'0:06.061',-0.42567568
'0:06.064',-0.42905405
'0:06.067',-0.44256757
'0:06.069',-0.44932432
'0:06.072',-0.43581081
'0:06.075',-0.41216216
'0:06.078',-0.40878378
'0:06.081',-0.42567568
'0:06.083',-0.44256757
'0:06.086',-0.43243243
'0:06.089',-0.4222973
'0:06.092',-0.42567568
'0:06.094',-0.43918919
'0:06.097',-0.44594595
'0:06.100',-0.44256757
'0:06.103',-0.42567568
'0:06.106',-0.40202703
'0:06.108',-0.36486486
'0:06.111',-0.36148649
'0:06.114',-0.39527027
'0:06.117',-0.4222973
'0:06.119',-0.41891892
'0:06.122',-0.39189189
'0:06.125',-0.35472973
'0:06.128',-0.35472973
'0:06.131',-0.38851351
'0:06.133',-0.40878378
'0:06.136',-0.39527027
'0:06.139',-0.38175676
'0:06.142',-0.38851351
'0:06.144',-0.40878378
'0:06.147',-0.41554054
'0:06.150',-0.40540541
'0:06.153',-0.39189189
'0:06.156',-0.37837838
'0:06.158',-0.37162162
'0:06.161',-0.36486486
'0:06.164',-0.36148649
'0:06.167',-0.37837838
'0:06.169',-0.38851351
'0:06.172',-0.38175676
'0:06.175',-0.36486486
'0:06.178',-0.35135135
'0:06.181',-0.34797297
'0:06.183',-0.34121622
'0:06.186',-0.32094595
'0:06.189',-0.29054054
'0:06.192',-0.27364865
'0:06.194',-0.29054054
'0:06.197',-0.32094595
'0:06.200',-0.32432432
'0:06.203',-0.29391892
'0:06.206',-0.26013514
'0:06.208',-0.25
'0:06.211',-0.24662162
'0:06.214',-0.23986486
'0:06.217',-0.23310811
'0:06.219',-0.21621622
'0:06.222',-0.20608108
'0:06.225',-0.2027027
'0:06.228',-0.21959459
'0:06.231',-0.24662162
'0:06.233',-0.27027027
'0:06.236',-0.27702703
'0:06.239',-0.27027027
'0:06.242',-0.28040541
'0:06.244',-0.30743243
'0:06.247',-0.30743243
'0:06.250',-0.29391892
'0:06.253',-0.29391892
'0:06.256',-0.33108108
'0:06.258',-0.36824324
'0:06.261',-0.38851351
'0:06.264',-0.39189189
'0:06.267',-0.39864865
'0:06.269',-0.40540541
'0:06.272',-0.39864865
'0:06.275',-0.39864865
'0:06.278',-0.4222973
'0:06.281',-0.4527027
'0:06.283',-0.47972973
'0:06.286',-0.47972973
'0:06.289',-0.45945946
'0:06.292',-0.44256757
'0:06.294',-0.46283784
'0:06.297',-0.48648649
'0:06.300',-0.47972973
'0:06.303',-0.45945946
'0:06.306',-0.44256757
'0:06.308',-0.43581081
'0:06.311',-0.44594595
'0:06.314',-0.46621622
'0:06.317',-0.48648649
'0:06.319',-0.47635135
'0:06.322',-0.46283784
'0:06.325',-0.4527027
'0:06.328',-0.4527027
'0:06.331',-0.46283784
'0:06.333',-0.46959459
'0:06.336',-0.45945946
'0:06.339',-0.43918919
'0:06.342',-0.42905405
'0:06.344',-0.44594595
'0:06.347',-0.45608108
'0:06.350',-0.46959459
'0:06.353',-0.50337838
'0:06.356',-0.57094595
'0:06.358',-0.67567568
'0:06.361',-0.78378378
'0:06.364',-0.83108108
'0:06.367',-0.78716216
'0:06.369',-0.66216216
'0:06.372',-0.43918919
'0:06.375',-0.08783784
'0:06.378',0.38513514
'0:06.381',0.95608108
'0:06.383',1.58445946
'0:06.386',2.22297297
'0:06.389',2.79054054
'0:06.392',3.20608108
'0:06.394',3.40540541
'0:06.397',3.30067568
'0:06.400',2.85135135
'0:06.403',2.08108108
'0:06.406',0.87837838
'0:06.408',-0.24324324
'0:06.411',-0.64527027
'0:06.414',-0.61824324
'0:06.417',-0.63175676
'0:06.419',-0.73986486
'0:06.422',-0.7972973
'0:06.425',-0.75
'0:06.428',-0.65540541
'0:06.431',-0.56756757
'0:06.433',-0.52702703
'0:06.436',-0.49662162
'0:06.439',-0.45945946
'0:06.442',-0.41891892
'0:06.444',-0.39527027
'0:06.447',-0.39864865
'0:06.450',-0.40878378
'0:06.453',-0.40202703
'0:06.456',-0.37837838
'0:06.458',-0.37162162
'0:06.461',-0.37837838
'0:06.464',-0.37162162
'0:06.467',-0.35810811
'0:06.469',-0.35472973
'0:06.472',-0.35810811
'0:06.475',-0.32432432
'0:06.478',-0.31081081
'0:06.481',-0.31418919
'0:06.483',-0.30405405
'0:06.486',-0.28040541
'0:06.489',-0.27364865
'0:06.492',-0.26689189
'0:06.494',-0.25337838
'0:06.497',-0.25
'0:06.500',-0.26351351
'0:06.503',-0.26689189
'0:06.506',-0.25337838
'0:06.508',-0.23310811
'0:06.511',-0.20945946
'0:06.514',-0.17905405
'0:06.517',-0.16891892
'0:06.519',-0.1722973
'0:06.522',-0.16554054
'0:06.525',-0.125
'0:06.528',-0.10472973
'0:06.531',-0.09459459
'0:06.533',-0.0777027
'0:06.536',-0.05405405
'0:06.539',-0.02027027
'0:06.542',0.00675676
'0:06.544',0.03716216
'0:06.547',0.06418919
'0:06.550',0.08108108
'0:06.553',0.09459459
'0:06.556',0.12162162
'0:06.558',0.15878378
'0:06.561',0.2027027
'0:06.564',0.22635135
'0:06.567',0.23986486
'0:06.569',0.28716216
'0:06.572',0.34797297
'0:06.575',0.39527027
'0:06.578',0.42905405
'0:06.581',0.46283784
'0:06.583',0.49662162
'0:06.586',0.54391892
'0:06.589',0.60472973
'0:06.592',0.65540541
'0:06.594',0.69256757
'0:06.597',0.72972973
'0:06.600',0.74662162
'0:06.603',0.76689189
'0:06.606',0.80067568
'0:06.608',0.83783784
'0:06.611',0.87162162
'0:06.614',0.89189189
'0:06.617',0.89189189
'0:06.619',0.89189189
'0:06.622',0.89527027
'0:06.625',0.89527027
'0:06.628',0.85810811
'0:06.631',0.80405405
'0:06.633',0.73986486
'0:06.636',0.67567568
'0:06.639',0.60810811
'0:06.642',0.54391892
'0:06.644',0.47297297
'0:06.647',0.39189189
'0:06.650',0.31418919
'0:06.653',0.24662162
'0:06.656',0.18581081
'0:06.658',0.13851351
'0:06.661',0.07094595
'0:06.664',0.00337838
'0:06.667',-0.05067568
'0:06.669',-0.09121622
'0:06.672',-0.14189189
'0:06.675',-0.18581081
'0:06.678',-0.21283784
'0:06.681',-0.23310811
'0:06.683',-0.25675676
'0:06.686',-0.28716216
'0:06.689',-0.30405405
'0:06.692',-0.32094595
'0:06.694',-0.34797297
'0:06.697',-0.34459459
'0:06.700',-0.34121622
'0:06.703',-0.35810811
'0:06.706',-0.36824324
'0:06.708',-0.38175676
'0:06.711',-0.39864865
'0:06.714',-0.39189189
'0:06.717',-0.39864865
'0:06.719',-0.41216216
'0:06.722',-0.40540541
'0:06.725',-0.38513514
'0:06.728',-0.37162162
'0:06.731',-0.375
'0:06.733',-0.38513514
'0:06.736',-0.39189189
'0:06.739',-0.40202703
'0:06.742',-0.42905405
'0:06.744',-0.44256757
'0:06.747',-0.4527027
'0:06.750',-0.46621622
'0:06.753',-0.46283784
'0:06.756',-0.45608108
'0:06.758',-0.44256757
'0:06.761',-0.4222973
'0:06.764',-0.40878378
'0:06.767',-0.4222973
'0:06.769',-0.4222973
'0:06.772',-0.40878378
'0:06.775',-0.39527027
'0:06.778',-0.41216216
'0:06.781',-0.42567568
'0:06.783',-0.40878378
'0:06.786',-0.39189189
'0:06.789',-0.39527027
'0:06.792',-0.40540541
'0:06.794',-0.40878378
'0:06.797',-0.41216216
'0:06.800',-0.42567568
'0:06.803',-0.43918919
'0:06.806',-0.43243243
'0:06.808',-0.41554054
'0:06.811',-0.40202703
'0:06.814',-0.40878378
'0:06.817',-0.41554054
'0:06.819',-0.39189189
'0:06.822',-0.36824324
'0:06.825',-0.36148649
'0:06.828',-0.35810811
'0:06.831',-0.34797297
'0:06.833',-0.36486486
'0:06.836',-0.38851351
'0:06.839',-0.37162162
'0:06.842',-0.32432432
'0:06.844',-0.28040541
'0:06.847',-0.27027027
'0:06.850',-0.28040541
'0:06.853',-0.28378378
'0:06.856',-0.27702703
'0:06.858',-0.25
'0:06.861',-0.20945946
'0:06.864',-0.17905405
'0:06.867',-0.17567568
'0:06.869',-0.16554054
'0:06.872',-0.15202703
'0:06.875',-0.15878378
'0:06.878',-0.19594595
'0:06.881',-0.25
'0:06.883',-0.29391892
'0:06.886',-0.29391892
'0:06.889',-0.26689189
'0:06.892',-0.24662162
'0:06.894',-0.25
'0:06.897',-0.26351351
'0:06.900',-0.29391892
'0:06.903',-0.31756757
'0:06.906',-0.31756757
'0:06.908',-0.30405405
'0:06.911',-0.32432432
'0:06.914',-0.36148649
'0:06.917',-0.41216216
'0:06.919',-0.4222973
'0:06.922',-0.40878378
'0:06.925',-0.40540541
'0:06.928',-0.41554054
'0:06.931',-0.42567568
'0:06.933',-0.43918919
'0:06.936',-0.4527027
'0:06.939',-0.45945946
'0:06.942',-0.46283784
'0:06.944',-0.4527027
'0:06.947',-0.44256757
'0:06.950',-0.44594595
'0:06.953',-0.45608108
'0:06.956',-0.45945946
'0:06.958',-0.46621622
'0:06.961',-0.47297297
'0:06.964',-0.47972973
'0:06.967',-0.48310811
'0:06.969',-0.5
'0:06.972',-0.50337838
'0:06.975',-0.47635135
'0:06.978',-0.45608108
'0:06.981',-0.45608108
'0:06.983',-0.45945946
'0:06.986',-0.44932432
'0:06.989',-0.44594595
'0:06.992',-0.43918919
'0:06.994',-0.4222973
'0:06.997',-0.42905405
'0:07.000',-0.45945946
'0:07.003',-0.46621622
'0:07.006',-0.46283784
'0:07.008',-0.48986486
'0:07.011',-0.58445946
'0:07.014',-0.7027027
'0:07.017',-0.79054054
'0:07.019',-0.78040541
'0:07.022',-0.68581081
'0:07.025',-0.53378378
'0:07.028',-0.28040541
'0:07.031',0.10135135
'0:07.033',0.58445946
'0:07.036',1.16216216
'0:07.039',1.81418919
'0:07.042',2.44256757
'0:07.044',2.93918919
'0:07.047',3.23648649
'0:07.050',3.28378378
'0:07.053',3.02027027
'0:07.056',2.44594595
'0:07.058',1.49662162
'0:07.061',0.26351351
'0:07.064',-0.48986486
'0:07.067',-0.61824324
'0:07.069',-0.59797297
'0:07.072',-0.66554054
'0:07.075',-0.75675676
'0:07.078',-0.78716216
'0:07.081',-0.73648649
'0:07.083',-0.65540541
'0:07.086',-0.58445946
'0:07.089',-0.52702703
'0:07.092',-0.48310811
'0:07.094',-0.4527027
'0:07.097',-0.4222973
'0:07.100',-0.41554054
'0:07.103',-0.40878378
'0:07.106',-0.38513514
'0:07.108',-0.36824324
'0:07.111',-0.36824324
'0:07.114',-0.38513514
'0:07.117',-0.39527027
'0:07.119',-0.37837838
'0:07.122',-0.36486486
'0:07.125',-0.35135135
'0:07.128',-0.35135135
'0:07.131',-0.35135135
'0:07.133',-0.33445946
'0:07.136',-0.31756757
'0:07.139',-0.30067568
'0:07.142',-0.28040541
'0:07.144',-0.28040541
'0:07.147',-0.29054054
'0:07.150',-0.2972973
'0:07.153',-0.29391892
'0:07.156',-0.28040541
'0:07.158',-0.25
'0:07.161',-0.22972973
'0:07.164',-0.22297297
'0:07.167',-0.22635135
'0:07.169',-0.2027027
'0:07.172',-0.17567568
'0:07.175',-0.15540541
'0:07.178',-0.15202703
'0:07.181',-0.14864865
'0:07.183',-0.12162162
'0:07.186',-0.09459459
'0:07.189',-0.0777027
'0:07.192',-0.05743243
'0:07.194',-0.02702703
'0:07.197',-0.01013514
'0:07.200',0.01013514
'0:07.203',0.04391892
'0:07.206',0.08108108
'0:07.208',0.125
'0:07.211',0.15202703
'0:07.214',0.17567568
'0:07.217',0.19932432
'0:07.219',0.23986486
'0:07.222',0.28040541
'0:07.225',0.30743243
'0:07.228',0.33445946
'0:07.231',0.37837838
'0:07.233',0.44256757
'0:07.236',0.49662162
'0:07.239',0.53716216
'0:07.242',0.57432432
'0:07.244',0.59797297
'0:07.247',0.62837838
'0:07.250',0.66216216
'0:07.253',0.71283784
'0:07.256',0.78040541
'0:07.258',0.83108108
'0:07.261',0.84459459
'0:07.264',0.86148649
'0:07.267',0.88513514
'0:07.269',0.90202703
'0:07.272',0.90540541
'0:07.275',0.90878378
'0:07.278',0.88851351
'0:07.281',0.83445946
'0:07.283',0.77364865
'0:07.286',0.72297297
'0:07.289',0.66554054
'0:07.292',0.60810811
'0:07.294',0.55067568
'0:07.297',0.47972973
'0:07.300',0.40202703
'0:07.303',0.32432432
'0:07.306',0.26013514
'0:07.308',0.19932432
'0:07.311',0.11824324
'0:07.314',0.03040541
'0:07.317',-0.03378378
'0:07.319',-0.07094595
'0:07.322',-0.09797297
'0:07.325',-0.125
'0:07.328',-0.15202703
'0:07.331',-0.19594595
'0:07.333',-0.24324324
'0:07.336',-0.26689189
'0:07.339',-0.28378378
'0:07.342',-0.2972973
'0:07.344',-0.31756757
'0:07.347',-0.33108108
'0:07.350',-0.34459459
'0:07.353',-0.35472973
'0:07.356',-0.35810811
'0:07.358',-0.34797297
'0:07.361',-0.35472973
'0:07.364',-0.36824324
'0:07.367',-0.36824324
'0:07.369',-0.35135135
'0:07.372',-0.34797297
'0:07.375',-0.35472973
'0:07.378',-0.36824324
'0:07.381',-0.38175676
'0:07.383',-0.41216216
'0:07.386',-0.41891892
'0:07.389',-0.4222973
'0:07.392',-0.4222973
'0:07.394',-0.42567568
'0:07.397',-0.42567568
'0:07.400',-0.43918919
'0:07.403',-0.43918919
'0:07.406',-0.41891892
'0:07.408',-0.42567568
'0:07.411',-0.43243243
'0:07.414',-0.42905405
'0:07.417',-0.43243243
'0:07.419',-0.44594595
'0:07.422',-0.43581081
'0:07.425',-0.43243243
'0:07.428',-0.4222973
'0:07.431',-0.40878378
'0:07.433',-0.39864865
'0:07.436',-0.40202703
'0:07.439',-0.40540541
'0:07.442',-0.40540541
'0:07.444',-0.40878378
'0:07.447',-0.4222973
'0:07.450',-0.43243243
'0:07.453',-0.40540541
'0:07.456',-0.37162162
'0:07.458',-0.35135135
'0:07.461',-0.36148649
'0:07.464',-0.375
'0:07.467',-0.38175676
'0:07.469',-0.37162162
'0:07.472',-0.34459459
'0:07.475',-0.31756757
'0:07.478',-0.31418919
'0:07.481',-0.30405405
'0:07.483',-0.30743243
'0:07.486',-0.29054054
'0:07.489',-0.26689189
'0:07.492',-0.24324324
'0:07.494',-0.23986486
'0:07.497',-0.24324324
'0:07.500',-0.22972973
'0:07.503',-0.19932432
'0:07.506',-0.17905405
'0:07.508',-0.17567568
'0:07.511',-0.18243243
'0:07.514',-0.19256757
'0:07.517',-0.19932432
'0:07.519',-0.19256757
'0:07.522',-0.2027027
'0:07.525',-0.21621622
'0:07.528',-0.21283784
'0:07.531',-0.21621622
'0:07.533',-0.25337838
'0:07.536',-0.28040541
'0:07.539',-0.29391892
'0:07.542',-0.30405405
'0:07.544',-0.32094595
'0:07.547',-0.33783784
'0:07.550',-0.36148649
'0:07.553',-0.37162162
'0:07.556',-0.37162162
'0:07.558',-0.38175676
'0:07.561',-0.39189189
'0:07.564',-0.41891892
'0:07.567',-0.44594595
'0:07.569',-0.43918919
'0:07.572',-0.42905405
'0:07.575',-0.43243243
'0:07.578',-0.43243243
'0:07.581',-0.44256757
'0:07.583',-0.44256757
'0:07.586',-0.43243243
'0:07.589',-0.43243243
'0:07.592',-0.43581081
'0:07.594',-0.43243243
'0:07.597',-0.45945946
'0:07.600',-0.48648649
'0:07.603',-0.48648649
'0:07.606',-0.47635135
'0:07.608',-0.46959459
'0:07.611',-0.46959459
'0:07.614',-0.46621622
'0:07.617',-0.46283784
'0:07.619',-0.45945946
'0:07.622',-0.44594595
'0:07.625',-0.42567568
'0:07.628',-0.42567568
'0:07.631',-0.44594595
'0:07.633',-0.45608108
'0:07.636',-0.43918919
'0:07.639',-0.4222973
'0:07.642',-0.42567568
'0:07.644',-0.47972973
'0:07.647',-0.57094595
'0:07.650',-0.70608108
'0:07.653',-0.82432432
'0:07.656',-0.84121622
'0:07.658',-0.78040541
'0:07.661',-0.63175676
'0:07.664',-0.38513514
'0:07.667',-0.03716216
'0:07.669',0.45608108
'0:07.672',1.06081081
'0:07.675',1.70608108
'0:07.678',2.33445946
'0:07.681',2.88175676
'0:07.683',3.25337838
'0:07.686',3.38513514
'0:07.689',3.19256757
'0:07.692',2.67567568
'0:07.694',1.86148649
'0:07.697',0.64864865
'0:07.700',-0.3277027
'0:07.703',-0.60135135
'0:07.706',-0.5777027
'0:07.708',-0.63851351
'0:07.711',-0.75675676
'0:07.714',-0.79391892
'0:07.717',-0.77027027
'0:07.719',-0.69256757
'0:07.722',-0.58783784
'0:07.725',-0.51689189
'0:07.728',-0.48648649
'0:07.731',-0.45608108
'0:07.733',-0.42905405
'0:07.736',-0.41891892
'0:07.739',-0.41216216
'0:07.742',-0.39864865
'0:07.744',-0.40202703
'0:07.747',-0.41891892
'0:07.750',-0.41891892
'0:07.753',-0.40202703
'0:07.756',-0.375
'0:07.758',-0.35472973
'0:07.761',-0.32432432
'0:07.764',-0.30405405
'0:07.767',-0.30067568
'0:07.769',-0.31081081
'0:07.772',-0.29054054
'0:07.775',-0.26351351
'0:07.778',-0.28378378
'0:07.781',-0.31756757
'0:07.783',-0.34121622
'0:07.786',-0.33783784
'0:07.789',-0.30743243
'0:07.792',-0.27702703
'0:07.794',-0.27027027
'0:07.797',-0.26689189
'0:07.800',-0.26351351
'0:07.803',-0.25675676
'0:07.806',-0.23648649
'0:07.808',-0.21283784
'0:07.811',-0.19594595
'0:07.814',-0.18918919
'0:07.817',-0.16891892
'0:07.819',-0.13851351
'0:07.822',-0.10135135
'0:07.825',-0.07432432
'0:07.828',-0.05743243
'0:07.831',-0.04054054
'0:07.833',-0.03378378
'0:07.836',-0.01013514
'0:07.839',0.01351351
'0:07.842',0.04391892
'0:07.844',0.07432432
'0:07.847',0.10135135
'0:07.850',0.125
'0:07.853',0.16891892
'0:07.856',0.20945946
'0:07.858',0.26013514
'0:07.861',0.31418919
'0:07.864',0.35810811
'0:07.867',0.38851351
'0:07.869',0.4222973
'0:07.872',0.4527027
'0:07.875',0.49662162
'0:07.878',0.5472973
'0:07.881',0.58445946
'0:07.883',0.61486486
'0:07.886',0.64864865
'0:07.889',0.68918919
'0:07.892',0.72297297
'0:07.894',0.76351351
'0:07.897',0.81418919
'0:07.900',0.84459459
'0:07.903',0.86148649
'0:07.906',0.88513514
'0:07.908',0.89527027
'0:07.911',0.88513514
'0:07.914',0.86486486
'0:07.917',0.82094595
'0:07.919',0.77702703
'0:07.922',0.72635135
'0:07.925',0.68918919
'0:07.928',0.63175676
'0:07.931',0.56756757
'0:07.933',0.48648649
'0:07.936',0.39527027
'0:07.939',0.31756757
'0:07.942',0.25675676
'0:07.944',0.19256757
'0:07.947',0.12162162
'0:07.950',0.04391892
'0:07.953',-0.02364865
'0:07.956',-0.08445946
'0:07.958',-0.11486486
'0:07.961',-0.125
'0:07.964',-0.14864865
'0:07.967',-0.19594595
'0:07.969',-0.23648649
'0:07.972',-0.26013514
'0:07.975',-0.27364865
'0:07.978',-0.30743243
'0:07.981',-0.33108108
'0:07.983',-0.34459459
'0:07.986',-0.33783784
'0:07.989',-0.34121622
'0:07.992',-0.35135135
'0:07.994',-0.36148649
'0:07.997',-0.36148649
'0:08.000',-0.37162162
'0:08.003',-0.37837838
'0:08.006',-0.375
'0:08.008',-0.37162162
'0:08.011',-0.38513514
'0:08.014',-0.40202703
'0:08.017',-0.40202703
'0:08.019',-0.39189189
'0:08.022',-0.38851351
'0:08.025',-0.39864865
'0:08.028',-0.40202703
'0:08.031',-0.39189189
'0:08.033',-0.39189189
'0:08.036',-0.40202703
'0:08.039',-0.41554054
'0:08.042',-0.4222973
'0:08.044',-0.41554054
'0:08.047',-0.42567568
'0:08.050',-0.43243243
'0:08.053',-0.43243243
'0:08.056',-0.40202703
'0:08.058',-0.38851351
'0:08.061',-0.41216216
'0:08.064',-0.44256757
'0:08.067',-0.44256757
'0:08.069',-0.4222973
'0:08.072',-0.40540541
'0:08.075',-0.39189189
'0:08.078',-0.39189189
'0:08.081',-0.38851351
'0:08.083',-0.39864865
'0:08.086',-0.40878378
'0:08.089',-0.39864865
'0:08.092',-0.37837838
'0:08.094',-0.37837838
'0:08.097',-0.38851351
'0:08.100',-0.38513514
'0:08.103',-0.37837838
'0:08.106',-0.35810811
'0:08.108',-0.35135135
'0:08.111',-0.36148649
'0:08.114',-0.36148649
'0:08.117',-0.34797297
'0:08.119',-0.31418919
'0:08.122',-0.29054054
'0:08.125',-0.27027027
'0:08.128',-0.25675676
'0:08.131',-0.26013514
'0:08.133',-0.27364865
'0:08.136',-0.27027027
'0:08.139',-0.25675676
'0:08.142',-0.23310811
'0:08.144',-0.22635135
'0:08.147',-0.21621622
'0:08.150',-0.19932432
'0:08.153',-0.17905405
'0:08.156',-0.16216216
'0:08.158',-0.16216216
'0:08.161',-0.17905405
'0:08.164',-0.19594595
'0:08.167',-0.21621622
'0:08.169',-0.22635135
'0:08.172',-0.22972973
'0:08.175',-0.22635135
'0:08.178',-0.23310811
'0:08.181',-0.25337838
'0:08.183',-0.28040541
'0:08.186',-0.27364865
'0:08.189',-0.26013514
'0:08.192',-0.27702703
'0:08.194',-0.3277027
'0:08.197',-0.38175676
'0:08.200',-0.39864865
'0:08.203',-0.37162162
'0:08.206',-0.34797297
'0:08.208',-0.35472973
'0:08.211',-0.37837838
'0:08.214',-0.39864865
'0:08.217',-0.41554054
'0:08.219',-0.42567568
'0:08.222',-0.40878378
'0:08.225',-0.40540541
'0:08.228',-0.4222973
'0:08.231',-0.43581081
'0:08.233',-0.43581081
'0:08.236',-0.44594595
'0:08.239',-0.43243243
'0:08.242',-0.41216216
'0:08.244',-0.42567568
'0:08.247',-0.44932432
'0:08.250',-0.45608108
'0:08.253',-0.44932432
'0:08.256',-0.43918919
'0:08.258',-0.42905405
'0:08.261',-0.42905405
'0:08.264',-0.42905405
'0:08.267',-0.43243243
'0:08.269',-0.43243243
'0:08.272',-0.42567568
'0:08.275',-0.42567568
'0:08.278',-0.44256757
'0:08.281',-0.44932432
'0:08.283',-0.46621622
'0:08.286',-0.46959459
'0:08.289',-0.46283784
'0:08.292',-0.47297297
'0:08.294',-0.53716216
'0:08.297',-0.66891892
'0:08.300',-0.80743243
'0:08.303',-0.85810811
'0:08.306',-0.79054054
'0:08.308',-0.62837838
'0:08.311',-0.375
'0:08.314',-0.04054054
'0:08.317',0.44594595
'0:08.319',1.06081081
'0:08.322',1.71621622
'0:08.325',2.36148649
'0:08.328',2.90202703
'0:08.331',3.27702703
'0:08.333',3.4222973
'0:08.336',3.26351351
'0:08.339',2.76013514
'0:08.342',1.95945946
'0:08.344',0.75
'0:08.347',-0.27702703
'0:08.350',-0.625
'0:08.353',-0.61824324
'0:08.356',-0.65878378
'0:08.358',-0.75337838
'0:08.361',-0.78716216
'0:08.364',-0.75337838
'0:08.367',-0.67567568
'0:08.369',-0.58445946
'0:08.372',-0.51013514
'0:08.375',-0.45945946
'0:08.378',-0.4222973
'0:08.381',-0.39189189
'0:08.383',-0.39527027
'0:08.386',-0.39527027
'0:08.389',-0.38175676
'0:08.392',-0.36824324
'0:08.394',-0.35135135
'0:08.397',-0.35472973
'0:08.400',-0.36148649
'0:08.403',-0.36824324
'0:08.406',-0.35810811
'0:08.408',-0.31756757
'0:08.411',-0.27027027
'0:08.414',-0.27702703
'0:08.417',-0.3277027
'0:08.419',-0.36148649
'0:08.422',-0.34121622
'0:08.425',-0.29391892
'0:08.428',-0.26013514
'0:08.431',-0.26013514
'0:08.433',-0.27364865
'0:08.436',-0.26689189
'0:08.439',-0.24324324
'0:08.442',-0.21621622
'0:08.444',-0.21283784
'0:08.447',-0.21621622
'0:08.450',-0.23310811
'0:08.453',-0.23310811
'0:08.456',-0.20945946
'0:08.458',-0.18581081
'0:08.461',-0.18243243
'0:08.464',-0.18243243
'0:08.467',-0.15202703
'0:08.469',-0.09797297
'0:08.472',-0.06081081
'0:08.475',-0.0472973
'0:08.478',-0.03378378
'0:08.481',-0.02364865
'0:08.483',-0.01351351
'0:08.486',0.00675676
'0:08.489',0.05067568
'0:08.492',0.09459459
'0:08.494',0.125
'0:08.497',0.14864865
'0:08.500',0.18243243
'0:08.503',0.23648649
'0:08.506',0.27027027
'0:08.508',0.2972973
'0:08.511',0.34797297
'0:08.514',0.39189189
'0:08.517',0.41891892
'0:08.519',0.44932432
'0:08.522',0.47972973
'0:08.525',0.51351351
'0:08.528',0.55067568
'0:08.531',0.59797297
'0:08.533',0.64864865
'0:08.536',0.68581081
'0:08.539',0.72635135
'0:08.542',0.77702703
'0:08.544',0.81418919
'0:08.547',0.83783784
'0:08.550',0.87162162
'0:08.553',0.89189189
'0:08.556',0.89527027
'0:08.558',0.88513514
'0:08.561',0.87162162
'0:08.564',0.84797297
'0:08.567',0.78716216
'0:08.569',0.72972973
'0:08.572',0.68243243
'0:08.575',0.64189189
'0:08.578',0.58783784
'0:08.581',0.5
'0:08.583',0.41216216
'0:08.586',0.34797297
'0:08.589',0.28378378
'0:08.592',0.22297297
'0:08.594',0.15878378
'0:08.597',0.08783784
'0:08.600',0.01013514
'0:08.603',-0.05405405
'0:08.606',-0.10810811
'0:08.608',-0.14864865
'0:08.611',-0.18918919
'0:08.614',-0.21621622
'0:08.617',-0.23648649
'0:08.619',-0.23986486
'0:08.622',-0.26351351
'0:08.625',-0.29391892
'0:08.628',-0.32094595
'0:08.631',-0.34459459
'0:08.633',-0.35135135
'0:08.636',-0.33445946
'0:08.639',-0.31418919
'0:08.642',-0.33108108
'0:08.644',-0.36486486
'0:08.647',-0.38851351
'0:08.650',-0.38851351
'0:08.653',-0.38851351
'0:08.656',-0.37162162
'0:08.658',-0.35135135
'0:08.661',-0.35810811
'0:08.664',-0.39189189
'0:08.667',-0.4222973
'0:08.669',-0.43243243
'0:08.672',-0.40202703
'0:08.675',-0.35135135
'0:08.678',-0.31081081
'0:08.681',-0.32432432
'0:08.683',-0.36824324
'0:08.686',-0.41554054
'0:08.689',-0.42905405
'0:08.692',-0.41216216
'0:08.694',-0.37837838
'0:08.697',-0.35135135
'0:08.700',-0.39189189
'0:08.703',-0.43581081
'0:08.706',-0.44594595
'0:08.708',-0.42905405
'0:08.711',-0.41554054
'0:08.714',-0.41216216
'0:08.717',-0.40878378
'0:08.719',-0.40878378
'0:08.722',-0.40202703
'0:08.725',-0.38513514
'0:08.728',-0.38513514
'0:08.731',-0.41554054
'0:08.733',-0.43918919
'0:08.736',-0.4222973
'0:08.739',-0.39189189
'0:08.742',-0.36486486
'0:08.744',-0.35810811
'0:08.747',-0.375
'0:08.750',-0.41216216
'0:08.753',-0.42905405
'0:08.756',-0.41891892
'0:08.758',-0.39864865
'0:08.761',-0.39864865
'0:08.764',-0.38513514
'0:08.767',-0.36824324
'0:08.769',-0.36486486
'0:08.772',-0.36824324
'0:08.775',-0.36486486
'0:08.778',-0.35472973
'0:08.781',-0.33783784
'0:08.783',-0.34459459
'0:08.786',-0.35810811
'0:08.789',-0.36148649
'0:08.792',-0.33108108
'0:08.794',-0.30743243
'0:08.797',-0.28378378
'0:08.800',-0.25337838
'0:08.803',-0.24662162
'0:08.806',-0.25337838
'0:08.808',-0.25675676
'0:08.811',-0.25675676
'0:08.814',-0.26013514
'0:08.817',-0.25675676
'0:08.819',-0.22635135
'0:08.822',-0.18918919
'0:08.825',-0.17905405
'0:08.828',-0.18581081
'0:08.831',-0.19594595
'0:08.833',-0.20608108
'0:08.836',-0.21621622
'0:08.839',-0.23986486
'0:08.842',-0.25
'0:08.844',-0.26689189
'0:08.847',-0.28378378
'0:08.850',-0.28716216
'0:08.853',-0.28378378
'0:08.856',-0.27702703
'0:08.858',-0.29054054
'0:08.861',-0.32094595
'0:08.864',-0.34121622
'0:08.867',-0.36486486
'0:08.869',-0.37837838
'0:08.872',-0.38175676
'0:08.875',-0.37162162
'0:08.878',-0.38851351
'0:08.881',-0.42567568
'0:08.883',-0.44932432
'0:08.886',-0.44932432
'0:08.889',-0.44256757
'0:08.892',-0.42567568
'0:08.894',-0.40878378
'0:08.897',-0.42567568
'0:08.900',-0.45608108
'0:08.903',-0.47297297
'0:08.906',-0.46621622
'0:08.908',-0.4527027
'0:08.911',-0.46283784
'0:08.914',-0.47635135
'0:08.917',-0.46959459
'0:08.919',-0.44932432
'0:08.922',-0.45608108
'0:08.925',-0.47635135
'0:08.928',-0.46621622
'0:08.931',-0.45945946
'0:08.933',-0.45608108
'0:08.936',-0.45608108
'0:08.939',-0.43918919
'0:08.942',-0.42905405
'0:08.944',-0.42905405
'0:08.947',-0.4527027
'0:08.950',-0.46621622
'0:08.953',-0.46621622
'0:08.956',-0.44932432
'0:08.958',-0.43243243
'0:08.961',-0.47297297
'0:08.964',-0.58783784
'0:08.967',-0.72297297
'0:08.969',-0.82094595
'0:08.972',-0.83445946
'0:08.975',-0.76013514
'0:08.978',-0.60810811
'0:08.981',-0.37837838
'0:08.983',-0.01689189
'0:08.986',0.51013514
'0:08.989',1.13851351
'0:08.992',1.7972973
'0:08.994',2.41554054
'0:08.997',2.93581081
'0:09.000',3.29054054
'0:09.003',3.41554054
'0:09.006',3.22635135
'0:09.008',2.69594595
'0:09.011',1.80743243
'0:09.014',0.52702703
'0:09.017',-0.41216216
'0:09.019',-0.64527027
'0:09.022',-0.60810811
'0:09.025',-0.65540541
'0:09.028',-0.75675676
'0:09.031',-0.79054054
'0:09.033',-0.73648649
'0:09.036',-0.65540541
'0:09.039',-0.56081081
'0:09.042',-0.47972973
'0:09.044',-0.43581081
'0:09.047',-0.42905405
'0:09.050',-0.44256757
'0:09.053',-0.43918919
'0:09.056',-0.41216216
'0:09.058',-0.37162162
'0:09.061',-0.35472973
'0:09.064',-0.36486486
'0:09.067',-0.375
'0:09.069',-0.375
'0:09.072',-0.36148649
'0:09.075',-0.34121622
'0:09.078',-0.32432432
'0:09.081',-0.33445946
'0:09.083',-0.34459459
'0:09.086',-0.33783784
'0:09.089',-0.33108108
'0:09.092',-0.31756757
'0:09.094',-0.29391892
'0:09.097',-0.29391892
'0:09.100',-0.29391892
'0:09.103',-0.27027027
'0:09.106',-0.24324324
'0:09.108',-0.22297297
'0:09.111',-0.23648649
'0:09.114',-0.26013514
'0:09.117',-0.26689189
'0:09.119',-0.23648649
'0:09.122',-0.19256757
'0:09.125',-0.16216216
'0:09.128',-0.16216216
'0:09.131',-0.16216216
'0:09.133',-0.14527027
'0:09.136',-0.11486486
'0:09.139',-0.08783784
'0:09.142',-0.06756757
'0:09.144',-0.05405405
'0:09.147',-0.0472973
'0:09.150',-0.03378378
'0:09.153',-0.01351351
'0:09.156',0.02027027
'0:09.158',0.07094595
'0:09.161',0.10472973
'0:09.164',0.13175676
'0:09.167',0.15878378
'0:09.169',0.20945946
'0:09.172',0.27027027
'0:09.175',0.31756757
'0:09.178',0.3277027
'0:09.181',0.33445946
'0:09.183',0.34459459
'0:09.186',0.36148649
'0:09.189',0.39864865
'0:09.192',0.44932432
'0:09.194',0.51351351
'0:09.197',0.57432432
'0:09.200',0.61824324
'0:09.203',0.65540541
'0:09.206',0.68581081
'0:09.208',0.74324324
'0:09.211',0.78040541
'0:09.214',0.79391892
'0:09.217',0.81081081
'0:09.219',0.84797297
'0:09.222',0.875
'0:09.225',0.88513514
'0:09.228',0.88175676
'0:09.231',0.88851351
'0:09.233',0.86486486
'0:09.236',0.83108108
'0:09.239',0.79054054
'0:09.242',0.74662162
'0:09.244',0.67905405
'0:09.247',0.60472973
'0:09.250',0.52027027
'0:09.253',0.44932432
'0:09.256',0.38513514
'0:09.258',0.30405405
'0:09.261',0.24662162
'0:09.264',0.20608108
'0:09.267',0.125
'0:09.269',0.03378378
'0:09.272',-0.03378378
'0:09.275',-0.07432432
'0:09.278',-0.09459459
'0:09.281',-0.13175676
'0:09.283',-0.19256757
'0:09.286',-0.22297297
'0:09.289',-0.22635135
'0:09.292',-0.23648649
'0:09.294',-0.26351351
'0:09.297',-0.30067568
'0:09.300',-0.32094595
'0:09.303',-0.32432432
'0:09.306',-0.33108108
'0:09.308',-0.34459459
'0:09.311',-0.35472973
'0:09.314',-0.36486486
'0:09.317',-0.36486486
'0:09.319',-0.36824324
'0:09.322',-0.36824324
'0:09.325',-0.36148649
'0:09.328',-0.36486486
'0:09.331',-0.375
'0:09.333',-0.38175676
'0:09.336',-0.39864865
'0:09.339',-0.40202703
'0:09.342',-0.39189189
'0:09.344',-0.39527027
'0:09.347',-0.4222973
'0:09.350',-0.43243243
'0:09.353',-0.42567568
'0:09.356',-0.40540541
'0:09.358',-0.39189189
'0:09.361',-0.39527027
'0:09.364',-0.39189189
'0:09.367',-0.39864865
'0:09.369',-0.40878378
'0:09.372',-0.41554054
'0:09.375',-0.41891892
'0:09.378',-0.42905405
'0:09.381',-0.42567568
'0:09.383',-0.41554054
'0:09.386',-0.41554054
'0:09.389',-0.4222973
'0:09.392',-0.40878378
'0:09.394',-0.39527027
'0:09.397',-0.39527027
'0:09.400',-0.40878378
'0:09.403',-0.40202703
'0:09.406',-0.375
'0:09.408',-0.36486486
'0:09.411',-0.38513514
'0:09.414',-0.41216216
'0:09.417',-0.41554054
'0:09.419',-0.39189189
'0:09.422',-0.37162162
'0:09.425',-0.36824324
'0:09.428',-0.36148649
'0:09.431',-0.33783784
'0:09.433',-0.3277027
'0:09.436',-0.33445946
'0:09.439',-0.34459459
'0:09.442',-0.35472973
'0:09.444',-0.37837838
'0:09.447',-0.40878378
'0:09.450',-0.41891892
'0:09.453',-0.39864865
'0:09.456',-0.36148649
'0:09.458',-0.32432432
'0:09.461',-0.28378378
'0:09.464',-0.27027027
'0:09.467',-0.30743243
'0:09.469',-0.34797297
'0:09.472',-0.37162162
'0:09.475',-0.35810811
'0:09.478',-0.32094595
'0:09.481',-0.28378378
'0:09.483',-0.25675676
'0:09.486',-0.25675676
'0:09.489',-0.27027027
'0:09.492',-0.28716216
'0:09.494',-0.2972973
'0:09.497',-0.30743243
'0:09.500',-0.28378378
'0:09.503',-0.23986486
'0:09.506',-0.21959459
'0:09.508',-0.22972973
'0:09.511',-0.21959459
'0:09.514',-0.19256757
'0:09.517',-0.16891892
'0:09.519',-0.17567568
'0:09.522',-0.20945946
'0:09.525',-0.23986486
'0:09.528',-0.26351351
'0:09.531',-0.28716216
'0:09.533',-0.30743243
'0:09.536',-0.30067568
'0:09.539',-0.27364865
'0:09.542',-0.26689189
'0:09.544',-0.2972973
'0:09.547',-0.34121622
'0:09.550',-0.36486486
'0:09.553',-0.36824324
'0:09.556',-0.35472973
'0:09.558',-0.34121622
'0:09.561',-0.34121622
'0:09.564',-0.35135135
'0:09.567',-0.38513514
'0:09.569',-0.41891892
'0:09.572',-0.42567568
'0:09.575',-0.41554054
'0:09.578',-0.4222973
'0:09.581',-0.44256757
'0:09.583',-0.47297297
'0:09.586',-0.47297297
'0:09.589',-0.46283784
'0:09.592',-0.44932432
'0:09.594',-0.43918919
'0:09.597',-0.43243243
'0:09.600',-0.42905405
'0:09.603',-0.41216216
'0:09.606',-0.41216216
'0:09.608',-0.4222973
'0:09.611',-0.45608108
'0:09.614',-0.47635135
'0:09.617',-0.46621622
'0:09.619',-0.44256757
'0:09.622',-0.43581081
'0:09.625',-0.43243243
'0:09.628',-0.43243243
'0:09.631',-0.44932432
'0:09.633',-0.45945946
'0:09.636',-0.44256757
'0:09.639',-0.40878378
'0:09.642',-0.39527027
'0:09.644',-0.46283784
'0:09.647',-0.60810811
'0:09.650',-0.78040541
'0:09.653',-0.88513514
'0:09.656',-0.86486486
'0:09.658',-0.75675676
'0:09.661',-0.56756757
'0:09.664',-0.27702703
'0:09.667',0.125
'0:09.669',0.65540541
'0:09.672',1.28040541
'0:09.675',1.95945946
'0:09.678',2.57094595
'0:09.681',3.04391892
'0:09.683',3.31756757
'0:09.686',3.36148649
'0:09.689',3.08783784
'0:09.692',2.48310811
'0:09.694',1.48648649
'0:09.697',0.22972973
'0:09.700',-0.49662162
'0:09.703',-0.58445946
'0:09.706',-0.54054054
'0:09.708',-0.61824324
'0:09.711',-0.73310811
'0:09.714',-0.75675676
'0:09.717',-0.70945946
'0:09.719',-0.62162162
'0:09.722',-0.53378378
'0:09.725',-0.46283784
'0:09.728',-0.41554054
'0:09.731',-0.39189189
'0:09.733',-0.39189189
'0:09.736',-0.39864865
'0:09.739',-0.40202703
'0:09.742',-0.37162162
'0:09.744',-0.34797297
'0:09.747',-0.34797297
'0:09.750',-0.37162162
'0:09.753',-0.38513514
'0:09.756',-0.375
'0:09.758',-0.33445946
'0:09.761',-0.30743243
'0:09.764',-0.32094595
'0:09.767',-0.34459459
'0:09.769',-0.33445946
'0:09.772',-0.2972973
'0:09.775',-0.28040541
'0:09.778',-0.28716216
'0:09.781',-0.28040541
'0:09.783',-0.27364865
'0:09.786',-0.28378378
'0:09.789',-0.27702703
'0:09.792',-0.23986486
'0:09.794',-0.21283784
'0:09.797',-0.21283784
'0:09.800',-0.22635135
'0:09.803',-0.22635135
'0:09.806',-0.19594595
'0:09.808',-0.1722973
'0:09.811',-0.15878378
'0:09.814',-0.15202703
'0:09.817',-0.13175676
'0:09.819',-0.10810811
'0:09.822',-0.08445946
'0:09.825',-0.06081081
'0:09.828',-0.05067568
'0:09.831',-0.0472973
'0:09.833',-0.03378378
'0:09.836',-0.00675676
'0:09.839',0.03378378
'0:09.842',0.08108108
'0:09.844',0.12162162
'0:09.847',0.13851351
'0:09.850',0.15202703
'0:09.853',0.17905405
'0:09.856',0.22635135
'0:09.858',0.28040541
'0:09.861',0.31418919
'0:09.864',0.34121622
'0:09.867',0.375
'0:09.869',0.43918919
'0:09.872',0.48986486
'0:09.875',0.52027027
'0:09.878',0.53716216
'0:09.881',0.56418919
'0:09.883',0.60810811
'0:09.886',0.65540541
'0:09.889',0.70608108
'0:09.892',0.74662162
'0:09.894',0.77027027
'0:09.897',0.78378378
'0:09.900',0.79054054
'0:09.903',0.82432432
'0:09.906',0.86148649
'0:09.908',0.875
'0:09.911',0.87162162
'0:09.914',0.85810811
'0:09.917',0.83445946
'0:09.919',0.80743243
'0:09.922',0.76689189
'0:09.925',0.71959459
'0:09.928',0.65202703
'0:09.931',0.58445946
'0:09.933',0.50337838
'0:09.936',0.43243243
'0:09.939',0.37162162
'0:09.942',0.30405405
'0:09.944',0.24324324
'0:09.947',0.18243243
'0:09.950',0.11486486
'0:09.953',0.05405405
'0:09.956',0
'0:09.958',-0.04391892
'0:09.961',-0.09797297
'0:09.964',-0.14527027
'0:09.967',-0.18918919
'0:09.969',-0.20945946
'0:09.972',-0.20608108
'0:09.975',-0.2027027
'0:09.978',-0.22297297
'0:09.981',-0.25
'0:09.983',-0.27364865
'0:09.986',-0.29391892
'0:09.989',-0.32094595
'0:09.992',-0.33783784
'0:09.994',-0.3277027
'0:09.997',-0.32432432
'0:10.000',-0.33108108
'0:10.003',-0.3277027
'0:10.006',-0.32432432
'0:10.008',-0.32432432
'0:10.011',-0.34797297
'0:10.014',-0.37837838
'0:10.017',-0.37837838
'0:10.019',-0.36486486
'0:10.022',-0.36486486
'0:10.025',-0.38175676
'0:10.028',-0.38851351
'0:10.031',-0.39527027
'0:10.033',-0.38851351
'0:10.036',-0.36486486
'0:10.039',-0.34121622
'0:10.042',-0.34121622
'0:10.044',-0.35810811
'0:10.047',-0.375
'0:10.050',-0.37162162
'0:10.053',-0.34797297
'0:10.056',-0.34121622
'0:10.058',-0.35135135
'0:10.061',-0.36824324
'0:10.064',-0.38513514
'0:10.067',-0.39527027
'0:10.069',-0.39189189
'0:10.072',-0.375
'0:10.075',-0.36148649
'0:10.078',-0.37162162
'0:10.081',-0.38513514
'0:10.083',-0.38513514
'0:10.086',-0.35472973
'0:10.089',-0.33445946
'0:10.092',-0.3277027
'0:10.094',-0.34121622
'0:10.097',-0.37162162
'0:10.100',-0.38851351
'0:10.103',-0.37837838
'0:10.106',-0.35810811
'0:10.108',-0.34459459
'0:10.111',-0.34797297
'0:10.114',-0.35472973
'0:10.117',-0.35810811
'0:10.119',-0.35135135
'0:10.122',-0.34797297
'0:10.125',-0.35135135
'0:10.128',-0.35472973
'0:10.131',-0.34797297
'0:10.133',-0.34797297
'0:10.136',-0.34797297
'0:10.139',-0.35472973
'0:10.142',-0.33783784
'0:10.144',-0.31418919
'0:10.147',-0.33783784
'0:10.150',-0.36824324
'0:10.153',-0.36824324
'0:10.156',-0.34459459
'0:10.158',-0.3277027
'0:10.161',-0.32432432
'0:10.164',-0.32094595
'0:10.167',-0.31418919
'0:10.169',-0.30405405
'0:10.172',-0.28378378
'0:10.175',-0.26013514
'0:10.178',-0.25
'0:10.181',-0.25675676
'0:10.183',-0.26689189
'0:10.186',-0.26689189
'0:10.189',-0.24324324
'0:10.192',-0.20608108
'0:10.194',-0.18243243
'0:10.197',-0.18243243
'0:10.200',-0.18581081
'0:10.203',-0.17567568
'0:10.206',-0.17567568
'0:10.208',-0.17567568
'0:10.211',-0.16891892
'0:10.214',-0.18918919
'0:10.217',-0.21283784
'0:10.219',-0.23648649
'0:10.222',-0.24324324
'0:10.225',-0.23648649
'0:10.228',-0.24324324
'0:10.231',-0.25675676
'0:10.233',-0.26689189
'0:10.236',-0.29054054
'0:10.239',-0.29391892
'0:10.242',-0.28378378
'0:10.244',-0.30067568
'0:10.247',-0.32432432
'0:10.250',-0.33783784
'0:10.253',-0.35472973
'0:10.256',-0.37837838
'0:10.258',-0.40540541
'0:10.261',-0.41554054
'0:10.264',-0.41891892
'0:10.267',-0.42905405
'0:10.269',-0.42567568
'0:10.272',-0.40878378
'0:10.275',-0.39864865
'0:10.278',-0.41216216
'0:10.281',-0.42905405
'0:10.283',-0.43581081
'0:10.286',-0.43581081
'0:10.289',-0.44594595
'0:10.292',-0.44256757
'0:10.294',-0.41891892
'0:10.297',-0.40540541
'0:10.300',-0.4222973
'0:10.303',-0.43918919
'0:10.306',-0.43243243
'0:10.308',-0.42905405
'0:10.311',-0.42567568
'0:10.314',-0.41891892
'0:10.317',-0.40202703
'0:10.319',-0.38175676
'0:10.322',-0.36824324
'0:10.325',-0.37837838
'0:10.328',-0.40878378
'0:10.331',-0.43243243
'0:10.333',-0.43918919
'0:10.336',-0.43581081
'0:10.339',-0.47297297
'0:10.342',-0.56418919
'0:10.344',-0.69594595
'0:10.347',-0.79054054
'0:10.350',-0.80067568
'0:10.353',-0.71959459
'0:10.356',-0.5777027
'0:10.358',-0.32094595
'0:10.361',0.08445946
'0:10.364',0.64189189
'0:10.367',1.27364865
'0:10.369',1.91554054
'0:10.372',2.51689189
'0:10.375',3.00675676
'0:10.378',3.33445946
'0:10.381',3.43243243
'0:10.383',3.18243243
'0:10.386',2.58445946
'0:10.389',1.62837838
'0:10.392',0.37162162
'0:10.394',-0.42905405
'0:10.397',-0.58108108
'0:10.400',-0.57094595
'0:10.403',-0.64864865
'0:10.406',-0.73310811
'0:10.408',-0.72972973
'0:10.411',-0.67905405
'0:10.414',-0.63513514
'0:10.417',-0.57094595
'0:10.419',-0.48648649
'0:10.422',-0.42905405
'0:10.425',-0.41554054
'0:10.428',-0.43243243
'0:10.431',-0.42567568
'0:10.433',-0.39864865
'0:10.436',-0.375
'0:10.439',-0.36486486
'0:10.442',-0.35135135
'0:10.444',-0.33783784
'0:10.447',-0.33783784
'0:10.450',-0.34797297
'0:10.453',-0.35810811
'0:10.456',-0.35135135
'0:10.458',-0.33108108
'0:10.461',-0.31418919
'0:10.464',-0.2972973
'0:10.467',-0.2972973
'0:10.469',-0.29391892
'0:10.472',-0.28716216
'0:10.475',-0.28378378
'0:10.478',-0.28040541
'0:10.481',-0.25675676
'0:10.483',-0.23310811
'0:10.486',-0.21283784
'0:10.489',-0.19594595
'0:10.492',-0.16554054
'0:10.494',-0.12162162
'0:10.497',-0.12837838
'0:10.500',-0.18918919
'0:10.503',-0.22635135
'0:10.506',-0.21283784
'0:10.508',-0.1722973
'0:10.511',-0.13513514
'0:10.514',-0.10810811
'0:10.517',-0.08783784
'0:10.519',-0.06756757
'0:10.522',-0.05405405
'0:10.525',-0.04054054
'0:10.528',-0.03040541
'0:10.531',-0.03040541
'0:10.533',-0.01013514
'0:10.536',0.04391892
'0:10.539',0.09459459
'0:10.542',0.13851351
'0:10.544',0.16891892
'0:10.547',0.18243243
'0:10.550',0.17567568
'0:10.553',0.20608108
'0:10.556',0.26689189
'0:10.558',0.32094595
'0:10.561',0.36486486
'0:10.564',0.40202703
'0:10.567',0.42567568
'0:10.569',0.46959459
'0:10.572',0.51689189
'0:10.575',0.56418919
'0:10.578',0.61824324
'0:10.581',0.66554054
'0:10.583',0.67905405
'0:10.586',0.68243243
'0:10.589',0.70945946
'0:10.592',0.75675676
'0:10.594',0.79391892
'0:10.597',0.81756757
'0:10.600',0.83783784
'0:10.603',0.85135135
'0:10.606',0.85810811
'0:10.608',0.86486486
'0:10.611',0.86486486
'0:10.614',0.84459459
'0:10.617',0.79054054
'0:10.619',0.73310811
'0:10.622',0.66891892
'0:10.625',0.60472973
'0:10.628',0.55405405
'0:10.631',0.48648649
'0:10.633',0.39864865
'0:10.636',0.33108108
'0:10.639',0.27027027
'0:10.642',0.21959459
'0:10.644',0.16891892
'0:10.647',0.125
'0:10.650',0.06756757
'0:10.653',0.01689189
'0:10.656',-0.03378378
'0:10.658',-0.07432432
'0:10.661',-0.125
'0:10.664',-0.17905405
'0:10.667',-0.22972973
'0:10.669',-0.24324324
'0:10.672',-0.24324324
'0:10.675',-0.25
'0:10.678',-0.26689189
'0:10.681',-0.29391892
'0:10.683',-0.32094595
'0:10.686',-0.33445946
'0:10.689',-0.32432432
'0:10.692',-0.32432432
'0:10.694',-0.33445946
'0:10.697',-0.34121622
'0:10.700',-0.34797297
'0:10.703',-0.35135135
'0:10.706',-0.35472973
'0:10.708',-0.35472973
'0:10.711',-0.35472973
'0:10.714',-0.35810811
'0:10.717',-0.35810811
'0:10.719',-0.36486486
'0:10.722',-0.36824324
'0:10.725',-0.37162162
'0:10.728',-0.375
'0:10.731',-0.36824324
'0:10.733',-0.37162162
'0:10.736',-0.37837838
'0:10.739',-0.375
'0:10.742',-0.36148649
'0:10.744',-0.35472973
'0:10.747',-0.36148649
'0:10.750',-0.38851351
'0:10.753',-0.40202703
'0:10.756',-0.38851351
'0:10.758',-0.38175676
'0:10.761',-0.39864865
'0:10.764',-0.39864865
'0:10.767',-0.37837838
'0:10.769',-0.36824324
'0:10.772',-0.37837838
'0:10.775',-0.38513514
'0:10.778',-0.37837838
'0:10.781',-0.37162162
'0:10.783',-0.37162162
'0:10.786',-0.375
'0:10.789',-0.36148649
'0:10.792',-0.34459459
'0:10.794',-0.35472973
'0:10.797',-0.37162162
'0:10.800',-0.38175676
'0:10.803',-0.375
'0:10.806',-0.36148649
'0:10.808',-0.35472973
'0:10.811',-0.36486486
'0:10.814',-0.36824324
'0:10.817',-0.36148649
'0:10.819',-0.35135135
'0:10.822',-0.35135135
'0:10.825',-0.34797297
'0:10.828',-0.35135135
'0:10.831',-0.35810811
'0:10.833',-0.35810811
'0:10.836',-0.35810811
'0:10.839',-0.35810811
'0:10.842',-0.35135135
'0:10.844',-0.34459459
'0:10.847',-0.33108108
'0:10.850',-0.33445946
'0:10.853',-0.34121622
'0:10.856',-0.33783784
'0:10.858',-0.33445946
'0:10.861',-0.3277027
'0:10.864',-0.31756757
'0:10.867',-0.33108108
'0:10.869',-0.35135135
'0:10.872',-0.33783784
'0:10.875',-0.31081081
'0:10.878',-0.28716216
'0:10.881',-0.28716216
'0:10.883',-0.29054054
'0:10.886',-0.27364865
'0:10.889',-0.23310811
'0:10.892',-0.19932432
'0:10.894',-0.19256757
'0:10.897',-0.21283784
'0:10.900',-0.22297297
'0:10.903',-0.19594595
'0:10.906',-0.1722973
'0:10.908',-0.16216216
'0:10.911',-0.15878378
'0:10.914',-0.1722973
'0:10.917',-0.20608108
'0:10.919',-0.22972973
'0:10.922',-0.23310811
'0:10.925',-0.22297297
'0:10.928',-0.21283784
'0:10.931',-0.23310811
'0:10.933',-0.26689189
'0:10.936',-0.27364865
'0:10.939',-0.27702703
'0:10.942',-0.28378378
'0:10.944',-0.30067568
'0:10.947',-0.31756757
'0:10.950',-0.34459459
'0:10.953',-0.35810811
'0:10.956',-0.35810811
'0:10.958',-0.36486486
'0:10.961',-0.37162162
'0:10.964',-0.40202703
'0:10.967',-0.4222973
'0:10.969',-0.41891892
'0:10.972',-0.41891892
'0:10.975',-0.41891892
'0:10.978',-0.41216216
'0:10.981',-0.4222973
'0:10.983',-0.43918919
'0:10.986',-0.43918919
'0:10.989',-0.4222973
'0:10.992',-0.40202703
'0:10.994',-0.41216216
'0:10.997',-0.43243243
'0:11.000',-0.45945946
'0:11.003',-0.45608108
'0:11.006',-0.44256757
'0:11.008',-0.42567568
'0:11.011',-0.41891892
'0:11.014',-0.43243243
'0:11.017',-0.44932432
'0:11.019',-0.42905405
'0:11.022',-0.41554054
'0:11.025',-0.41554054
'0:11.028',-0.41216216
'0:11.031',-0.39864865
'0:11.033',-0.39527027
'0:11.036',-0.39864865
'0:11.039',-0.41554054
'0:11.042',-0.48648649
'0:11.044',-0.61486486
'0:11.047',-0.74662162
'0:11.050',-0.82432432
'0:11.053',-0.81418919
'0:11.056',-0.68918919
'0:11.058',-0.46959459
'0:11.061',-0.15878378
'0:11.064',0.27702703
'0:11.067',0.84121622
'0:11.069',1.48648649
'0:11.072',2.15540541
'0:11.075',2.76013514
'0:11.078',3.20608108
'0:11.081',3.42567568
'0:11.083',3.38175676
'0:11.086',2.99324324
'0:11.089',2.28378378
'0:11.092',1.16891892
'0:11.094',-0.03716216
'0:11.097',-0.57432432
'0:11.100',-0.59121622
'0:11.103',-0.59121622
'0:11.106',-0.69932432
'0:11.108',-0.77364865
'0:11.111',-0.74324324
'0:11.114',-0.65540541
'0:11.117',-0.56756757
'0:11.119',-0.50675676
'0:11.122',-0.46959459
'0:11.125',-0.44594595
'0:11.128',-0.42905405
'0:11.131',-0.40878378
'0:11.133',-0.39527027
'0:11.136',-0.38175676
'0:11.139',-0.37162162
'0:11.142',-0.35810811
'0:11.144',-0.34121622
'0:11.147',-0.33108108
'0:11.150',-0.3277027
'0:11.153',-0.32432432
'0:11.156',-0.32094595
'0:11.158',-0.30405405
'0:11.161',-0.29054054
'0:11.164',-0.29054054
'0:11.167',-0.30067568
'0:11.169',-0.2972973
'0:11.172',-0.26689189
'0:11.175',-0.24662162
'0:11.178',-0.23986486
'0:11.181',-0.25
'0:11.183',-0.26351351
'0:11.186',-0.25675676
'0:11.189',-0.22972973
'0:11.192',-0.18918919
'0:11.194',-0.17905405
'0:11.197',-0.19594595
'0:11.200',-0.19932432
'0:11.203',-0.16891892
'0:11.206',-0.13513514
'0:11.208',-0.13175676
'0:11.211',-0.12837838
'0:11.214',-0.10810811
'0:11.217',-0.09121622
'0:11.219',-0.07094595
'0:11.222',-0.04391892
'0:11.225',-0.02027027
'0:11.228',-0.00675676
'0:11.231',0
'0:11.233',0.01351351
'0:11.236',0.03716216
'0:11.239',0.05405405
'0:11.242',0.09121622
'0:11.244',0.13513514
'0:11.247',0.17567568
'0:11.250',0.2027027
'0:11.253',0.22635135
'0:11.256',0.24662162
'0:11.258',0.28716216
'0:11.261',0.33445946
'0:11.264',0.37837838
'0:11.267',0.42567568
'0:11.269',0.46283784
'0:11.272',0.50337838
'0:11.275',0.5472973
'0:11.278',0.5777027
'0:11.281',0.59797297
'0:11.283',0.62837838
'0:11.286',0.66216216
'0:11.289',0.69932432
'0:11.292',0.73648649
'0:11.294',0.76689189
'0:11.297',0.7972973
'0:11.300',0.82432432
'0:11.303',0.85472973
'0:11.306',0.88851351
'0:11.308',0.88513514
'0:11.311',0.86824324
'0:11.314',0.83445946
'0:11.317',0.79391892
'0:11.319',0.76689189
'0:11.322',0.74662162
'0:11.325',0.71621622
'0:11.328',0.66891892
'0:11.331',0.58108108
'0:11.333',0.48310811
'0:11.336',0.42905405
'0:11.339',0.40540541
'0:11.342',0.33783784
'0:11.344',0.21283784
'0:11.347',0.10135135
'0:11.350',0.0472973
'0:11.353',0.03040541
'0:11.356',0.01689189
'0:11.358',-0.03378378
'0:11.361',-0.11486486
'0:11.364',-0.18918919
'0:11.367',-0.23986486
'0:11.369',-0.25
'0:11.372',-0.22972973
'0:11.375',-0.22297297
'0:11.378',-0.26013514
'0:11.381',-0.31418919
'0:11.383',-0.33783784
'0:11.386',-0.33783784
'0:11.389',-0.3277027
'0:11.392',-0.32094595
'0:11.394',-0.33108108
'0:11.397',-0.35810811
'0:11.400',-0.38851351
'0:11.403',-0.39527027
'0:11.406',-0.37837838
'0:11.408',-0.36148649
'0:11.411',-0.36148649
'0:11.414',-0.37837838
'0:11.417',-0.39527027
'0:11.419',-0.38175676
'0:11.422',-0.36486486
'0:11.425',-0.37837838
'0:11.428',-0.38851351
'0:11.431',-0.38851351
'0:11.433',-0.40878378
'0:11.436',-0.42567568
'0:11.439',-0.41554054
'0:11.442',-0.40202703
'0:11.444',-0.38851351
'0:11.447',-0.38513514
'0:11.450',-0.39189189
'0:11.453',-0.39527027
'0:11.456',-0.39864865
'0:11.458',-0.39864865
'0:11.461',-0.39527027
'0:11.464',-0.39864865
'0:11.467',-0.40878378
'0:11.469',-0.40202703
'0:11.472',-0.38513514
'0:11.475',-0.36148649
'0:11.478',-0.36148649
'0:11.481',-0.38175676
'0:11.483',-0.39864865
'0:11.486',-0.39864865
'0:11.489',-0.39189189
'0:11.492',-0.37837838
'0:11.494',-0.37162162
'0:11.497',-0.38175676
'0:11.500',-0.37837838
'0:11.503',-0.35810811
'0:11.506',-0.33783784
'0:11.508',-0.33783784
'0:11.511',-0.34797297
'0:11.514',-0.35810811
'0:11.517',-0.35810811
'0:11.519',-0.34797297
'0:11.522',-0.33445946
'0:11.525',-0.34121622
'0:11.528',-0.35472973
'0:11.531',-0.36486486
'0:11.533',-0.37837838
'0:11.536',-0.37162162
'0:11.539',-0.34797297
'0:11.542',-0.32432432
'0:11.544',-0.32432432
'0:11.547',-0.33445946
'0:11.550',-0.36486486
'0:11.553',-0.39189189
'0:11.556',-0.37837838
'0:11.558',-0.33783784
'0:11.561',-0.32432432
'0:11.564',-0.34797297
'0:11.567',-0.36824324
'0:11.569',-0.34797297
'0:11.572',-0.32432432
'0:11.575',-0.31081081
'0:11.578',-0.30405405
'0:11.581',-0.2972973
'0:11.583',-0.2972973
'0:11.586',-0.29391892
'0:11.589',-0.28040541
'0:11.592',-0.25337838
'0:11.594',-0.22972973
'0:11.597',-0.21621622
'0:11.600',-0.21621622
'0:11.603',-0.20608108
'0:11.606',-0.17567568
'0:11.608',-0.16216216
'0:11.611',-0.17905405
'0:11.614',-0.19594595
'0:11.617',-0.20945946
'0:11.619',-0.22635135
'0:11.622',-0.24662162
'0:11.625',-0.24662162
'0:11.628',-0.25
'0:11.631',-0.26689189
'0:11.633',-0.29391892
'0:11.636',-0.30405405
'0:11.639',-0.31081081
'0:11.642',-0.32094595
'0:11.644',-0.34797297
'0:11.647',-0.375
'0:11.650',-0.39189189
'0:11.653',-0.38851351
'0:11.656',-0.38175676
'0:11.658',-0.39189189
'0:11.661',-0.41554054
'0:11.664',-0.43918919
'0:11.667',-0.43581081
'0:11.669',-0.41891892
'0:11.672',-0.4222973
'0:11.675',-0.43918919
'0:11.678',-0.45608108
'0:11.681',-0.45608108
'0:11.683',-0.45608108
'0:11.686',-0.44932432
'0:11.689',-0.43243243
'0:11.692',-0.43243243
'0:11.694',-0.44256757
'0:11.697',-0.44932432
'0:11.700',-0.4527027
'0:11.703',-0.44256757
'0:11.706',-0.4222973
'0:11.708',-0.41554054
'0:11.711',-0.43243243
'0:11.714',-0.45608108
'0:11.717',-0.46283784
'0:11.719',-0.45608108
'0:11.722',-0.44932432
'0:11.725',-0.44256757
'0:11.728',-0.4222973
'0:11.731',-0.41216216
'0:11.733',-0.43243243
'0:11.736',-0.45945946
'0:11.739',-0.49662162
'0:11.742',-0.57432432
'0:11.744',-0.69932432
'0:11.747',-0.79054054
'0:11.750',-0.81081081
'0:11.753',-0.75337838
'0:11.756',-0.60472973
'0:11.758',-0.37162162
'0:11.761',-0.03040541
'0:11.764',0.46283784
'0:11.767',1.07432432
'0:11.769',1.72635135
'0:11.772',2.34121622
'0:11.775',2.86824324
'0:11.778',3.22297297
'0:11.781',3.35135135
'0:11.783',3.16891892
'0:11.786',2.66891892
'0:11.789',1.84459459
'0:11.792',0.61148649
'0:11.794',-0.36148649
'0:11.797',-0.61486486
'0:11.800',-0.56756757
'0:11.803',-0.61824324
'0:11.806',-0.73648649
'0:11.808',-0.78378378
'0:11.811',-0.73310811
'0:11.814',-0.65540541
'0:11.817',-0.60135135
'0:11.819',-0.54054054
'0:11.822',-0.47297297
'0:11.825',-0.42905405
'0:11.828',-0.41554054
'0:11.831',-0.40540541
'0:11.833',-0.38513514
'0:11.836',-0.35472973
'0:11.839',-0.33783784
'0:11.842',-0.33783784
'0:11.844',-0.34121622
'0:11.847',-0.35135135
'0:11.850',-0.35810811
'0:11.853',-0.35810811
'0:11.856',-0.34121622
'0:11.858',-0.32432432
'0:11.861',-0.30743243
'0:11.864',-0.30743243
'0:11.867',-0.31081081
'0:11.869',-0.30067568
'0:11.872',-0.27702703
'0:11.875',-0.26689189
'0:11.878',-0.26013514
'0:11.881',-0.25337838
'0:11.883',-0.25675676
'0:11.886',-0.25675676
'0:11.889',-0.24324324
'0:11.892',-0.22635135
'0:11.894',-0.21283784
'0:11.897',-0.19594595
'0:11.900',-0.18918919
'0:11.903',-0.18243243
'0:11.906',-0.17567568
'0:11.908',-0.15540541
'0:11.911',-0.12162162
'0:11.914',-0.10472973
'0:11.917',-0.11148649
'0:11.919',-0.09459459
'0:11.922',-0.0472973
'0:11.925',-0.01351351
'0:11.928',-0.01013514
'0:11.931',-0.00337838
'0:11.933',0.02027027
'0:11.936',0.06081081
'0:11.939',0.09797297
'0:11.942',0.12837838
'0:11.944',0.15202703
'0:11.947',0.15878378
'0:11.950',0.17905405
'0:11.953',0.23986486
'0:11.956',0.31081081
'0:11.958',0.35135135
'0:11.961',0.35135135
'0:11.964',0.36824324
'0:11.967',0.42567568
'0:11.969',0.48310811
'0:11.972',0.51689189
'0:11.975',0.56081081
'0:11.978',0.60472973
'0:11.981',0.65202703
'0:11.983',0.69256757
'0:11.986',0.72297297
'0:11.989',0.74324324
'0:11.992',0.78040541
'0:11.994',0.81081081
'0:11.997',0.8277027
'0:12.000',0.85135135
'0:12.003',0.86148649
'0:12.006',0.875
'0:12.008',0.88513514
'0:12.011',0.87837838
'0:12.014',0.84459459
'0:12.017',0.79054054
'0:12.019',0.75
'0:12.022',0.69932432
'0:12.025',0.65540541
'0:12.028',0.59459459
'0:12.031',0.50675676
'0:12.033',0.43918919
'0:12.036',0.37837838
'0:12.039',0.30067568
'0:12.042',0.21959459
'0:12.044',0.14864865
'0:12.047',0.10135135
'0:12.050',0.05743243
'0:12.053',0.00675676
'0:12.056',-0.03378378
'0:12.058',-0.06756757
'0:12.061',-0.11824324
'0:12.064',-0.1722973
'0:12.067',-0.20608108
'0:12.069',-0.22972973
'0:12.072',-0.24324324
'0:12.075',-0.26013514
'0:12.078',-0.27364865
'0:12.081',-0.28378378
'0:12.083',-0.30743243
'0:12.086',-0.3277027
'0:12.089',-0.31756757
'0:12.092',-0.31081081
'0:12.094',-0.33108108
'0:12.097',-0.35135135
'0:12.100',-0.37162162
'0:12.103',-0.39189189
'0:12.106',-0.38513514
'0:12.108',-0.36486486
'0:12.111',-0.36148649
'0:12.114',-0.38851351
'0:12.117',-0.40878378
'0:12.119',-0.40540541
'0:12.122',-0.38513514
'0:12.125',-0.375
'0:12.128',-0.37162162
'0:12.131',-0.37162162
'0:12.133',-0.36486486
'0:12.136',-0.36148649
'0:12.139',-0.36486486
'0:12.142',-0.37162162
'0:12.144',-0.37837838
'0:12.147',-0.40540541
'0:12.150',-0.43581081
'0:12.153',-0.43918919
'0:12.156',-0.41554054
'0:12.158',-0.39189189
'0:12.161',-0.38513514
'0:12.164',-0.39527027
'0:12.167',-0.40540541
'0:12.169',-0.40540541
'0:12.172',-0.38175676
'0:12.175',-0.35472973
'0:12.178',-0.36148649
'0:12.181',-0.40540541
'0:12.183',-0.42567568
'0:12.186',-0.38851351
'0:12.189',-0.34797297
'0:12.192',-0.34121622
'0:12.194',-0.33783784
'0:12.197',-0.33108108
'0:12.200',-0.33108108
'0:12.203',-0.33445946
'0:12.206',-0.34121622
'0:12.208',-0.34121622
'0:12.211',-0.31756757
'0:12.214',-0.29054054
'0:12.217',-0.29054054
'0:12.219',-0.29391892
'0:12.222',-0.30743243
'0:12.225',-0.30405405
'0:12.228',-0.27702703
'0:12.231',-0.24324324
'0:12.233',-0.23986486
'0:12.236',-0.23986486
'0:12.239',-0.22635135
'0:12.242',-0.20608108
'0:12.244',-0.19594595
'0:12.247',-0.18581081
'0:12.250',-0.16554054
'0:12.253',-0.14864865
'0:12.256',-0.16216216
'0:12.258',-0.19594595
'0:12.261',-0.23986486
'0:12.264',-0.25337838
'0:12.267',-0.22635135
'0:12.269',-0.2027027
'0:12.272',-0.19256757
'0:12.275',-0.19256757
'0:12.278',-0.21283784
'0:12.281',-0.24324324
'0:12.283',-0.27364865
'0:12.286',-0.27702703
'0:12.289',-0.27702703
'0:12.292',-0.29391892
'0:12.294',-0.31081081
'0:12.297',-0.34121622
'0:12.300',-0.36824324
'0:12.303',-0.35810811
'0:12.306',-0.34459459
'0:12.308',-0.35135135
'0:12.311',-0.375
'0:12.314',-0.40202703
'0:12.317',-0.40878378
'0:12.319',-0.40878378
'0:12.322',-0.41891892
'0:12.325',-0.43243243
'0:12.328',-0.43243243
'0:12.331',-0.42905405
'0:12.333',-0.43918919
'0:12.336',-0.44932432
'0:12.339',-0.42567568
'0:12.342',-0.39527027
'0:12.344',-0.39864865
'0:12.347',-0.43918919
'0:12.350',-0.47297297
'0:12.353',-0.47635135
'0:12.356',-0.46621622
'0:12.358',-0.44594595
'0:12.361',-0.44256757
'0:12.364',-0.44932432
'0:12.367',-0.45608108
'0:12.369',-0.43918919
'0:12.372',-0.41554054
'0:12.375',-0.41891892
'0:12.378',-0.43243243
'0:12.381',-0.44256757
'0:12.383',-0.44256757
'0:12.386',-0.43918919
'0:12.389',-0.44256757
'0:12.392',-0.44932432
'0:12.394',-0.50337838
'0:12.397',-0.625
'0:12.400',-0.76351351
'0:12.403',-0.82432432
'0:12.406',-0.78716216
'0:12.408',-0.6722973
'0:12.411',-0.48310811
'0:12.414',-0.20608108
'0:12.417',0.21959459
'0:12.419',0.80743243
'0:12.422',1.45608108
'0:12.425',2.12162162
'0:12.428',2.71959459
'0:12.431',3.15540541
'0:12.433',3.375
'0:12.436',3.3277027
'0:12.439',2.9527027
'0:12.442',2.25337838
'0:12.444',1.12837838
'0:12.447',-0.06756757
'0:12.450',-0.59121622
'0:12.453',-0.58783784
'0:12.456',-0.59121622
'0:12.458',-0.7027027
'0:12.461',-0.77364865
'0:12.464',-0.75675676
'0:12.467',-0.71283784
'0:12.469',-0.62837838
'0:12.472',-0.52702703
'0:12.475',-0.45945946
'0:12.478',-0.43243243
'0:12.481',-0.41216216
'0:12.483',-0.39189189
'0:12.486',-0.38513514
'0:12.489',-0.38851351
'0:12.492',-0.37837838
'0:12.494',-0.35135135
'0:12.497',-0.35810811
'0:12.500',-0.37837838
'0:12.503',-0.37837838
'0:12.506',-0.35472973
'0:12.508',-0.33108108
'0:12.511',-0.32432432
'0:12.514',-0.32432432
'0:12.517',-0.32432432
'0:12.519',-0.31418919
'0:12.522',-0.29391892
'0:12.525',-0.27364865
'0:12.528',-0.26689189
'0:12.531',-0.26351351
'0:12.533',-0.26013514
'0:12.536',-0.25675676
'0:12.539',-0.24662162
'0:12.542',-0.22297297
'0:12.544',-0.19932432
'0:12.547',-0.19594595
'0:12.550',-0.20945946
'0:12.553',-0.20945946
'0:12.556',-0.18243243
'0:12.558',-0.14527027
'0:12.561',-0.13513514
'0:12.564',-0.12837838
'0:12.567',-0.11486486
'0:12.569',-0.09797297
'0:12.572',-0.08445946
'0:12.575',-0.06081081
'0:12.578',-0.02702703
'0:12.581',0
'0:12.583',0.02364865
'0:12.586',0.04054054
'0:12.589',0.06081081
'0:12.592',0.0777027
'0:12.594',0.09797297
'0:12.597',0.12162162
'0:12.600',0.16891892
'0:12.603',0.21621622
'0:12.606',0.25
'0:12.608',0.28378378
'0:12.611',0.32094595
'0:12.614',0.35472973
'0:12.617',0.39527027
'0:12.619',0.43918919
'0:12.622',0.47972973
'0:12.625',0.51351351
'0:12.628',0.55067568
'0:12.631',0.58108108
'0:12.633',0.60472973
'0:12.636',0.63513514
'0:12.639',0.68581081
'0:12.642',0.73310811
'0:12.644',0.76351351
'0:12.647',0.77364865
'0:12.650',0.77702703
'0:12.653',0.79054054
'0:12.656',0.83108108
'0:12.658',0.85135135
'0:12.661',0.84459459
'0:12.664',0.83108108
'0:12.667',0.82432432
'0:12.669',0.79391892
'0:12.672',0.75675676
'0:12.675',0.69932432
'0:12.678',0.63175676
'0:12.681',0.5472973
'0:12.683',0.45608108
'0:12.686',0.38513514
'0:12.689',0.34459459
'0:12.692',0.29391892
'0:12.694',0.22297297
'0:12.697',0.14527027
'0:12.700',0.08108108
'0:12.703',0.03378378
'0:12.706',0
'0:12.708',-0.03040541
'0:12.711',-0.06756757
'0:12.714',-0.10472973
'0:12.717',-0.14864865
'0:12.719',-0.19256757
'0:12.722',-0.22972973
'0:12.725',-0.25
'0:12.728',-0.26013514
'0:12.731',-0.28040541
'0:12.733',-0.2972973
'0:12.736',-0.30743243
'0:12.739',-0.31756757
'0:12.742',-0.30743243
'0:12.744',-0.2972973
'0:12.747',-0.31081081
'0:12.750',-0.33445946
'0:12.753',-0.34797297
'0:12.756',-0.34797297
'0:12.758',-0.34459459
'0:12.761',-0.35472973
'0:12.764',-0.37837838
'0:12.767',-0.38175676
'0:12.769',-0.36824324
'0:12.772',-0.34797297
'0:12.775',-0.33445946
'0:12.778',-0.35135135
'0:12.781',-0.38175676
'0:12.783',-0.39189189
'0:12.786',-0.38175676
'0:12.789',-0.38513514
'0:12.792',-0.375
'0:12.794',-0.35472973
'0:12.797',-0.36148649
'0:12.800',-0.37837838
'0:12.803',-0.375
'0:12.806',-0.34797297
'0:12.808',-0.34459459
'0:12.811',-0.37837838
'0:12.814',-0.39527027
'0:12.817',-0.39527027
'0:12.819',-0.39527027
'0:12.822',-0.39189189
'0:12.825',-0.36148649
'0:12.828',-0.32432432
'0:12.831',-0.31418919
'0:12.833',-0.3277027
'0:12.836',-0.34121622
'0:12.839',-0.35135135
'0:12.842',-0.35135135
'0:12.844',-0.34459459
'0:12.847',-0.34121622
'0:12.850',-0.33783784
'0:12.853',-0.33783784
'0:12.856',-0.32432432
'0:12.858',-0.2972973
'0:12.861',-0.28040541
'0:12.864',-0.27027027
'0:12.867',-0.26013514
'0:12.869',-0.23986486
'0:12.872',-0.20945946
'0:12.875',-0.18918919
'0:12.878',-0.18918919
'0:12.881',-0.19594595
'0:12.883',-0.21621622
'0:12.886',-0.23310811
'0:12.889',-0.20945946
'0:12.892',-0.17567568
'0:12.894',-0.16216216
'0:12.897',-0.16554054
'0:12.900',-0.1722973
'0:12.903',-0.17905405
'0:12.906',-0.16216216
'0:12.908',-0.14189189
'0:12.911',-0.15540541
'0:12.914',-0.19594595
'0:12.917',-0.21621622
'0:12.919',-0.20608108
'0:12.922',-0.2027027
'0:12.925',-0.2027027
'0:12.928',-0.22635135
'0:12.931',-0.25337838
'0:12.933',-0.27364865
'0:12.936',-0.28716216
'0:12.939',-0.2972973
'0:12.942',-0.31081081
'0:12.944',-0.33445946
'0:12.947',-0.34121622
'0:12.950',-0.34797297
'0:12.953',-0.36148649
'0:12.956',-0.375
'0:12.958',-0.37837838
'0:12.961',-0.375
'0:12.964',-0.375
'0:12.967',-0.38851351
'0:12.969',-0.39527027
'0:12.972',-0.39527027
'0:12.975',-0.39527027
'0:12.978',-0.40878378
'0:12.981',-0.42905405
'0:12.983',-0.43918919
'0:12.986',-0.41554054
'0:12.989',-0.41216216
'0:12.992',-0.41554054
'0:12.994',-0.4222973
'0:12.997',-0.43918919
'0:13.000',-0.44594595
'0:13.003',-0.43918919
'0:13.006',-0.4222973
'0:13.008',-0.41554054
'0:13.011',-0.41216216
'0:13.014',-0.41891892
'0:13.017',-0.42905405
'0:13.019',-0.43918919
'0:13.022',-0.4222973
'0:13.025',-0.40878378
'0:13.028',-0.40878378
'0:13.031',-0.40878378
'0:13.033',-0.4222973
'0:13.036',-0.48986486
'0:13.039',-0.60472973
'0:13.042',-0.73310811
'0:13.044',-0.79054054
'0:13.047',-0.77702703
'0:13.050',-0.68581081
'0:13.053',-0.49324324
'0:13.056',-0.16554054
'0:13.058',0.31081081
'0:13.061',0.90878378
'0:13.064',1.55743243
'0:13.067',2.17567568
'0:13.069',2.72972973
'0:13.072',3.16554054
'0:13.075',3.37837838
'0:13.078',3.32094595
'0:13.081',2.93581081
'0:13.083',2.25675676
'0:13.086',1.125
'0:13.089',-0.06418919
'0:13.092',-0.56418919
'0:13.094',-0.5472973
'0:13.097',-0.53378378
'0:13.100',-0.625
'0:13.103',-0.69594595
'0:13.106',-0.6722973
'0:13.108',-0.59459459
'0:13.111',-0.53040541
'0:13.114',-0.49324324
'0:13.117',-0.46283784
'0:13.119',-0.44594595
'0:13.122',-0.42905405
'0:13.125',-0.41891892
'0:13.128',-0.40202703
'0:13.131',-0.39189189
'0:13.133',-0.39189189
'0:13.136',-0.38851351
'0:13.139',-0.37837838
'0:13.142',-0.375
'0:13.144',-0.36148649
'0:13.147',-0.33108108
'0:13.150',-0.27364865
'0:13.153',-0.2027027
'0:13.156',-0.18243243
'0:13.158',-0.23648649
'0:13.161',-0.30743243
'0:13.164',-0.36824324
'0:13.167',-0.38851351
'0:13.169',-0.35135135
'0:13.172',-0.30405405
'0:13.175',-0.26689189
'0:13.178',-0.24324324
'0:13.181',-0.23648649
'0:13.183',-0.22297297
'0:13.186',-0.2027027
'0:13.189',-0.19594595
'0:13.192',-0.2027027
'0:13.194',-0.19932432
'0:13.197',-0.20608108
'0:13.200',-0.19932432
'0:13.203',-0.15202703
'0:13.206',-0.10810811
'0:13.208',-0.08783784
'0:13.211',-0.0777027
'0:13.214',-0.06418919
'0:13.217',-0.04391892
'0:13.219',-0.01013514
'0:13.222',0.02027027
'0:13.225',0.02364865
'0:13.228',0.01013514
'0:13.231',0.01351351
'0:13.233',0.03716216
'0:13.236',0.09121622
'0:13.239',0.13175676
'0:13.242',0.16891892
'0:13.244',0.2027027
'0:13.247',0.22635135
'0:13.250',0.25337838
'0:13.253',0.29391892
'0:13.256',0.34459459
'0:13.258',0.39527027
'0:13.261',0.43918919
'0:13.264',0.46959459
'0:13.267',0.50337838
'0:13.269',0.5472973
'0:13.272',0.57432432
'0:13.275',0.59121622
'0:13.278',0.61148649
'0:13.281',0.64527027
'0:13.283',0.68581081
'0:13.286',0.72972973
'0:13.289',0.77027027
'0:13.292',0.7972973
'0:13.294',0.80743243
'0:13.297',0.79054054
'0:13.300',0.79054054
'0:13.303',0.80067568
'0:13.306',0.81081081
'0:13.308',0.80405405
'0:13.311',0.78378378
'0:13.314',0.71621622
'0:13.317',0.64864865
'0:13.319',0.59121622
'0:13.322',0.54054054
'0:13.325',0.48310811
'0:13.328',0.39864865
'0:13.331',0.32094595
'0:13.333',0.25
'0:13.336',0.18243243
'0:13.339',0.13513514
'0:13.342',0.09797297
'0:13.344',0.04391892
'0:13.347',-0.01013514
'0:13.350',-0.05405405
'0:13.353',-0.08783784
'0:13.356',-0.11486486
'0:13.358',-0.14527027
'0:13.361',-0.17905405
'0:13.364',-0.20608108
'0:13.367',-0.23310811
'0:13.369',-0.26351351
'0:13.372',-0.28378378
'0:13.375',-0.28040541
'0:13.378',-0.26351351
'0:13.381',-0.27027027
'0:13.383',-0.30405405
'0:13.386',-0.33445946
'0:13.389',-0.33445946
'0:13.392',-0.31756757
'0:13.394',-0.31756757
'0:13.397',-0.32094595
'0:13.400',-0.32094595
'0:13.403',-0.33108108
'0:13.406',-0.33783784
'0:13.408',-0.34121622
'0:13.411',-0.34459459
'0:13.414',-0.36148649
'0:13.417',-0.36486486
'0:13.419',-0.36486486
'0:13.422',-0.35810811
'0:13.425',-0.35472973
'0:13.428',-0.34121622
'0:13.431',-0.34121622
'0:13.433',-0.35810811
'0:13.436',-0.38175676
'0:13.439',-0.38851351
'0:13.442',-0.36824324
'0:13.444',-0.34797297
'0:13.447',-0.35472973
'0:13.450',-0.35472973
'0:13.453',-0.34121622
'0:13.456',-0.32432432
'0:13.458',-0.3277027
'0:13.461',-0.35472973
'0:13.464',-0.375
'0:13.467',-0.37162162
'0:13.469',-0.36824324
'0:13.472',-0.35135135
'0:13.475',-0.34459459
'0:13.478',-0.34459459
'0:13.481',-0.34797297
'0:13.483',-0.33783784
'0:13.486',-0.31756757
'0:13.489',-0.31756757
'0:13.492',-0.32432432
'0:13.494',-0.31418919
'0:13.497',-0.30743243
'0:13.500',-0.31756757
'0:13.503',-0.31418919
'0:13.506',-0.30067568
'0:13.508',-0.27364865
'0:13.511',-0.23986486
'0:13.514',-0.22972973
'0:13.517',-0.23648649
'0:13.519',-0.23986486
'0:13.522',-0.21621622
'0:13.525',-0.19594595
'0:13.528',-0.19594595
'0:13.531',-0.19256757
'0:13.533',-0.17567568
'0:13.536',-0.15878378
'0:13.539',-0.15878378
'0:13.542',-0.16891892
'0:13.544',-0.18243243
'0:13.547',-0.18243243
'0:13.550',-0.17567568
'0:13.553',-0.16891892
'0:13.556',-0.17905405
'0:13.558',-0.2027027
'0:13.561',-0.22297297
'0:13.564',-0.25
'0:13.567',-0.28040541
'0:13.569',-0.28378378
'0:13.572',-0.27027027
'0:13.575',-0.25675676
'0:13.578',-0.28040541
'0:13.581',-0.31418919
'0:13.583',-0.33783784
'0:13.586',-0.34797297
'0:13.589',-0.34121622
'0:13.592',-0.33783784
'0:13.594',-0.35472973
'0:13.597',-0.38175676
'0:13.600',-0.40540541
'0:13.603',-0.40878378
'0:13.606',-0.39527027
'0:13.608',-0.38851351
'0:13.611',-0.39527027
'0:13.614',-0.41216216
'0:13.617',-0.41554054
'0:13.619',-0.40540541
'0:13.622',-0.39189189
'0:13.625',-0.39864865
'0:13.628',-0.41554054
'0:13.631',-0.43918919
'0:13.633',-0.44594595
'0:13.636',-0.43243243
'0:13.639',-0.41891892
'0:13.642',-0.43581081
'0:13.644',-0.43581081
'0:13.647',-0.4222973
'0:13.650',-0.40878378
'0:13.653',-0.40540541
'0:13.656',-0.40878378
'0:13.658',-0.40540541
'0:13.661',-0.41216216
'0:13.664',-0.41554054
'0:13.667',-0.42905405
'0:13.669',-0.43243243
'0:13.672',-0.43243243
'0:13.675',-0.46621622
'0:13.678',-0.56756757
'0:13.681',-0.69594595
'0:13.683',-0.77364865
'0:13.686',-0.78040541
'0:13.689',-0.69594595
'0:13.692',-0.52364865
'0:13.694',-0.26351351
'0:13.697',0.13513514
'0:13.700',0.67567568
'0:13.703',1.30743243
'0:13.706',1.97297297
'0:13.708',2.59797297
'0:13.711',3.10472973
'0:13.714',3.41554054
'0:13.717',3.44932432
'0:13.719',3.12162162
'0:13.722',2.45608108
'0:13.725',1.41554054
'0:13.728',0.15540541
'0:13.731',-0.54054054
'0:13.733',-0.61486486
'0:13.736',-0.59459459
'0:13.739',-0.67567568
'0:13.742',-0.75675676
'0:13.744',-0.76013514
'0:13.747',-0.7027027
'0:13.750',-0.61148649
'0:13.753',-0.53378378
'0:13.756',-0.46959459
'0:13.758',-0.43243243
'0:13.761',-0.41554054
'0:13.764',-0.40878378
'0:13.767',-0.40540541
'0:13.769',-0.375
'0:13.772',-0.34459459
'0:13.775',-0.33108108
'0:13.778',-0.34459459
'0:13.781',-0.35472973
'0:13.783',-0.3277027
'0:13.786',-0.2972973
'0:13.789',-0.28716216
'0:13.792',-0.29054054
'0:13.794',-0.28716216
'0:13.797',-0.27702703
'0:13.800',-0.26351351
'0:13.803',-0.23310811
'0:13.806',-0.21959459
'0:13.808',-0.22635135
'0:13.811',-0.25
'0:13.814',-0.26689189
'0:13.817',-0.26351351
'0:13.819',-0.22972973
'0:13.822',-0.18581081
'0:13.825',-0.15540541
'0:13.828',-0.15202703
'0:13.831',-0.15878378
'0:13.833',-0.16216216
'0:13.836',-0.15202703
'0:13.839',-0.13513514
'0:13.842',-0.09797297
'0:13.844',-0.0777027
'0:13.847',-0.09459459
'0:13.850',-0.11486486
'0:13.853',-0.10135135
'0:13.856',-0.05067568
'0:13.858',-0.00675676
'0:13.861',0.00675676
'0:13.864',0.01013514
'0:13.867',0.02364865
'0:13.869',0.05743243
'0:13.872',0.10472973
'0:13.875',0.15202703
'0:13.878',0.1722973
'0:13.881',0.17905405
'0:13.883',0.19932432
'0:13.886',0.23310811
'0:13.889',0.28378378
'0:13.892',0.3277027
'0:13.894',0.34459459
'0:13.897',0.35810811
'0:13.900',0.38175676
'0:13.903',0.44932432
'0:13.906',0.5
'0:13.908',0.52364865
'0:13.911',0.55743243
'0:13.914',0.58445946
'0:13.917',0.61148649
'0:13.919',0.64189189
'0:13.922',0.66216216
'0:13.925',0.69932432
'0:13.928',0.73986486
'0:13.931',0.75675676
'0:13.933',0.77702703
'0:13.936',0.7972973
'0:13.939',0.81418919
'0:13.942',0.82094595
'0:13.944',0.80405405
'0:13.947',0.77027027
'0:13.950',0.73648649
'0:13.953',0.70608108
'0:13.956',0.66554054
'0:13.958',0.60135135
'0:13.961',0.53378378
'0:13.964',0.47972973
'0:13.967',0.42567568
'0:13.969',0.36486486
'0:13.972',0.30743243
'0:13.975',0.25337838
'0:13.978',0.18918919
'0:13.981',0.11486486
'0:13.983',0.05067568
'0:13.986',0.01013514
'0:13.989',0
'0:13.992',0
'0:13.994',-0.02702703
'0:13.997',-0.09459459
'0:14.000',-0.1722973
'0:14.003',-0.21621622
'0:14.006',-0.22635135
'0:14.008',-0.20945946
'0:14.011',-0.21621622
'0:14.014',-0.21621622
'0:14.017',-0.18918919
'0:14.019',-0.17567568
'0:14.022',-0.20945946
'0:14.025',-0.28040541
'0:14.028',-0.34459459
'0:14.031',-0.35135135
'0:14.033',-0.32094595
'0:14.036',-0.2972973
'0:14.039',-0.2972973
'0:14.042',-0.32432432
'0:14.044',-0.34797297
'0:14.047',-0.34121622
'0:14.050',-0.31756757
'0:14.053',-0.30405405
'0:14.056',-0.31756757
'0:14.058',-0.33783784
'0:14.061',-0.35810811
'0:14.064',-0.36486486
'0:14.067',-0.36486486
'0:14.069',-0.35135135
'0:14.072',-0.33445946
'0:14.075',-0.3277027
'0:14.078',-0.33445946
'0:14.081',-0.34797297
'0:14.083',-0.33445946
'0:14.086',-0.31418919
'0:14.089',-0.30743243
'0:14.092',-0.31756757
'0:14.094',-0.33783784
'0:14.097',-0.35135135
'0:14.100',-0.35810811
'0:14.103',-0.35135135
'0:14.106',-0.32432432
'0:14.108',-0.30405405
'0:14.111',-0.29054054
'0:14.114',-0.26013514
'0:14.117',-0.23310811
'0:14.119',-0.25675676
'0:14.122',-0.2972973
'0:14.125',-0.32094595
'0:14.128',-0.34121622
'0:14.131',-0.34459459
'0:14.133',-0.33783784
'0:14.136',-0.32094595
'0:14.139',-0.29054054
'0:14.142',-0.25675676
'0:14.144',-0.23310811
'0:14.147',-0.22297297
'0:14.150',-0.21621622
'0:14.153',-0.21283784
'0:14.156',-0.21621622
'0:14.158',-0.21621622
'0:14.161',-0.2027027
'0:14.164',-0.18918919
'0:14.167',-0.18243243
'0:14.169',-0.1722973
'0:14.172',-0.15540541
'0:14.175',-0.13851351
'0:14.178',-0.13851351
'0:14.181',-0.15202703
'0:14.183',-0.16891892
'0:14.186',-0.16891892
'0:14.189',-0.17567568
'0:14.192',-0.18918919
'0:14.194',-0.2027027
'0:14.197',-0.22297297
'0:14.200',-0.23648649
'0:14.203',-0.23648649
'0:14.206',-0.22297297
'0:14.208',-0.22972973
'0:14.211',-0.26013514
'0:14.214',-0.29054054
'0:14.217',-0.2972973
'0:14.219',-0.30067568
'0:14.222',-0.2972973
'0:14.225',-0.2972973
'0:14.228',-0.31418919
'0:14.231',-0.35135135
'0:14.233',-0.38851351
'0:14.236',-0.40540541
'0:14.239',-0.39527027
'0:14.242',-0.38851351
'0:14.244',-0.39527027
'0:14.247',-0.41891892
'0:14.250',-0.43243243
'0:14.253',-0.42567568
'0:14.256',-0.41216216
'0:14.258',-0.40878378
'0:14.261',-0.40540541
'0:14.264',-0.41554054
'0:14.267',-0.44256757
'0:14.269',-0.45608108
'0:14.272',-0.44256757
'0:14.275',-0.43243243
'0:14.278',-0.41216216
'0:14.281',-0.39864865
'0:14.283',-0.40540541
'0:14.286',-0.40878378
'0:14.289',-0.40540541
'0:14.292',-0.40202703
'0:14.294',-0.39864865
'0:14.297',-0.39864865
'0:14.300',-0.40878378
'0:14.303',-0.41891892
'0:14.306',-0.40202703
'0:14.308',-0.38513514
'0:14.311',-0.42905405
'0:14.314',-0.53716216
'0:14.317',-0.65540541
'0:14.319',-0.75337838
'0:14.322',-0.79054054
'0:14.325',-0.73986486
'0:14.328',-0.60135135
'0:14.331',-0.36486486
'0:14.333',-0.01351351
'0:14.336',0.45608108
'0:14.339',1.03040541
'0:14.342',1.6722973
'0:14.344',2.30743243
'0:14.347',2.84459459
'0:14.350',3.21959459
'0:14.353',3.36824324
'0:14.356',3.18243243
'0:14.358',2.625
'0:14.361',1.75
'0:14.364',0.55405405
'0:14.367',-0.35472973
'0:14.369',-0.60135135
'0:14.372',-0.5777027
'0:14.375',-0.625
'0:14.378',-0.72297297
'0:14.381',-0.76013514
'0:14.383',-0.70945946
'0:14.386',-0.62162162
'0:14.389',-0.53716216
'0:14.392',-0.47635135
'0:14.394',-0.42567568
'0:14.397',-0.40878378
'0:14.400',-0.39527027
'0:14.403',-0.375
'0:14.406',-0.35135135
'0:14.408',-0.34459459
'0:14.411',-0.35810811
'0:14.414',-0.36824324
'0:14.417',-0.37162162
'0:14.419',-0.375
'0:14.422',-0.36148649
'0:14.425',-0.34797297
'0:14.428',-0.3277027
'0:14.431',-0.31418919
'0:14.433',-0.31081081
'0:14.436',-0.29391892
'0:14.439',-0.27364865
'0:14.442',-0.27027027
'0:14.444',-0.27702703
'0:14.447',-0.27702703
'0:14.450',-0.27364865
'0:14.453',-0.26013514
'0:14.456',-0.23310811
'0:14.458',-0.21621622
'0:14.461',-0.21621622
'0:14.464',-0.21283784
'0:14.467',-0.19594595
'0:14.469',-0.16891892
'0:14.472',-0.14527027
'0:14.475',-0.13513514
'0:14.478',-0.14189189
'0:14.481',-0.14527027
'0:14.483',-0.12162162
'0:14.486',-0.09121622
'0:14.489',-0.07094595
'0:14.492',-0.0472973
'0:14.494',-0.02364865
'0:14.497',-0.01351351
'0:14.500',-0.00675676
'0:14.503',0.01351351
'0:14.506',0.06418919
'0:14.508',0.11148649
'0:14.511',0.12837838
'0:14.514',0.13175676
'0:14.517',0.15202703
'0:14.519',0.19594595
'0:14.522',0.24662162
'0:14.525',0.27702703
'0:14.528',0.29391892
'0:14.531',0.3277027
'0:14.533',0.36824324
'0:14.536',0.39527027
'0:14.539',0.43918919
'0:14.542',0.48648649
'0:14.544',0.51013514
'0:14.547',0.52702703
'0:14.550',0.56418919
'0:14.553',0.60472973
'0:14.556',0.64864865
'0:14.558',0.68243243
'0:14.561',0.69932432
'0:14.564',0.70945946
'0:14.567',0.72635135
'0:14.569',0.75675676
'0:14.572',0.79054054
'0:14.575',0.81081081
'0:14.578',0.80405405
'0:14.581',0.77702703
'0:14.583',0.75
'0:14.586',0.72635135
'0:14.589',0.69932432
'0:14.592',0.6722973
'0:14.594',0.63175676
'0:14.597',0.56756757
'0:14.600',0.49324324
'0:14.603',0.43581081
'0:14.606',0.38851351
'0:14.608',0.34459459
'0:14.611',0.27364865
'0:14.614',0.19594595
'0:14.617',0.13175676
'0:14.619',0.09121622
'0:14.622',0.04054054
'0:14.625',-0.00675676
'0:14.628',-0.04054054
'0:14.631',-0.07094595
'0:14.633',-0.09459459
'0:14.636',-0.11486486
'0:14.639',-0.15202703
'0:14.642',-0.19594595
'0:14.644',-0.21621622
'0:14.647',-0.21621622
'0:14.650',-0.22297297
'0:14.653',-0.24662162
'0:14.656',-0.26013514
'0:14.658',-0.28040541
'0:14.661',-0.30405405
'0:14.664',-0.31081081
'0:14.667',-0.2972973
'0:14.669',-0.2972973
'0:14.672',-0.29054054
'0:14.675',-0.29054054
'0:14.678',-0.29391892
'0:14.681',-0.31418919
'0:14.683',-0.31081081
'0:14.686',-0.31081081
'0:14.689',-0.32432432
'0:14.692',-0.3277027
'0:14.694',-0.32432432
'0:14.697',-0.3277027
'0:14.700',-0.32094595
'0:14.703',-0.32432432
'0:14.706',-0.32432432
'0:14.708',-0.30743243
'0:14.711',-0.30743243
'0:14.714',-0.3277027
'0:14.717',-0.33783784
'0:14.719',-0.32094595
'0:14.722',-0.30405405
'0:14.725',-0.30067568
'0:14.728',-0.31418919
'0:14.731',-0.33445946
'0:14.733',-0.33783784
'0:14.736',-0.32432432
'0:14.739',-0.30067568
'0:14.742',-0.28040541
'0:14.744',-0.28040541
'0:14.747',-0.29054054
'0:14.750',-0.30743243
'0:14.753',-0.32094595
'0:14.756',-0.31418919
'0:14.758',-0.30405405
'0:14.761',-0.31081081
'0:14.764',-0.31756757
'0:14.767',-0.2972973
'0:14.769',-0.26689189
'0:14.772',-0.25337838
'0:14.775',-0.23986486
