'0:00.000',3.97
'0:00.004',3.55
'0:00.008',3.22
'0:00.012',2.75
'0:00.016',2.38
'0:00.020',2.29
'0:00.023',2.09
'0:00.027',1.86
'0:00.031',1.83
'0:00.035',1.97
'0:00.039',1.8
'0:00.043',1.35
'0:00.047',0.9
'0:00.051',0.46
'0:00.055',0.14
'0:00.059',0.25
'0:00.063',0.67
'0:00.066',0.83
'0:00.070',0.7
'0:00.074',0.18
'0:00.078',-0.16
'0:00.082',-0.11
'0:00.086',0.18
'0:00.090',0.36
'0:00.094',0.51
'0:00.098',0.66
'0:00.102',0.68
'0:00.105',0.67
'0:00.109',0.52
'0:00.113',0.42
'0:00.117',0.29
'0:00.121',0.16
'0:00.125',-0.16
'0:00.129',-0.67
'0:00.133',-1.03
'0:00.137',-1.2
'0:00.141',-1.23
'0:00.145',-1.24
'0:00.148',-1.4
'0:00.152',-1.59
'0:00.156',-1.63
'0:00.160',-1.72
'0:00.164',-1.99
'0:00.168',-2.21
'0:00.172',-2.15
'0:00.176',-1.78
'0:00.180',-1.39
'0:00.184',-1.26
'0:00.188',-1.2
'0:00.191',-0.73
'0:00.195',0.15
'0:00.199',1.91
'0:00.203',4.59
'0:00.207',7.14
'0:00.211',7.69
'0:00.215',5.16
'0:00.219',0.68
'0:00.223',-3.87
'0:00.227',-6.53
'0:00.230',-6.87
'0:00.234',-6.02
'0:00.238',-5.55
'0:00.242',-5.49
'0:00.246',-4.91
'0:00.250',-4.13
'0:00.254',-3.16
'0:00.258',-2.12
'0:00.262',-1.4
'0:00.266',-1.04
'0:00.270',-0.79
'0:00.273',-0.84
'0:00.277',-0.73
'0:00.281',-0.65
'0:00.285',-0.52
'0:00.289',-0.21
'0:00.293',-0.03
'0:00.297',0.21
'0:00.301',0.4
'0:00.305',0.53
'0:00.309',0.49
'0:00.313',0.49
'0:00.316',0.56
'0:00.320',0.8
'0:00.324',1.04
'0:00.328',1.21
'0:00.332',1.39
'0:00.336',1.53
'0:00.340',1.78
'0:00.344',1.94
'0:00.348',2.32
'0:00.352',2.79
'0:00.355',3.03
'0:00.359',2.99
'0:00.363',2.76
'0:00.367',2.74
'0:00.371',2.69
'0:00.375',2.88
'0:00.379',3.14
'0:00.383',3.18
'0:00.387',2.91
'0:00.391',2.27
'0:00.395',1.57
'0:00.398',0.81
'0:00.402',0.45
'0:00.406',0.16
'0:00.410',-0.2
'0:00.414',-0.61
'0:00.418',-0.73
'0:00.422',-0.66
'0:00.426',-0.6
'0:00.430',-0.93
'0:00.434',-1.14
'0:00.438',-0.88
'0:00.441',-0.2
'0:00.445',0.44
'0:00.449',0.79
'0:00.453',0.87
'0:00.457',0.77
'0:00.461',0.77
'0:00.465',0.88
'0:00.469',0.8
'0:00.473',0.56
'0:00.477',0.31
'0:00.480',0.14
'0:00.484',-0.13
'0:00.488',-0.29
'0:00.492',-0.43
'0:00.496',-0.6
'0:00.500',-0.74
'0:00.504',-0.96
'0:00.508',-1.23
'0:00.512',-1.63
'0:00.516',-1.82
'0:00.520',-1.95
'0:00.523',-2.22
'0:00.527',-2.45
'0:00.531',-2.43
'0:00.535',-2.38
'0:00.539',-2.27
'0:00.543',-2.24
'0:00.547',-2.27
'0:00.551',-2.06
'0:00.555',-1.49
'0:00.559',-0.59
'0:00.563',0.84
'0:00.566',3.06
'0:00.570',5.28
'0:00.574',6.02
'0:00.578',3.99
'0:00.582',0
'0:00.586',-4.3
'0:00.590',-7.21
'0:00.594',-8.17
'0:00.598',-7.89
'0:00.602',-7.06
'0:00.605',-6.1
'0:00.609',-4.79
'0:00.613',-3.39
'0:00.617',-2.6
'0:00.621',-2.32
'0:00.625',-2.19
'0:00.629',-1.66
'0:00.633',-1.25
'0:00.637',-1.39
'0:00.641',-1.61
'0:00.645',-1.95
'0:00.648',-2.21
'0:00.652',-2.09
'0:00.656',-1.66
'0:00.660',-1.16
'0:00.664',-1.04
'0:00.668',-0.85
'0:00.672',-0.45
'0:00.676',-0.06
'0:00.680',0.24
'0:00.684',0.43
'0:00.688',0.63
'0:00.691',0.98
'0:00.695',1.12
'0:00.699',0.89
'0:00.703',0.76
'0:00.707',0.81
'0:00.711',1.31
'0:00.715',1.95
'0:00.719',2.35
'0:00.723',2.62
'0:00.727',2.7
'0:00.730',2.89
'0:00.734',3.04
'0:00.738',2.87
'0:00.742',2.3
'0:00.746',1.86
'0:00.750',1.71
'0:00.754',1.82
'0:00.758',2
'0:00.762',1.55
'0:00.766',0.87
'0:00.770',0.22
'0:00.773',-0.24
'0:00.777',-0.56
'0:00.781',-0.91
'0:00.785',-1.04
'0:00.789',-0.95
'0:00.793',-0.85
'0:00.797',-0.67
'0:00.801',-0.36
'0:00.805',-0.17
'0:00.809',-0.18
'0:00.813',0.01
'0:00.816',0.15
'0:00.820',0.29
'0:00.824',0.32
'0:00.828',0.23
'0:00.832',-0.12
'0:00.836',-0.5
'0:00.840',-0.93
'0:00.844',-1.07
'0:00.848',-0.81
'0:00.852',-0.9
'0:00.855',-1.36
'0:00.859',-1.71
'0:00.863',-1.95
'0:00.867',-1.86
'0:00.871',-1.92
'0:00.875',-1.99
'0:00.879',-2.14
'0:00.883',-2.15
'0:00.887',-2
'0:00.891',-1.95
'0:00.895',-1.92
'0:00.898',-2.05
'0:00.902',-2.16
'0:00.906',-2.08
'0:00.910',-1.59
'0:00.914',-1
'0:00.918',-0.22
'0:00.922',-0.22
'0:00.926',4.36
'0:00.930',7.41
'0:00.934',9.01
'0:00.938',6.97
'0:00.941',1.93
'0:00.945',-3.15
'0:00.949',-6.23
'0:00.953',-7.31
'0:00.957',-7.16
'0:00.961',-6.35
'0:00.965',-5.47
'0:00.969',-4.8
'0:00.973',-4
'0:00.977',-3.33
'0:00.980',-2.87
'0:00.984',-2.46
'0:00.988',-2.01
'0:00.992',-1.6
'0:00.996',-1.28
'0:01.000',-1.14
'0:01.004',-1.37
'0:01.008',-1.4
'0:01.012',-1.21
'0:01.016',-1
'0:01.020',-0.87
'0:01.023',-0.58
'0:01.027',-0.34
'0:01.031',-0.31
'0:01.035',-0.07
'0:01.039',0.49
'0:01.043',0.64
'0:01.047',0.34
'0:01.051',0.15
'0:01.055',0.23
'0:01.059',0.82
'0:01.063',1.39
'0:01.066',1.77
'0:01.070',2.02
'0:01.074',2.19
'0:01.078',2.48
'0:01.082',2.86
'0:01.086',3.19
'0:01.090',3.15
'0:01.094',2.84
'0:01.098',2.63
'0:01.102',2.7
'0:01.105',2.58
'0:01.109',2.19
'0:01.113',1.91
'0:01.117',1.53
'0:01.121',1.14
'0:01.125',0.55
'0:01.129',-0.07
'0:01.133',-0.43
'0:01.137',-0.46
'0:01.141',-0.45
'0:01.145',-0.67
'0:01.148',-0.82
'0:01.152',-0.82
'0:01.156',-0.7
'0:01.160',-0.47
'0:01.164',-0.52
'0:01.168',-0.65
'0:01.172',-0.55
'0:01.176',-0.13
'0:01.180',0.22
'0:01.184',0.03
'0:01.188',-0.49
'0:01.191',-0.7
'0:01.195',-0.75
'0:01.199',-0.64
'0:01.203',-0.67
'0:01.207',-0.79
'0:01.211',-1.03
'0:01.215',-1.26
'0:01.219',-1.46
'0:01.223',-1.81
'0:01.227',-2.27
'0:01.230',-2.42
'0:01.234',-2.32
'0:01.238',-2.18
'0:01.242',-2.12
'0:01.246',-2.14
'0:01.250',-2
'0:01.254',-2.11
'0:01.258',-2.09
'0:01.262',-2.12
'0:01.266',-2.03
'0:01.270',-1.82
'0:01.273',-1.52
'0:01.277',-1.01
'0:01.281',0.15
'0:01.285',2.21
'0:01.289',4.82
'0:01.293',7.66
'0:01.297',9.45
'0:01.301',8.05
'0:01.305',3
'0:01.309',-2.68
'0:01.313',-6.14
'0:01.316',-6.99
'0:01.320',-6.47
'0:01.324',-5.74
'0:01.328',-5
'0:01.332',-4.27
'0:01.336',-3.36
'0:01.340',-2.42
'0:01.344',-1.88
'0:01.348',-1.8
'0:01.352',-1.59
'0:01.355',-0.91
'0:01.359',-0.4
'0:01.363',-0.13
'0:01.367',0.04
'0:01.371',-0.02
'0:01.375',0
'0:01.379',-0.16
'0:01.383',0.01
'0:01.387',0.54
'0:01.391',0.78
'0:01.395',0.66
'0:01.398',0.42
'0:01.402',0.18
'0:01.406',0.33
'0:01.410',1.08
'0:01.414',1.54
'0:01.418',1.39
'0:01.422',1.19
'0:01.426',1.03
'0:01.430',1.54
'0:01.434',2.47
'0:01.438',3.01
'0:01.441',3.16
'0:01.445',3.54
'0:01.449',3.43
'0:01.453',3.17
'0:01.457',3.45
'0:01.461',3.65
'0:01.465',3.56
'0:01.469',3.27
'0:01.473',2.41
'0:01.477',1.59
'0:01.480',1.02
'0:01.484',0.58
'0:01.488',0.19
'0:01.492',0.18
'0:01.496',0.82
'0:01.500',0.86
'0:01.504',-0.16
'0:01.508',-1.08
'0:01.512',-1.34
'0:01.516',-1.07
'0:01.520',-0.51
'0:01.523',-0.19
'0:01.527',-0.35
'0:01.531',-0.49
'0:01.535',-0.12
'0:01.539',0.47
'0:01.543',0.8
'0:01.547',0.95
'0:01.551',0.9
'0:01.555',0.74
'0:01.559',0.5
'0:01.563',0.36
'0:01.566',0.02
'0:01.570',-0.19
'0:01.574',-0.2
'0:01.578',-0.46
'0:01.582',-0.81
'0:01.586',-0.88
'0:01.590',-0.89
'0:01.594',-1.17
'0:01.598',-1.48
'0:01.602',-1.51
'0:01.605',-1.28
'0:01.609',-1
'0:01.613',-0.82
'0:01.617',-0.81
'0:01.621',-1.22
'0:01.625',-1.52
'0:01.629',-1.74
'0:01.633',-1.86
'0:01.637',-1.53
'0:01.641',-0.95
'0:01.645',-0.23
'0:01.648',0.81
'0:01.652',3.07
'0:01.656',6.28
'0:01.660',8.98
'0:01.664',9.21
'0:01.668',5.74
'0:01.672',0.29
'0:01.676',-4.31
'0:01.680',-6.61
'0:01.684',-6.77
'0:01.688',-5.93
'0:01.691',-5.17
'0:01.695',-4.61
'0:01.699',-4.09
'0:01.703',-3.49
'0:01.707',-2.95
'0:01.711',-2.35
'0:01.715',-1.68
'0:01.719',-1.16
'0:01.723',-0.7
'0:01.727',-0.3
'0:01.730',-0.24
'0:01.734',-0.23
'0:01.738',0.11
'0:01.742',0.43
'0:01.746',0.6
'0:01.750',0.59
'0:01.754',0.65
'0:01.758',0.71
'0:01.762',0.85
'0:01.766',0.97
'0:01.770',1.05
'0:01.773',1.13
'0:01.777',1.1
'0:01.781',1.19
'0:01.785',1.48
'0:01.789',1.67
'0:01.793',1.87
'0:01.797',2.2
'0:01.801',2.61
'0:01.805',2.76
'0:01.809',2.87
'0:01.813',3.07
'0:01.816',3.15
'0:01.820',3.28
'0:01.824',3.46
'0:01.828',3.51
'0:01.832',3.49
'0:01.836',3.24
'0:01.840',2.67
'0:01.844',2
'0:01.848',1.49
'0:01.852',1.14
'0:01.855',0.78
'0:01.859',0.35
'0:01.863',-0.22
'0:01.867',-0.55
'0:01.871',-0.65
'0:01.875',-0.77
'0:01.879',-0.8
'0:01.883',-0.75
'0:01.887',-0.77
'0:01.891',-0.77
'0:01.895',-0.69
'0:01.898',-0.38
'0:01.902',-0.03
'0:01.906',0.35
'0:01.910',0.54
'0:01.914',0.32
'0:01.918',0.08
'0:01.922',0.18
'0:01.926',0.32
'0:01.930',0.3
'0:01.934',0.16
'0:01.938',-0.05
'0:01.941',-0.44
'0:01.945',-0.83
'0:01.949',-1.34
'0:01.953',-1.94
'0:01.957',-2.38
'0:01.961',-2.6
'0:01.965',-2.63
'0:01.969',-2.58
'0:01.973',-2.53
'0:01.977',-2.53
'0:01.980',-2.51
'0:01.984',-2.38
'0:01.988',-2.43
'0:01.992',-2.41
'0:01.996',-2.27
'0:02.000',-2.19
'0:02.004',-2.1
'0:02.008',-1.8
'0:02.012',-1.22
'0:02.016',-0.05
'0:02.020',2.22
'0:02.023',5.34
'0:02.027',8.08
'0:02.031',8.24
'0:02.035',4.81
'0:02.039',-0.64
'0:02.043',-5.16
'0:02.047',-7.43
'0:02.051',-7.85
'0:02.055',-7.25
'0:02.059',-6.26
'0:02.063',-5.3
'0:02.066',-4.19
'0:02.070',-3.04
'0:02.074',-2.24
'0:02.078',-1.88
'0:02.082',-1.73
'0:02.086',-1.57
'0:02.090',-1.36
'0:02.094',-1.22
'0:02.098',-1.18
'0:02.102',-1
'0:02.105',-0.81
'0:02.109',-0.66
'0:02.113',-0.56
'0:02.117',-0.46
'0:02.121',-0.39
'0:02.125',-0.2
'0:02.129',0.18
'0:02.133',0.48
'0:02.137',0.64
'0:02.141',0.63
'0:02.145',0.82
'0:02.148',1.04
'0:02.152',1.23
'0:02.156',1.41
'0:02.160',1.66
'0:02.164',2.15
'0:02.168',2.63
'0:02.172',3.09
'0:02.176',3.03
'0:02.180',2.91
'0:02.184',3.12
'0:02.188',3.29
'0:02.191',3.36
'0:02.195',3.36
'0:02.199',3.3
'0:02.203',3.15
'0:02.207',2.77
'0:02.211',2.29
'0:02.215',2.13
'0:02.219',2.01
'0:02.223',1.56
'0:02.227',1.07
'0:02.230',0.71
'0:02.234',-0.06
'0:02.238',-0.65
'0:02.242',-0.82
'0:02.246',-0.7
'0:02.250',-0.37
'0:02.254',-0.16
'0:02.258',0.13
'0:02.262',0.5
'0:02.266',0.94
'0:02.270',1.14
'0:02.273',1.24
'0:02.277',1.07
'0:02.281',0.66
'0:02.285',0.35
'0:02.289',0.25
'0:02.293',0.09
'0:02.297',-0.02
'0:02.301',-0.18
'0:02.305',-0.45
'0:02.309',-0.8
'0:02.313',-1.12
'0:02.316',-1.33
'0:02.320',-1.52
'0:02.324',-1.67
'0:02.328',-1.98
'0:02.332',-2.26
'0:02.336',-2.03
'0:02.340',-1.78
'0:02.344',-1.75
'0:02.348',-1.65
'0:02.352',-1.67
'0:02.355',-1.68
'0:02.359',-1.64
'0:02.363',-1.69
'0:02.367',-1.66
'0:02.371',-1.6
'0:02.375',-1.23
'0:02.379',-0.24
'0:02.383',1.51
'0:02.387',3.85
'0:02.391',6.74
'0:02.395',8.81
'0:02.398',7.29
'0:02.402',2.9
'0:02.406',-2.69
'0:02.410',-6.84
'0:02.414',-7.8
'0:02.418',-6.88
'0:02.422',-5.44
'0:02.426',-4.06
'0:02.430',-2.69
'0:02.434',-1.62
'0:02.438',-1.13
'0:02.441',-1.1
'0:02.445',-0.79
'0:02.449',-0.43
'0:02.453',0.04
'0:02.457',0.22
'0:02.461',0.09
'0:02.465',0.12
'0:02.469',0.56
'0:02.473',0.98
'0:02.477',0.91
'0:02.480',0.65
'0:02.484',0.72
'0:02.488',1.13
'0:02.492',1.3
'0:02.496',1.35
'0:02.500',1.74
'0:02.504',1.95
'0:02.508',1.98
'0:02.512',1.95
'0:02.516',2.14
'0:02.520',2.38
'0:02.523',2.54
'0:02.527',2.71
'0:02.531',3.26
'0:02.535',3.83
'0:02.539',4.25
'0:02.543',4.53
'0:02.547',4.25
'0:02.551',3.25
'0:02.555',3.04
'0:02.559',3.57
'0:02.563',4.31
'0:02.566',4.84
'0:02.570',4.6
'0:02.574',4.01
'0:02.578',3.25
'0:02.582',2.34
'0:02.586',1.63
'0:02.590',1.3
'0:02.594',1.13
'0:02.598',0.85
'0:02.602',0.6
'0:02.605',0.51
'0:02.609',0.59
'0:02.613',0.59
'0:02.617',0.59
'0:02.621',0.59
'0:02.625',0.76
'0:02.629',0.81
'0:02.633',0.92
'0:02.637',1.16
'0:02.641',1.34
'0:02.645',1.26
'0:02.648',1.08
'0:02.652',0.75
'0:02.656',0.35
'0:02.660',0.06
'0:02.664',-0.08
'0:02.668',-0.3
'0:02.672',-0.54
'0:02.676',-0.75
'0:02.680',-1.03
'0:02.684',-1.35
'0:02.688',-1.48
'0:02.691',-1.6
'0:02.695',-1.86
'0:02.699',-2.07
'0:02.703',-2.03
'0:02.707',-2
'0:02.711',-2.04
'0:02.715',-2.31
'0:02.719',-2.38
'0:02.723',-2.27
'0:02.727',-2.1
'0:02.730',-2.02
'0:02.734',-2
'0:02.738',-1.95
'0:02.742',-1.67
'0:02.746',-1.06
'0:02.750',0.41
'0:02.754',2.54
'0:02.758',5.03
'0:02.762',6.04
'0:02.766',3.81
'0:02.770',-0.36
'0:02.773',-4.44
'0:02.777',-6.98
'0:02.781',-7.83
'0:02.785',-7.28
'0:02.789',-6.14
'0:02.793',-5.02
'0:02.797',-4.08
'0:02.801',-3.32
'0:02.805',-2.73
'0:02.809',-2.22
'0:02.813',-1.86
'0:02.816',-1.64
'0:02.820',-1.4
'0:02.824',-1.13
'0:02.828',-0.95
'0:02.832',-0.96
'0:02.836',-1.03
'0:02.840',-1
'0:02.844',-0.96
'0:02.848',-0.84
'0:02.852',-0.69
'0:02.855',-0.52
'0:02.859',-0.3
'0:02.863',-0.04
'0:02.867',0.24
'0:02.871',0.3
'0:02.875',0.25
'0:02.879',0.24
'0:02.883',0.53
'0:02.887',0.72
'0:02.891',1.01
'0:02.895',1.26
'0:02.898',1.48
'0:02.902',1.73
'0:02.906',2.14
'0:02.910',2.66
'0:02.914',2.9
'0:02.918',2.98
'0:02.922',3.11
'0:02.926',3.14
'0:02.930',3.06
'0:02.934',2.79
'0:02.938',2.73
'0:02.941',2.53
'0:02.945',1.99
'0:02.949',1.42
'0:02.953',0.88
'0:02.957',0.23
'0:02.961',-0.32
'0:02.965',-0.69
'0:02.969',-0.82
'0:02.973',-0.85
'0:02.977',-0.82
'0:02.980',-0.83
'0:02.984',-0.71
'0:02.988',-0.28
'0:02.992',0.3
'0:02.996',0.79
'0:03.000',0.84
'0:03.004',0.51
'0:03.008',0.31
'0:03.012',0.2
'0:03.016',0.2
'0:03.020',0.11
'0:03.023',0.04
'0:03.027',-0.06
'0:03.031',-0.25
'0:03.035',-0.59
'0:03.039',-0.8
'0:03.043',-0.91
'0:03.047',-1.04
'0:03.051',-1.01
'0:03.055',-1.18
'0:03.059',-1.51
'0:03.063',-1.67
'0:03.066',-1.77
'0:03.070',-1.85
'0:03.074',-1.86
'0:03.078',-1.75
'0:03.082',-1.75
'0:03.086',-2
'0:03.090',-2.33
'0:03.094',-2.29
'0:03.098',-1.96
'0:03.102',-1.5
'0:03.105',-0.88
'0:03.109',0.08
'0:03.113',1.94
'0:03.117',4.9
'0:03.121',8.07
'0:03.125',9.29
'0:03.129',7.16
'0:03.133',2.26
'0:03.137',-3.28
'0:03.141',-6.95
'0:03.145',-8.05
'0:03.148',-7.82
'0:03.152',-7.22
'0:03.156',-6.55
'0:03.160',-5.69
'0:03.164',-4.61
'0:03.168',-3.49
'0:03.172',-2.67
'0:03.176',-2.33
'0:03.180',-2.1
'0:03.184',-1.99
'0:03.188',-1.93
'0:03.191',-1.61
'0:03.195',-1.12
'0:03.199',-0.53
'0:03.203',0.04
'0:03.207',0.17
'0:03.211',0.22
'0:03.215',0.45
'0:03.219',1
'0:03.223',1.12
'0:03.227',0.7
'0:03.230',0.57
'0:03.234',0.56
'0:03.238',0.8
'0:03.242',1.03
'0:03.246',1.18
'0:03.250',1.72
'0:03.254',2.09
'0:03.258',2.35
'0:03.262',2.79
'0:03.266',3.23
'0:03.270',3.62
'0:03.273',3.59
'0:03.277',3.65
'0:03.281',4.25
'0:03.285',4.49
'0:03.289',4.33
'0:03.293',4.22
'0:03.297',4.1
'0:03.301',4.01
'0:03.305',3.73
'0:03.309',2.74
'0:03.313',1.7
'0:03.316',1.11
'0:03.320',0.72
'0:03.324',0.18
'0:03.328',-0.33
'0:03.332',-0.37
'0:03.336',0.08
'0:03.340',0.4
'0:03.344',-0.05
'0:03.348',-0.62
'0:03.352',-0.54
'0:03.355',-0.23
'0:03.359',0.35
'0:03.363',0.75
'0:03.367',0.96
'0:03.371',0.94
'0:03.375',0.57
'0:03.379',0.51
'0:03.383',0.61
'0:03.387',0.15
'0:03.391',-0.39
'0:03.395',-0.62
'0:03.398',-0.75
'0:03.402',-0.48
'0:03.406',0.11
'0:03.410',-0.18
'0:03.414',-0.99
'0:03.418',-1.61
'0:03.422',-1.6
'0:03.426',-1.31
'0:03.430',-1.59
'0:03.434',-1.64
'0:03.438',-1.61
'0:03.441',-1.5
'0:03.445',-0.92
'0:03.449',-0.57
'0:03.453',-0.98
'0:03.457',-1.22
'0:03.461',-1.35
'0:03.465',-1.21
'0:03.469',-0.64
'0:03.473',0.47
'0:03.477',1.77
'0:03.480',3.85
'0:03.484',7.15
'0:03.488',8.83
'0:03.492',6.94
'0:03.496',1.78
'0:03.500',-3.39
'0:03.504',-6.49
'0:03.508',-7.54
'0:03.512',-7.53
'0:03.516',-7.07
'0:03.520',-6.32
'0:03.523',-5.56
'0:03.527',-4.73
'0:03.531',-3.84
'0:03.535',-2.77
'0:03.539',-2.04
'0:03.543',-2.01
'0:03.547',-1.98
'0:03.551',-1.58
'0:03.555',-1.04
'0:03.559',-0.49
'0:03.563',-0.26
'0:03.566',-0.38
'0:03.570',-0.34
'0:03.574',-0.25
'0:03.578',-0.05
'0:03.582',0.12
'0:03.586',0.42
'0:03.590',0.89
'0:03.594',0.99
'0:03.598',0.87
'0:03.602',0.87
'0:03.605',1.11
'0:03.609',1.25
'0:03.613',1.33
'0:03.617',1.48
'0:03.621',1.9
'0:03.625',2.4
'0:03.629',2.67
'0:03.633',2.92
'0:03.637',3.19
'0:03.641',3.33
'0:03.645',3.3
'0:03.648',3.17
'0:03.652',3.11
'0:03.656',3.03
'0:03.660',2.77
'0:03.664',2.36
'0:03.668',1.92
'0:03.672',1.5
'0:03.676',1.23
'0:03.680',0.89
'0:03.684',0.51
'0:03.688',0.09
'0:03.691',-0.37
'0:03.695',-0.77
'0:03.699',-0.95
'0:03.703',-0.96
'0:03.707',-0.77
'0:03.711',-0.49
'0:03.715',-0.36
'0:03.719',-0.47
'0:03.723',-0.53
'0:03.727',-0.45
'0:03.730',-0.13
'0:03.734',0.15
'0:03.738',0.2
'0:03.742',0.31
'0:03.746',0.5
'0:03.750',0.63
'0:03.754',0.57
'0:03.758',0.38
'0:03.762',0.09
'0:03.766',-0.37
'0:03.770',-0.78
'0:03.773',-1.17
'0:03.777',-1.45
'0:03.781',-1.7
'0:03.785',-1.91
'0:03.789',-2.13
'0:03.793',-2.24
'0:03.797',-2.24
'0:03.801',-2.17
'0:03.805',-2.09
'0:03.809',-2.07
'0:03.813',-2.03
'0:03.816',-1.86
'0:03.820',-1.69
'0:03.824',-1.49
'0:03.828',-1.37
'0:03.832',-1.11
'0:03.836',-0.54
'0:03.840',0.44
'0:03.844',2.17
'0:03.848',4.81
'0:03.852',7.84
'0:03.855',9.26
'0:03.859',7.06
'0:03.863',1.93
'0:03.867',-3.26
'0:03.871',-6.27
'0:03.875',-7.2
'0:03.879',-6.75
'0:03.883',-5.91
'0:03.887',-5.15
'0:03.891',-4.26
'0:03.895',-3.47
'0:03.898',-2.85
'0:03.902',-2.31
'0:03.906',-1.91
'0:03.910',-1.47
'0:03.914',-1.04
'0:03.918',-0.53
'0:03.922',-0.1
'0:03.926',-0.23
'0:03.930',-0.62
'0:03.934',-1
'0:03.938',-1.14
'0:03.941',-0.71
'0:03.945',0.08
'0:03.949',0.18
'0:03.953',0.01
'0:03.957',0.15
'0:03.961',0.27
'0:03.965',0.16
'0:03.969',0.17
'0:03.973',0.25
'0:03.977',0.13
'0:03.980',0.36
'0:03.984',0.94
'0:03.988',1.63
'0:03.992',2.25
'0:03.996',2.71
'0:04.000',2.83
'0:04.004',2.76
'0:04.008',2.89
'0:04.012',3.13
'0:04.016',3.43
'0:04.020',3.55
'0:04.023',3.47
'0:04.027',3.55
'0:04.031',3.61
'0:04.035',2.85
'0:04.039',1.87
'0:04.043',1.57
'0:04.047',1.47
'0:04.051',1.07
'0:04.055',0.4
'0:04.059',-0.26
'0:04.063',-0.49
'0:04.066',-0.51
'0:04.070',-0.34
'0:04.074',-0.22
'0:04.078',0.34
'0:04.082',1.01
'0:04.086',0.92
'0:04.090',0.31
'0:04.094',0.14
'0:04.098',0.5
'0:04.102',0.64
'0:04.105',0.45
'0:04.109',0.35
'0:04.113',0.27
'0:04.117',0.48
'0:04.121',0.64
'0:04.125',0.54
'0:04.129',0.61
'0:04.133',0.5
'0:04.137',0.14
'0:04.141',-0.07
'0:04.145',-0.21
'0:04.148',-0.36
'0:04.152',-0.73
'0:04.156',-1.4
'0:04.160',-1.95
'0:04.164',-1.86
'0:04.168',-1.66
'0:04.172',-1.63
'0:04.176',-1.42
'0:04.180',-1.15
'0:04.184',-1.09
'0:04.188',-1.3
'0:04.191',-1.3
'0:04.195',-0.96
'0:04.199',-0.61
'0:04.203',-0.01
'0:04.207',0.81
'0:04.211',2.35
'0:04.215',5.01
'0:04.219',8.06
'0:04.223',9.22
'0:04.227',6.29
'0:04.230',0.7
'0:04.234',-4.41
'0:04.238',-7.02
'0:04.242',-7.42
'0:04.246',-6.48
'0:04.250',-5.49
'0:04.254',-4.46
'0:04.258',-3.34
'0:04.262',-2.33
'0:04.266',-1.61
'0:04.270',-1.04
'0:04.273',-0.74
'0:04.277',-0.36
'0:04.281',0.16
'0:04.285',0.6
'0:04.289',0.58
'0:04.293',0.19
'0:04.297',0.1
'0:04.301',0.14
'0:04.305',0.47
'0:04.309',0.98
'0:04.313',1.29
'0:04.316',1.3
'0:04.320',1.22
'0:04.324',1.11
'0:04.328',0.94
'0:04.332',0.86
'0:04.336',1.11
'0:04.340',1.63
'0:04.344',1.92
'0:04.348',2.02
'0:04.352',2.17
'0:04.355',2.4
'0:04.359',2.8
'0:04.363',3.06
'0:04.367',3.09
'0:04.371',3.21
'0:04.375',3.43
'0:04.379',3.83
'0:04.383',4.11
'0:04.387',4.13
'0:04.391',3.66
'0:04.395',3.12
'0:04.398',2.64
'0:04.402',2.14
'0:04.406',1.81
'0:04.410',1.57
'0:04.414',1.15
'0:04.418',0.59
'0:04.422',0.1
'0:04.426',-0.32
'0:04.430',-0.62
'0:04.434',-0.66
'0:04.438',-0.39
'0:04.441',-0.08
'0:04.445',0
'0:04.449',0.1
'0:04.453',0.21
'0:04.457',0.41
'0:04.461',0.72
'0:04.465',1.06
'0:04.469',1.08
'0:04.473',0.68
'0:04.477',0.28
'0:04.480',0.21
'0:04.484',0.25
'0:04.488',0.2
'0:04.492',0.18
'0:04.496',0.11
'0:04.500',-0.15
'0:04.504',-0.59
'0:04.508',-0.96
'0:04.512',-1.27
'0:04.516',-1.62
'0:04.520',-1.77
'0:04.523',-1.75
'0:04.527',-1.64
'0:04.531',-1.45
'0:04.535',-1.44
'0:04.539',-1.55
'0:04.543',-1.83
'0:04.547',-2.06
'0:04.551',-2.12
'0:04.555',-2.08
'0:04.559',-2.02
'0:04.563',-2.09
'0:04.566',-1.77
'0:04.570',-1.06
'0:04.574',-0.03
'0:04.578',1.8
'0:04.582',4.35
'0:04.586',6.58
'0:04.590',6.18
'0:04.594',2.79
'0:04.598',-1.78
'0:04.602',-5.43
'0:04.605',-7.26
'0:04.609',-7.62
'0:04.613',-7.14
'0:04.617',-6.23
'0:04.621',-5.21
'0:04.625',-4.11
'0:04.629',-3.18
'0:04.633',-2.44
'0:04.637',-1.92
'0:04.641',-1.55
'0:04.645',-1.13
'0:04.648',-0.9
'0:04.652',-1.05
'0:04.656',-1.33
'0:04.660',-1.48
'0:04.664',-1.48
'0:04.668',-1.16
'0:04.672',-0.79
'0:04.676',-0.47
'0:04.680',-0.23
'0:04.684',-0.07
'0:04.688',-0.05
'0:04.691',0.11
'0:04.695',0.34
'0:04.699',0.54
'0:04.703',0.77
'0:04.707',0.95
'0:04.711',0.97
'0:04.715',1.08
'0:04.719',1.26
'0:04.723',1.61
'0:04.727',2.17
'0:04.730',2.7
'0:04.734',2.84
'0:04.738',2.67
'0:04.742',2.63
'0:04.746',2.8
'0:04.750',2.95
'0:04.754',3
'0:04.758',2.75
'0:04.762',2.26
'0:04.766',1.86
'0:04.770',1.78
'0:04.773',1.39
'0:04.777',0.6
'0:04.781',-0.07
'0:04.785',-0.31
'0:04.789',-0.38
'0:04.793',-0.92
'0:04.797',-1.67
'0:04.801',-2.13
'0:04.805',-2.24
'0:04.809',-2.1
'0:04.813',-1.59
'0:04.816',-0.72
'0:04.820',0.15
'0:04.824',0.29
'0:04.828',-0.07
'0:04.832',-0.29
'0:04.836',-0.05
'0:04.840',0.65
'0:04.844',1.11
'0:04.848',0.79
'0:04.852',-0.26
'0:04.855',-1.27
'0:04.859',-1.95
'0:04.863',-2.09
'0:04.867',-2.08
'0:04.871',-2.23
'0:04.875',-2.59
'0:04.879',-2.86
'0:04.883',-2.92
'0:04.887',-2.83
'0:04.891',-2.57
'0:04.895',-2.14
'0:04.898',-1.92
'0:04.902',-2.04
'0:04.906',-2.23
'0:04.910',-2.4
'0:04.914',-2.42
'0:04.918',-2.09
'0:04.922',-1.53
'0:04.926',-1.33
'0:04.930',-1.2
'0:04.934',-0.58
'0:04.938',0.36
'0:04.941',1.71
'0:04.945',4.07
'0:04.949',7.47
'0:04.953',9.29
'0:04.957',7.34
'0:04.961',2.35
'0:04.965',-3.1
'0:04.969',-6.34
'0:04.973',-7.27
'0:04.977',-6.76
'0:04.980',-5.74
'0:04.984',-4.81
'0:04.988',-3.72
'0:04.992',-2.56
'0:04.996',-1.75
'0:05.000',-1.39
'0:05.004',-1.48
'0:05.008',-1.65
'0:05.012',-1.65
'0:05.016',-1.45
'0:05.020',-0.94
'0:05.023',-0.84
'0:05.027',-0.74
'0:05.031',-0.23
'0:05.035',-0.18
'0:05.039',-0.51
'0:05.043',-0.52
'0:05.047',-0.07
'0:05.051',0.24
'0:05.055',0.39
'0:05.059',0.35
'0:05.063',0.34
'0:05.066',0.67
'0:05.070',1.1
'0:05.074',1.52
'0:05.078',1.82
'0:05.082',2.21
'0:05.086',2.58
'0:05.090',2.82
'0:05.094',3.11
'0:05.098',3.45
'0:05.102',3.81
'0:05.105',3.99
'0:05.109',4.18
'0:05.113',4.51
'0:05.117',4.44
'0:05.121',4.05
'0:05.125',3.34
'0:05.129',3.01
'0:05.133',2.87
'0:05.137',2.14
'0:05.141',1.03
'0:05.145',-0.05
'0:05.148',-0.46
'0:05.152',-0.37
'0:05.156',-0.06
'0:05.160',-0.13
'0:05.164',-0.41
'0:05.168',-0.23
'0:05.172',0.14
'0:05.176',-0.05
'0:05.180',-0.06
'0:05.184',0.4
'0:05.188',1.36
'0:05.191',1.6
'0:05.195',0.82
'0:05.199',0.56
'0:05.203',0.54
'0:05.207',0.2
'0:05.211',-0.44
'0:05.215',-0.44
'0:05.219',-0.15
'0:05.223',0
'0:05.227',-0.22
'0:05.230',-0.68
'0:05.234',-1.17
'0:05.238',-1.74
'0:05.242',-1.79
'0:05.246',-2.1
'0:05.250',-2.31
'0:05.254',-2.13
'0:05.258',-1.95
'0:05.262',-1.6
'0:05.266',-1.51
'0:05.270',-1.79
'0:05.273',-1.89
'0:05.277',-1.12
'0:05.281',-0.61
'0:05.285',-0.8
'0:05.289',-1.59
'0:05.293',-1.61
'0:05.297',-1.38
'0:05.301',-0.61
'0:05.305',1.29
'0:05.309',4.13
'0:05.313',7.15
'0:05.316',9.17
'0:05.320',7.6
'0:05.324',2.6
'0:05.328',-2.88
'0:05.332',-6.47
'0:05.336',-7.56
'0:05.340',-7.19
'0:05.344',-6.29
'0:05.348',-5.62
'0:05.352',-4.95
'0:05.355',-4.27
'0:05.359',-3.22
'0:05.363',-2.17
'0:05.367',-1.25
'0:05.371',-0.82
'0:05.375',-1.15
'0:05.379',-1.28
'0:05.383',-1.03
'0:05.387',-0.88
'0:05.391',-0.58
'0:05.395',-0.29
'0:05.398',-0.14
'0:05.402',-0.33
'0:05.406',-0.45
'0:05.410',-0.35
'0:05.414',-0.02
'0:05.418',0.45
'0:05.422',0.59
'0:05.426',0.71
'0:05.430',0.67
'0:05.434',0.82
'0:05.438',0.81
'0:05.441',0.85
'0:05.445',1.35
'0:05.449',2.18
'0:05.453',2.42
'0:05.457',2.5
'0:05.461',2.7
'0:05.465',3.07
'0:05.469',3.19
'0:05.473',3.22
'0:05.477',3.36
'0:05.480',3.37
'0:05.484',3.11
'0:05.488',2.8
'0:05.492',2.38
'0:05.496',2.13
'0:05.500',1.87
'0:05.504',1.34
'0:05.508',0.92
'0:05.512',0.35
'0:05.516',-0.34
'0:05.520',-0.73
'0:05.523',-0.6
'0:05.527',-0.54
'0:05.531',-0.5
'0:05.535',-0.37
'0:05.539',-0.26
'0:05.543',-0.27
'0:05.547',-0.04
'0:05.551',0.26
'0:05.555',0.58
'0:05.559',0.71
'0:05.563',0.73
'0:05.566',0.76
'0:05.570',0.85
'0:05.574',0.88
'0:05.578',0.77
'0:05.582',0.71
'0:05.586',0.66
'0:05.590',0.5
'0:05.594',0.26
'0:05.598',0.08
'0:05.602',-0.35
'0:05.605',-0.85
'0:05.609',-1.42
'0:05.613',-1.74
'0:05.617',-1.96
'0:05.621',-1.93
'0:05.625',-1.75
'0:05.629',-1.7
'0:05.633',-1.73
'0:05.637',-1.7
'0:05.641',-1.52
'0:05.645',-1.48
'0:05.648',-1.79
'0:05.652',-1.84
'0:05.656',-1.5
'0:05.660',-0.92
'0:05.664',-0.15
'0:05.668',0.83
'0:05.672',2.55
'0:05.676',5.17
'0:05.680',8.12
'0:05.684',9.33
'0:05.688',6.69
'0:05.691',1.19
'0:05.695',-3.83
'0:05.699',-6.69
'0:05.703',-7.71
'0:05.707',-7.29
'0:05.711',-6.39
'0:05.715',-5.45
'0:05.719',-4.45
'0:05.723',-3.7
'0:05.727',-3.21
'0:05.730',-2.6
'0:05.734',-1.84
'0:05.738',-1.6
'0:05.742',-1.89
'0:05.746',-2.02
'0:05.750',-1.91
'0:05.754',-1.53
'0:05.758',-0.95
'0:05.762',-0.43
'0:05.766',0.02
'0:05.770',0.27
'0:05.773',0.04
'0:05.777',-0.05
'0:05.781',0.44
'0:05.785',0.69
'0:05.789',0.65
'0:05.793',0.65
'0:05.797',0.4
'0:05.801',0.35
'0:05.805',0.53
'0:05.809',0.82
'0:05.813',1
'0:05.816',1.14
'0:05.820',1.66
'0:05.824',2.28
'0:05.828',2.67
'0:05.832',3.1
'0:05.836',3.5
'0:05.840',4.07
'0:05.844',4.74
'0:05.848',4.63
'0:05.852',4.14
'0:05.855',3.56
'0:05.859',2.94
'0:05.863',2.59
'0:05.867',2.2
'0:05.871',1.58
'0:05.875',1.11
'0:05.879',0.69
'0:05.883',0.37
'0:05.887',0.29
'0:05.891',-0.14
'0:05.895',-0.6
'0:05.898',-0.59
'0:05.902',-0.25
'0:05.906',0.05
'0:05.910',0.17
'0:05.914',0.59
'0:05.918',1.25
'0:05.922',1.42
'0:05.926',1.19
'0:05.930',0.73
'0:05.934',0.35
'0:05.938',0.34
'0:05.941',0.37
'0:05.945',0.4
'0:05.949',0.35
'0:05.953',-0.13
'0:05.957',0.1
'0:05.961',0.6
'0:05.965',0.42
'0:05.969',-0.7
'0:05.973',-1.78
'0:05.977',-2.39
'0:05.980',-2.44
'0:05.984',-2.27
'0:05.988',-2.08
'0:05.992',-2.05
'0:05.996',-2.08
'0:06.000',-1.6
'0:06.004',-1.05
'0:06.008',-1.47
'0:06.012',-2.42
'0:06.016',-2.91
'0:06.020',-2.68
'0:06.023',-1.95
'0:06.027',-1.48
'0:06.031',-0.61
'0:06.035',0.51
'0:06.039',2.31
'0:06.043',4.91
'0:06.047',7.65
'0:06.051',8.83
'0:06.055',6.74
'0:06.059',2
'0:06.063',-3.01
'0:06.066',-6.28
'0:06.070',-7.46
'0:06.074',-7.21
'0:06.078',-6.18
'0:06.082',-5.25
'0:06.086',-4.48
'0:06.090',-3.9
'0:06.094',-3.05
'0:06.098',-2.57
'0:06.102',-2.26
'0:06.105',-1.73
'0:06.109',-1.48
'0:06.113',-1.29
'0:06.117',-0.74
'0:06.121',-0.65
'0:06.125',-0.91
'0:06.129',-0.81
'0:06.133',-0.6
'0:06.137',-0.22
'0:06.141',0.05
'0:06.145',0.18
'0:06.148',0.14
'0:06.152',0.14
'0:06.156',0.25
'0:06.160',-0.2
'0:06.164',-0.55
'0:06.168',-0.35
'0:06.172',0.35
'0:06.176',0.89
'0:06.180',1.19
'0:06.184',1.5
'0:06.188',1.91
'0:06.191',2.37
'0:06.195',2.84
'0:06.199',3.18
'0:06.203',3.19
'0:06.207',3.27
'0:06.211',3.13
'0:06.215',3
'0:06.219',3
'0:06.223',2.91
'0:06.227',2.58
'0:06.230',2.21
'0:06.234',2.08
'0:06.238',1.87
'0:06.242',1.39
'0:06.246',0.69
'0:06.250',-0.11
'0:06.254',-0.66
'0:06.258',-0.89
'0:06.262',-0.93
'0:06.266',-0.69
'0:06.270',-0.56
'0:06.273',-0.6
'0:06.277',-0.88
'0:06.281',-1.01
'0:06.285',-0.97
'0:06.289',-0.61
'0:06.293',-0.04
'0:06.297',0.42
'0:06.301',0.52
'0:06.305',0.35
'0:06.309',0.31
'0:06.313',0.16
'0:06.316',0.03
'0:06.320',0.01
'0:06.324',-0.18
'0:06.328',-0.68
'0:06.332',-1.31
'0:06.336',-1.81
'0:06.340',-2.11
'0:06.344',-2.14
'0:06.348',-2.18
'0:06.352',-2.4
'0:06.355',-2.46
'0:06.359',-2.46
'0:06.363',-2.44
'0:06.367',-2.35
'0:06.371',-2.32
'0:06.375',-2.42
'0:06.379',-2.7
'0:06.383',-2.71
'0:06.387',-2.5
'0:06.391',-2.22
'0:06.395',-2.03
'0:06.398',-1.41
'0:06.402',-0.46
'0:06.406',1.19
'0:06.410',3.74
'0:06.414',6.43
'0:06.418',6.68
'0:06.422',3.77
'0:06.426',-0.64
'0:06.430',-4.44
'0:06.434',-6.64
'0:06.438',-7.08
'0:06.441',-6.42
'0:06.445',-5.65
'0:06.449',-4.79
'0:06.453',-3.68
'0:06.457',-2.64
'0:06.461',-1.99
'0:06.465',-1.66
'0:06.469',-1.4
'0:06.473',-1.1
'0:06.477',-0.77
'0:06.480',-0.26
'0:06.484',0.24
'0:06.488',0.41
'0:06.492',0.4
'0:06.496',0.29
'0:06.500',0.27
'0:06.504',0.34
'0:06.508',0.46
'0:06.512',0.58
'0:06.516',0.61
'0:06.520',0.56
'0:06.523',0.61
'0:06.527',0.75
'0:06.531',0.82
'0:06.535',0.88
'0:06.539',0.99
'0:06.543',1.08
'0:06.547',1.09
'0:06.551',1.28
'0:06.555',1.74
'0:06.559',2.18
'0:06.563',2.73
'0:06.566',3.09
'0:06.570',3.02
'0:06.574',2.98
'0:06.578',2.91
'0:06.582',2.34
'0:06.586',1.68
'0:06.590',1.33
'0:06.594',1.22
'0:06.598',0.99
'0:06.602',0.69
'0:06.605',0.51
'0:06.609',0.33
'0:06.613',-0.42
'0:06.617',-1.62
'0:06.621',-2.34
'0:06.625',-2.46
'0:06.629',-2.27
'0:06.633',-1.78
'0:06.637',-0.99
'0:06.641',-0.52
'0:06.645',-0.64
'0:06.648',-1.02
'0:06.652',-1.47
'0:06.656',-1.55
'0:06.660',-0.99
'0:06.664',-0.34
'0:06.668',0.09
'0:06.672',0.16
'0:06.676',-0.19
'0:06.680',-0.64
'0:06.684',-0.87
'0:06.688',-0.94
'0:06.691',-1.37
'0:06.695',-2.13
'0:06.699',-2.5
'0:06.703',-2.3
'0:06.707',-1.98
'0:06.711',-1.79
'0:06.715',-1.8
'0:06.719',-1.69
'0:06.723',-1.51
'0:06.727',-1.48
'0:06.730',-1.55
'0:06.734',-1.65
'0:06.738',-1.59
'0:06.742',-1.6
'0:06.746',-1.82
'0:06.750',-1.99
'0:06.754',-2.12
'0:06.758',-2.12
'0:06.762',-1.88
'0:06.766',-1.06
'0:06.770',0.45
'0:06.773',2.63
'0:06.777',5.31
'0:06.781',7.47
'0:06.785',7.16
'0:06.789',3.6
'0:06.793',-1.58
'0:06.797',-5.86
'0:06.801',-7.88
'0:06.805',-7.91
'0:06.809',-6.82
'0:06.813',-5.54
'0:06.816',-4.75
'0:06.820',-4.23
'0:06.824',-3.84
'0:06.828',-3.36
'0:06.832',-3.01
'0:06.836',-2.67
'0:06.840',-2.14
'0:06.844',-1.63
'0:06.848',-1.32
'0:06.852',-1.25
'0:06.855',-0.82
'0:06.859',-0.07
'0:06.863',0.2
'0:06.867',0.07
'0:06.871',0.04
'0:06.875',0.08
'0:06.879',-0.13
'0:06.883',-0.19
'0:06.887',-0.14
'0:06.891',0.23
'0:06.895',0.85
'0:06.898',1.54
'0:06.902',2.06
'0:06.906',2.08
'0:06.910',1.72
'0:06.914',1.49
'0:06.918',1.63
'0:06.922',1.8
'0:06.926',1.73
'0:06.930',2.01
'0:06.934',2.38
'0:06.938',2.85
'0:06.941',3.2
'0:06.945',3.22
'0:06.949',3.39
'0:06.953',3.26
'0:06.957',2.85
'0:06.961',2.42
'0:06.965',1.93
'0:06.969',1.18
'0:06.973',0.4
'0:06.977',-0.11
'0:06.980',-0.25
'0:06.984',-0.05
'0:06.988',-0.2
'0:06.992',-0.88
'0:06.996',-0.98
'0:07.000',-1.06
'0:07.004',-1.21
'0:07.008',-1.15
'0:07.012',-0.81
'0:07.016',-0.45
'0:07.020',-0.15
'0:07.023',-0.02
'0:07.027',0.1
'0:07.031',0.15
'0:07.035',0.15
'0:07.039',0.11
'0:07.043',-0.07
'0:07.047',0.11
'0:07.051',0.33
'0:07.055',0
'0:07.059',-0.52
'0:07.063',-0.98
'0:07.066',-1.34
'0:07.070',-1.57
'0:07.074',-1.75
'0:07.078',-1.87
'0:07.082',-2.2
'0:07.086',-2.47
'0:07.090',-2.49
'0:07.094',-2.25
'0:07.098',-1.81
'0:07.102',-1.63
'0:07.105',-1.74
'0:07.109',-1.85
'0:07.113',-1.8
'0:07.117',-1.85
'0:07.121',-1.86
'0:07.125',-1.6
'0:07.129',-0.86
'0:07.133',0.51
'0:07.137',2.22
'0:07.141',4.28
'0:07.145',6.86
'0:07.148',8.28
'0:07.152',6.26
'0:07.156',1.23
'0:07.160',-3.94
'0:07.164',-6.87
'0:07.168',-7.58
'0:07.172',-7.06
'0:07.176',-6.28
'0:07.180',-5.58
'0:07.184',-4.75
'0:07.188',-3.94
'0:07.191',-3.18
'0:07.195',-2.48
'0:07.199',-2.05
'0:07.203',-1.66
'0:07.207',-1.28
'0:07.211',-0.93
'0:07.215',-0.78
'0:07.219',-0.84
'0:07.223',-0.74
'0:07.227',-0.4
'0:07.230',0.03
'0:07.234',0.64
'0:07.238',1.09
'0:07.242',1.13
'0:07.246',0.96
'0:07.250',0.76
'0:07.254',0.66
'0:07.258',0.84
'0:07.262',1.27
'0:07.266',1.72
'0:07.270',1.83
'0:07.273',2.01
'0:07.277',2.43
'0:07.281',2.75
'0:07.285',2.97
'0:07.289',3.38
'0:07.293',3.67
'0:07.297',3.9
'0:07.301',4.14
'0:07.305',4.24
'0:07.309',4.29
'0:07.313',4.23
'0:07.316',4
'0:07.320',3.74
'0:07.324',3.35
'0:07.328',2.73
'0:07.332',2.12
'0:07.336',1.51
'0:07.340',1.12
'0:07.344',0.89
'0:07.348',0.71
'0:07.352',0.54
'0:07.355',0.45
'0:07.359',0.23
'0:07.363',0.05
'0:07.367',0.05
'0:07.371',0.03
'0:07.375',0.08
'0:07.379',0.23
'0:07.383',0.58
'0:07.387',0.83
'0:07.391',0.93
'0:07.395',0.86
'0:07.398',0.74
'0:07.402',0.71
'0:07.406',0.53
'0:07.410',0.4
'0:07.414',0.6
'0:07.418',1.01
'0:07.422',1.13
'0:07.426',0.49
'0:07.430',-0.34
'0:07.434',-0.68
'0:07.438',-0.68
'0:07.441',-0.84
'0:07.445',-1.2
'0:07.449',-1.55
'0:07.453',-1.86
'0:07.457',-1.73
'0:07.461',-1.74
'0:07.465',-2.22
'0:07.469',-2.69
'0:07.473',-2.88
'0:07.477',-3.14
'0:07.480',-3.03
'0:07.484',-2.53
'0:07.488',-1.89
'0:07.492',-1.03
'0:07.496',0.44
'0:07.500',2.24
'0:07.504',4.09
'0:07.508',6.3
'0:07.512',9.29
'0:07.516',10.11
'0:07.520',6.4
'0:07.523',0.22
'0:07.527',-4.59
'0:07.531',-6.43
'0:07.535',-6.37
'0:07.539',-5.85
'0:07.543',-5.52
'0:07.547',-5.27
'0:07.551',-4.64
'0:07.555',-3.38
'0:07.559',-2.26
'0:07.563',-1.5
'0:07.566',-1.05
'0:07.570',-0.81
'0:07.574',-0.68
'0:07.578',-0.31
'0:07.582',0.26
'0:07.586',0.87
'0:07.590',1.19
'0:07.594',1.25
'0:07.598',1.29
'0:07.602',1.25
'0:07.605',1.2
'0:07.609',1.41
'0:07.613',1.63
'0:07.617',1.54
'0:07.621',1.51
'0:07.625',1.61
'0:07.629',1.55
'0:07.633',1.51
'0:07.637',1.49
'0:07.641',1.79
'0:07.645',2.5
'0:07.648',3.43
'0:07.652',4.09
'0:07.656',4.24
'0:07.660',4.31
'0:07.664',4.84
'0:07.668',5.54
'0:07.672',5.5
'0:07.676',4.52
'0:07.680',4.14
'0:07.684',4.4
'0:07.688',4.16
'0:07.691',3.56
'0:07.695',2.87
'0:07.699',2.29
'0:07.703',1.56
'0:07.707',0.87
'0:07.711',0.32
'0:07.715',-0.03
'0:07.719',-0.47
'0:07.723',-1.01
'0:07.727',-0.61
'0:07.730',0.11
'0:07.734',0.27
'0:07.738',0.17
'0:07.742',0.71
'0:07.746',1.41
'0:07.750',1.49
'0:07.754',1.28
'0:07.758',1.1
'0:07.762',0.65
'0:07.766',0.12
'0:07.770',-0.08
'0:07.773',-0.07
'0:07.777',0.28
'0:07.781',0.74
'0:07.785',1.02
'0:07.789',1.4
'0:07.793',1.43
'0:07.797',0.64
'0:07.801',-0.45
'0:07.805',-1.18
'0:07.809',-1.34
'0:07.813',-1.57
'0:07.816',-1.82
'0:07.820',-2.06
'0:07.824',-2.07
'0:07.828',-1.81
'0:07.832',-1.36
'0:07.836',-1.05
'0:07.840',-1.26
'0:07.844',-1.54
'0:07.848',-1.78
'0:07.852',-1.69
'0:07.855',-1.12
'0:07.859',-0.31
'0:07.863',0.36
'0:07.867',0.99
'0:07.871',2.31
'0:07.875',4.4
'0:07.879',6.87
'0:07.883',8.56
'0:07.887',6.96
'0:07.891',2.35
'0:07.895',-2.74
'0:07.898',-5.9
'0:07.902',-6.92
'0:07.906',-6.53
'0:07.910',-5.44
'0:07.914',-4.64
'0:07.918',-3.83
'0:07.922',-2.86
'0:07.926',-1.97
'0:07.930',-1.39
'0:07.934',-1.12
'0:07.938',-1
'0:07.941',-0.71
'0:07.945',-0.75
'0:07.949',-0.8
'0:07.953',-0.74
'0:07.957',-0.49
'0:07.961',-0.22
'0:07.965',-0.09
'0:07.969',0.1
'0:07.973',0.27
'0:07.977',0.25
'0:07.980',0.38
'0:07.984',0.4
'0:07.988',0.76
'0:07.992',1.3
'0:07.996',1.98
'0:08.000',2.38
'0:08.004',2.09
'0:08.008',1.62
'0:08.012',1.91
'0:08.016',2.55
'0:08.020',2.75
'0:08.023',2.95
'0:08.027',3.31
'0:08.031',3.61
'0:08.035',3.71
'0:08.039',3.71
'0:08.043',3.71
'0:08.047',3.68
'0:08.051',3.7
'0:08.055',3.57
'0:08.059',3.25
'0:08.063',2.96
'0:08.066',2.66
'0:08.070',2.24
'0:08.074',1.74
'0:08.078',1.29
'0:08.082',0.77
'0:08.086',0.29
'0:08.090',-0.02
'0:08.094',-0.21
'0:08.098',-0.34
'0:08.102',-0.45
'0:08.105',-0.39
'0:08.109',-0.14
'0:08.113',-0.02
'0:08.117',0.07
'0:08.121',0.24
'0:08.125',0.41
'0:08.129',0.49
'0:08.133',0.38
'0:08.137',0.4
'0:08.141',0.46
'0:08.145',0.47
'0:08.148',0.18
'0:08.152',-0.3
'0:08.156',-0.52
'0:08.160',-0.77
'0:08.164',-1.28
'0:08.168',-1.79
'0:08.172',-2.27
'0:08.176',-2.47
'0:08.180',-2.6
'0:08.184',-2.76
'0:08.188',-2.75
'0:08.191',-2.66
'0:08.195',-2.51
'0:08.199',-2.55
'0:08.203',-2.75
'0:08.207',-2.78
'0:08.211',-2.61
'0:08.215',-2.54
'0:08.219',-2.54
'0:08.223',-2.58
'0:08.227',-2.34
'0:08.230',-1.93
'0:08.234',-1.22
'0:08.238',0.56
'0:08.242',3.36
'0:08.246',6.22
'0:08.250',7.26
'0:08.254',4.93
'0:08.258',0.48
'0:08.262',-4.12
'0:08.266',-7.12
'0:08.270',-8.64
'0:08.273',-8.89
'0:08.277',-7.97
'0:08.281',-6.73
'0:08.285',-5.58
'0:08.289',-4.39
'0:08.293',-3.03
'0:08.297',-2.22
'0:08.301',-2.05
'0:08.305',-1.95
'0:08.309',-2.08
'0:08.313',-2.15
'0:08.316',-2.04
'0:08.320',-1.85
'0:08.324',-1.39
'0:08.328',-1.2
'0:08.332',-0.89
'0:08.336',-0.3
'0:08.340',-0.28
'0:08.344',-0.46
'0:08.348',-0.11
'0:08.352',0.01
'0:08.355',0.07
'0:08.359',0.39
'0:08.363',0.67
'0:08.367',1.04
'0:08.371',1.64
'0:08.375',2.18
'0:08.379',2.62
'0:08.383',2.85
'0:08.387',2.88
'0:08.391',2.6
'0:08.395',2.41
'0:08.398',2.34
'0:08.402',2.46
'0:08.406',2.68
'0:08.410',2.82
'0:08.414',2.97
'0:08.418',3.09
'0:08.422',3.02
'0:08.426',2.98
'0:08.430',2.95
'0:08.434',2.61
'0:08.438',1.62
'0:08.441',0.58
'0:08.445',-0.01
'0:08.449',-0.14
'0:08.453',0.1
'0:08.457',-0.15
'0:08.461',-1.05
'0:08.465',-1.47
'0:08.469',-1.62
'0:08.473',-1.59
'0:08.477',-1.26
'0:08.480',-0.4
'0:08.484',0.19
'0:08.488',0.03
'0:08.492',-0.24
'0:08.496',-0.35
'0:08.500',-0.43
'0:08.504',-0.34
'0:08.508',0.08
'0:08.512',0.46
'0:08.516',0.4
'0:08.520',0.13
'0:08.523',-0.25
'0:08.527',-0.46
'0:08.531',-0.63
'0:08.535',-0.77
'0:08.539',-0.99
'0:08.543',-1.14
'0:08.547',-1.44
'0:08.551',-2.04
'0:08.555',-2.4
'0:08.559',-2.55
'0:08.563',-2.48
'0:08.566',-2.36
'0:08.570',-1.93
'0:08.574',-1.91
'0:08.578',-2.26
'0:08.582',-2.29
'0:08.586',-1.76
'0:08.590',-1.36
'0:08.594',-1.26
'0:08.598',-1.05
'0:08.602',-0.19
'0:08.605',1.78
'0:08.609',4.63
'0:08.613',7.85
'0:08.617',9.33
'0:08.621',6.88
'0:08.625',1.51
'0:08.629',-3.77
'0:08.633',-6.8
'0:08.637',-7.85
'0:08.641',-7.42
'0:08.645',-6.45
'0:08.648',-5.59
'0:08.652',-4.55
'0:08.656',-3.53
'0:08.660',-2.91
'0:08.664',-2.73
'0:08.668',-2.26
'0:08.672',-1.68
'0:08.676',-1.2
'0:08.680',-0.77
'0:08.684',-0.58
'0:08.688',-0.44
'0:08.691',-0.37
'0:08.695',-0.48
'0:08.699',-0.65
'0:08.703',-0.75
'0:08.707',-0.44
'0:08.711',-0.07
'0:08.715',0.41
'0:08.719',0.45
'0:08.723',0.38
'0:08.727',0.84
'0:08.730',1.15
'0:08.734',1.38
'0:08.738',1.4
'0:08.742',1.44
'0:08.746',1.53
'0:08.750',1.89
'0:08.754',2.36
'0:08.758',2.7
'0:08.762',2.88
'0:08.766',3
'0:08.770',3.01
'0:08.773',2.93
'0:08.777',2.98
'0:08.781',3.13
'0:08.785',3.07
'0:08.789',2.52
'0:08.793',1.86
'0:08.797',1.43
'0:08.801',1.15
'0:08.805',0.99
'0:08.809',0.62
'0:08.813',0.18
'0:08.816',-0.31
'0:08.820',-0.67
'0:08.824',-0.94
'0:08.828',-1.07
'0:08.832',-0.98
'0:08.836',-0.61
'0:08.840',-0.07
'0:08.844',0.01
'0:08.848',-0.23
'0:08.852',-0.52
'0:08.855',-0.56
'0:08.859',-0.34
'0:08.863',-0.28
'0:08.867',-0.01
'0:08.871',0.32
'0:08.875',0.35
'0:08.879',0.39
'0:08.883',0.23
'0:08.887',0.13
'0:08.891',0.05
'0:08.895',-0.06
'0:08.898',-0.38
'0:08.902',-0.81
'0:08.906',-1.16
'0:08.910',-1.26
'0:08.914',-1.17
'0:08.918',-1.17
'0:08.922',-1.1
'0:08.926',-0.67
'0:08.930',-0.22
'0:08.934',-0.39
'0:08.938',-0.94
'0:08.941',-1.36
'0:08.945',-1.36
'0:08.949',-1.17
'0:08.953',-1.21
'0:08.957',-1.19
'0:08.961',-0.85
'0:08.965',-0.32
'0:08.969',0.9
'0:08.973',3.23
'0:08.977',6.41
'0:08.980',9.36
'0:08.984',9.98
'0:08.988',6.7
'0:08.992',0.76
'0:08.996',-4.41
'0:09.000',-6.67
'0:09.004',-6.77
'0:09.008',-6.43
'0:09.012',-5.8
'0:09.016',-4.79
'0:09.020',-3.75
'0:09.023',-3.07
'0:09.027',-2.8
'0:09.031',-2.55
'0:09.035',-1.98
'0:09.039',-1.21
'0:09.043',-0.6
'0:09.047',-0.53
'0:09.051',-0.72
'0:09.055',-0.82
'0:09.059',-0.68
'0:09.063',-0.41
'0:09.066',0.05
'0:09.070',0.82
'0:09.074',1.63
'0:09.078',1.86
'0:09.082',1.4
'0:09.086',0.91
'0:09.090',0.78
'0:09.094',1.2
'0:09.098',1.54
'0:09.102',1.26
'0:09.105',0.86
'0:09.109',1.17
'0:09.113',1.63
'0:09.117',2.08
'0:09.121',2.57
'0:09.125',3.18
'0:09.129',3.96
'0:09.133',4.53
'0:09.137',4.73
'0:09.141',4.8
'0:09.145',4.78
'0:09.148',4.7
'0:09.152',4.47
'0:09.156',3.79
'0:09.160',2.91
'0:09.164',2.5
'0:09.168',2.39
'0:09.172',2.12
'0:09.176',1.52
'0:09.180',1.22
'0:09.184',1.32
'0:09.188',1.01
'0:09.191',0.03
'0:09.195',-0.79
'0:09.199',-1
'0:09.203',-0.47
'0:09.207',0.5
'0:09.211',1.04
'0:09.215',0.81
'0:09.219',0.4
'0:09.223',0.13
'0:09.227',0.26
'0:09.230',0.67
'0:09.234',0.97
'0:09.238',1.1
'0:09.242',1.6
'0:09.246',1.53
'0:09.250',0.49
'0:09.254',-0.18
'0:09.258',-0.29
'0:09.262',-0.38
'0:09.266',-0.94
'0:09.270',-1.46
'0:09.273',-1.67
'0:09.277',-1.8
'0:09.281',-1.85
'0:09.285',-1.65
'0:09.289',-1.34
'0:09.293',-0.93
'0:09.297',-0.75
'0:09.301',-1.16
'0:09.305',-1.68
'0:09.309',-1.72
'0:09.313',-1.44
'0:09.316',-1.34
'0:09.320',-1.09
'0:09.324',-0.85
'0:09.328',-0.28
'0:09.332',0.67
'0:09.336',1.71
'0:09.340',3.55
'0:09.344',6.13
'0:09.348',8.8
'0:09.352',9.55
'0:09.355',6.67
'0:09.359',1.19
'0:09.363',-3.9
'0:09.367',-6.64
'0:09.371',-7.09
'0:09.375',-6.59
'0:09.379',-6.04
'0:09.383',-5.46
'0:09.387',-4.71
'0:09.391',-3.96
'0:09.395',-3.22
'0:09.398',-2.62
'0:09.402',-2
'0:09.406',-1.49
'0:09.410',-1.07
'0:09.414',-0.96
'0:09.418',-0.83
'0:09.422',-0.78
'0:09.426',-0.61
'0:09.430',-0.18
'0:09.434',0.12
'0:09.438',0.31
'0:09.441',0.38
'0:09.445',0.25
'0:09.449',0.29
'0:09.453',0.41
'0:09.457',0.59
'0:09.461',0.81
'0:09.465',1.16
'0:09.469',1.54
'0:09.473',1.61
'0:09.477',1.75
'0:09.480',2.12
'0:09.484',2.41
'0:09.488',2.61
'0:09.492',2.81
'0:09.496',3.28
'0:09.500',3.61
'0:09.504',3.66
'0:09.508',3.52
'0:09.512',3.36
'0:09.516',3.31
'0:09.520',3.15
'0:09.523',2.88
'0:09.527',2.57
'0:09.531',2.25
'0:09.535',1.7
'0:09.539',1.15
'0:09.543',0.71
'0:09.547',0.25
'0:09.551',0.01
'0:09.555',-0.24
'0:09.559',-0.48
'0:09.563',-0.65
'0:09.566',-0.65
'0:09.570',-0.56
'0:09.574',-0.48
'0:09.578',-0.43
'0:09.582',-0.09
'0:09.586',0.43
'0:09.590',0.71
'0:09.594',0.52
'0:09.598',0.43
'0:09.602',0.27
'0:09.605',-0.04
'0:09.609',-0.33
'0:09.613',-0.58
'0:09.617',-0.78
'0:09.621',-1.09
'0:09.625',-1.07
'0:09.629',-0.85
'0:09.633',-1.11
'0:09.637',-1.72
'0:09.641',-1.92
'0:09.645',-1.75
'0:09.648',-1.61
'0:09.652',-1.75
'0:09.656',-1.94
'0:09.660',-1.95
'0:09.664',-1.78
'0:09.668',-1.63
'0:09.672',-1.89
'0:09.676',-2.35
'0:09.680',-2.2
'0:09.684',-1.62
'0:09.688',-1.24
'0:09.691',-1.27
'0:09.695',-1.21
'0:09.699',-0.71
'0:09.703',0.38
'0:09.707',1.91
'0:09.711',4.08
'0:09.715',6.7
'0:09.719',7.77
'0:09.723',5.75
'0:09.727',1.84
'0:09.730',-2.61
'0:09.734',-5.6
'0:09.738',-6.59
'0:09.742',-6.31
'0:09.746',-5.46
'0:09.750',-4.51
'0:09.754',-3.57
'0:09.758',-3.05
'0:09.762',-2.8
'0:09.766',-2.27
'0:09.770',-1.54
'0:09.773',-1.19
'0:09.777',-1.04
'0:09.781',-0.76
'0:09.785',-0.41
'0:09.789',-0.03
'0:09.793',0.27
'0:09.797',0.56
'0:09.801',0.82
'0:09.805',1.14
'0:09.809',1.46
'0:09.813',1.53
'0:09.816',1.34
'0:09.820',1.1
'0:09.824',1.15
'0:09.828',1.34
'0:09.832',1.27
'0:09.836',1.18
'0:09.840',1.25
'0:09.844',1.34
'0:09.848',1.46
'0:09.852',1.7
'0:09.855',1.9
'0:09.859',2
'0:09.863',2.17
'0:09.867',2.58
'0:09.871',3.36
'0:09.875',3.88
'0:09.879',3.74
'0:09.883',3.51
'0:09.887',3.61
'0:09.891',3.47
'0:09.895',2.99
'0:09.898',2.32
'0:09.902',1.81
'0:09.906',1.4
'0:09.910',0.95
'0:09.914',0.51
'0:09.918',0.3
'0:09.922',-0.11
'0:09.926',-0.47
'0:09.930',-0.8
'0:09.934',-1.62
'0:09.938',-2.31
'0:09.941',-2.38
'0:09.945',-1.78
'0:09.949',-1.32
'0:09.953',-0.99
'0:09.957',-0.47
'0:09.961',-0.17
'0:09.965',-0.26
'0:09.969',-0.42
'0:09.973',-0.02
'0:09.977',0.59
'0:09.980',0.74
'0:09.984',0.2
'0:09.988',-0.43
'0:09.992',-1.21
'0:09.996',-2.23
'0:10.000',-2.79
'0:10.004',-2.63
'0:10.008',-2.15
'0:10.012',-1.84
'0:10.016',-1.73
'0:10.020',-1.7
'0:10.023',-1.82
'0:10.027',-2.07
'0:10.031',-2.09
'0:10.035',-1.44
'0:10.039',-1.23
'0:10.043',-2.3
'0:10.047',-3.33
'0:10.051',-3.5
'0:10.055',-3.01
'0:10.059',-2.7
'0:10.063',-2.46
'0:10.066',-1.92
'0:10.070',-0.71
'0:10.074',1.53
'0:10.078',4.32
'0:10.082',7.03
'0:10.086',8.05
'0:10.090',5.75
'0:10.094',0.78
'0:10.098',-4.09
'0:10.102',-6.85
'0:10.105',-7.45
'0:10.109',-6.89
'0:10.113',-5.81
'0:10.117',-4.68
'0:10.121',-3.56
'0:10.125',-2.73
'0:10.129',-2.46
'0:10.133',-2.53
'0:10.137',-2.29
'0:10.141',-2.09
'0:10.145',-1.78
'0:10.148',-1.42
'0:10.152',-1.34
'0:10.156',-1.29
'0:10.160',-1.26
'0:10.164',-0.97
'0:10.168',-0.82
'0:10.172',-0.79
'0:10.176',-0.65
'0:10.180',-0.24
'0:10.184',0.25
'0:10.188',0.6
'0:10.191',0.78
'0:10.195',0.59
'0:10.199',0.4
'0:10.203',0.42
'0:10.207',0.66
'0:10.211',0.95
'0:10.215',1.22
'0:10.219',1.68
'0:10.223',2.21
'0:10.227',2.59
'0:10.230',2.8
'0:10.234',2.95
'0:10.238',3.13
'0:10.242',3.39
'0:10.246',3.56
'0:10.250',3.58
'0:10.254',3.36
'0:10.258',3.01
'0:10.262',2.67
'0:10.266',2.19
'0:10.270',1.63
'0:10.273',0.94
'0:10.277',0.45
'0:10.281',0.13
'0:10.285',-0.31
'0:10.289',-0.43
'0:10.293',-0.58
'0:10.297',-0.83
'0:10.301',-1.02
'0:10.305',-0.77
'0:10.309',-0.11
'0:10.313',0.05
'0:10.316',-0.24
'0:10.320',-0.38
'0:10.324',-0.33
'0:10.328',-0.17
'0:10.332',0.06
'0:10.336',0.16
'0:10.340',0.15
'0:10.344',-0.05
'0:10.348',-0.19
'0:10.352',-0.56
'0:10.355',-1.06
'0:10.359',-1.29
'0:10.363',-1.62
'0:10.367',-1.78
'0:10.371',-2.12
'0:10.375',-2.5
'0:10.379',-2.57
'0:10.383',-2.31
'0:10.387',-2.04
'0:10.391',-2.12
'0:10.395',-2.46
'0:10.398',-2.82
'0:10.402',-2.83
'0:10.406',-2.78
'0:10.410',-2.6
'0:10.414',-2.43
'0:10.418',-2.08
'0:10.422',-1.97
'0:10.426',-1.9
'0:10.430',-1.6
'0:10.434',-0.87
'0:10.438',0.78
'0:10.441',3.29
'0:10.445',6.43
'0:10.449',8.88
'0:10.453',8.16
'0:10.457',3.46
'0:10.461',-2.23
'0:10.465',-5.64
'0:10.469',-6.67
'0:10.473',-6.87
'0:10.477',-6.72
'0:10.480',-6.05
'0:10.484',-5.21
'0:10.488',-4.35
'0:10.492',-3.46
'0:10.496',-3.03
'0:10.500',-2.7
'0:10.504',-2.16
'0:10.508',-1.49
'0:10.512',-0.87
'0:10.516',-0.53
'0:10.520',-0.16
'0:10.523',0.35
'0:10.527',0.48
'0:10.531',0.32
'0:10.535',0.2
'0:10.539',0.1
'0:10.543',0.13
'0:10.547',0.98
'0:10.551',1.92
'0:10.555',2.12
'0:10.559',1.56
'0:10.563',0.59
'0:10.566',0.28
'0:10.570',0.9
'0:10.574',1.22
'0:10.578',1.34
'0:10.582',1.27
'0:10.586',1.47
'0:10.590',2.18
'0:10.594',3.11
'0:10.598',3.65
'0:10.602',3.41
'0:10.605',3.49
'0:10.609',3.83
'0:10.613',3.49
'0:10.617',2.69
'0:10.621',2.47
'0:10.625',2.36
'0:10.629',2.15
'0:10.633',2.39
'0:10.637',2.15
'0:10.641',1.59
'0:10.645',1.7
'0:10.648',1.21
'0:10.652',0.09
'0:10.656',-0.85
'0:10.660',-1.55
'0:10.664',-2.07
'0:10.668',-2.26
'0:10.672',-1.9
'0:10.676',-1.72
'0:10.680',-1.36
'0:10.684',-0.61
'0:10.688',0.1
'0:10.691',0.69
'0:10.695',1.08
'0:10.699',1.24
'0:10.703',1.29
'0:10.707',1.34
'0:10.711',0.96
'0:10.715',0.2
'0:10.719',-0.43
'0:10.723',-0.85
'0:10.727',-1.46
'0:10.730',-1.84
'0:10.734',-1.63
'0:10.738',-1.36
'0:10.742',-1.43
'0:10.746',-1.53
'0:10.750',-1.63
'0:10.754',-1.9
'0:10.758',-2.14
'0:10.762',-2.05
'0:10.766',-1.54
'0:10.770',-0.9
'0:10.773',-0.53
'0:10.777',-0.75
'0:10.781',-0.96
'0:10.785',-0.92
'0:10.789',-0.62
'0:10.793',-0.04
'0:10.797',0.59
'0:10.801',1.5
'0:10.805',3.22
'0:10.809',5.53
'0:10.813',8.07
'0:10.816',8.66
'0:10.820',5.62
'0:10.824',0.05
'0:10.828',-4.45
'0:10.832',-6.25
'0:10.836',-6.05
'0:10.840',-5.28
'0:10.844',-4.73
'0:10.848',-4.23
'0:10.852',-3.7
'0:10.855',-3.18
'0:10.859',-2.51
'0:10.863',-1.76
'0:10.867',-1.32
'0:10.871',-1.21
'0:10.875',-1.36
'0:10.879',-1.09
'0:10.883',-0.46
'0:10.887',0.25
'0:10.891',0.28
'0:10.895',-0.07
'0:10.898',-0.26
'0:10.902',-0.31
'0:10.906',0.1
'0:10.910',0.59
'0:10.914',1
'0:10.918',1.34
'0:10.922',1.58
'0:10.926',1.66
'0:10.930',1.71
'0:10.934',1.77
'0:10.938',2.08
'0:10.941',2.56
'0:10.945',2.93
'0:10.949',3.14
'0:10.953',3.34
'0:10.957',3.97
'0:10.961',4.75
'0:10.965',5
'0:10.969',4.63
'0:10.973',4.02
'0:10.977',3.6
'0:10.980',3.41
'0:10.984',3.39
'0:10.988',3.08
'0:10.992',2.78
'0:10.996',2.42
'0:11.000',1.88
'0:11.004',1.5
'0:11.008',1.1
'0:11.012',0.42
'0:11.016',-0.26
'0:11.020',-0.58
'0:11.023',-0.69
'0:11.027',-0.8
'0:11.031',-0.97
'0:11.035',-0.81
'0:11.039',-0.49
'0:11.043',-0.26
'0:11.047',-0.02
'0:11.051',0.47
'0:11.055',0.92
'0:11.059',0.97
'0:11.063',0.73
'0:11.066',0.34
'0:11.070',0.18
'0:11.074',0.33
'0:11.078',0.49
'0:11.082',0.4
'0:11.086',0.42
'0:11.090',0.17
'0:11.094',-0.27
'0:11.098',-0.75
'0:11.102',-1.17
'0:11.105',-1.46
'0:11.109',-1.68
'0:11.113',-1.76
'0:11.117',-1.8
'0:11.121',-1.86
'0:11.125',-1.93
'0:11.129',-2.12
'0:11.133',-2.19
'0:11.137',-2.09
'0:11.141',-2.09
'0:11.145',-2.04
'0:11.148',-1.85
'0:11.152',-1.73
'0:11.156',-1.56
'0:11.160',-1.21
'0:11.164',-0.61
'0:11.168',0.54
'0:11.172',2.57
'0:11.176',5.4
'0:11.180',8.31
'0:11.184',9.46
'0:11.188',6.85
'0:11.191',1.28
'0:11.195',-4.05
'0:11.199',-6.86
'0:11.203',-7.74
'0:11.207',-7.37
'0:11.211',-6.38
'0:11.215',-5.21
'0:11.219',-4.34
'0:11.223',-3.5
'0:11.227',-2.72
'0:11.230',-2.07
'0:11.234',-1.56
'0:11.238',-1.22
'0:11.242',-0.98
'0:11.246',-0.61
'0:11.250',-0.46
'0:11.254',-0.58
'0:11.258',-0.6
'0:11.262',-0.46
'0:11.266',-0.43
'0:11.270',-0.38
'0:11.273',-0.22
'0:11.277',0
'0:11.281',0.08
'0:11.285',0.2
'0:11.289',0.35
'0:11.293',0.43
'0:11.297',0.76
'0:11.301',1.2
'0:11.305',1.61
'0:11.309',1.97
'0:11.313',2.17
'0:11.316',2.46
'0:11.320',2.67
'0:11.324',2.95
'0:11.328',3.34
'0:11.332',3.43
'0:11.336',3.32
'0:11.340',3.29
'0:11.344',3.2
'0:11.348',3.33
'0:11.352',3.44
'0:11.355',3.31
'0:11.359',3.01
'0:11.363',2.8
'0:11.367',2.47
'0:11.371',1.87
'0:11.375',1.19
'0:11.379',0.58
'0:11.383',0.16
'0:11.387',-0.33
'0:11.391',-0.6
'0:11.395',-0.28
'0:11.398',0
'0:11.402',-0.07
'0:11.406',0.16
'0:11.410',0.5
'0:11.414',0.97
'0:11.418',1.15
'0:11.422',0.71
'0:11.426',0.08
'0:11.430',-0.39
'0:11.434',-0.34
'0:11.438',0.05
'0:11.441',0.37
'0:11.445',0.4
'0:11.449',0.27
'0:11.453',0.05
'0:11.457',-0.41
'0:11.461',-0.87
'0:11.465',-0.66
'0:11.469',-0.34
'0:11.473',-0.49
'0:11.477',-0.95
'0:11.480',-1.66
'0:11.484',-2.34
'0:11.488',-2.56
'0:11.492',-2.53
'0:11.496',-2.35
'0:11.500',-2.26
'0:11.504',-2.21
'0:11.508',-2.41
'0:11.512',-2.56
'0:11.516',-2.44
'0:11.520',-2.21
'0:11.523',-1.75
'0:11.527',-0.89
'0:11.531',0.05
'0:11.535',0.89
'0:11.539',2.52
'0:11.543',4.52
'0:11.547',6.87
'0:11.551',7.59
'0:11.555',5.37
'0:11.559',1.34
'0:11.563',-2.65
'0:11.566',-5.58
'0:11.570',-6.89
'0:11.574',-6.56
'0:11.578',-5.46
'0:11.582',-4.62
'0:11.586',-3.56
'0:11.590',-2.71
'0:11.594',-2.41
'0:11.598',-2.1
'0:11.602',-1.55
'0:11.605',-0.95
'0:11.609',-0.63
'0:11.613',-0.6
'0:11.617',-0.5
'0:11.621',0.09
'0:11.625',0.41
'0:11.629',0.32
'0:11.633',0.64
'0:11.637',1.26
'0:11.641',1.54
'0:11.645',1.51
'0:11.648',0.95
'0:11.652',0.44
'0:11.656',0.33
'0:11.660',0.37
'0:11.664',0.67
'0:11.668',1.29
'0:11.672',2
'0:11.676',2.53
'0:11.680',2.68
'0:11.684',2.14
'0:11.688',2
'0:11.691',2.54
'0:11.695',3.56
'0:11.699',4.06
'0:11.703',3.87
'0:11.707',3.73
'0:11.711',3.8
'0:11.715',3.8
'0:11.719',3.71
'0:11.723',3.53
'0:11.727',3.15
'0:11.730',2.66
'0:11.734',2.29
'0:11.738',2.19
'0:11.742',2.29
'0:11.746',1.95
'0:11.750',1.29
'0:11.754',0.48
'0:11.758',-0.19
'0:11.762',-0.58
'0:11.766',-0.9
'0:11.770',-1.27
'0:11.773',-1.21
'0:11.777',-0.78
'0:11.781',-0.42
'0:11.785',-0.17
'0:11.789',-0.22
'0:11.793',-0.27
'0:11.797',-0.16
'0:11.801',-0.14
'0:11.805',-0.12
'0:11.809',0.12
'0:11.813',0.2
'0:11.816',-0.13
'0:11.820',-0.41
'0:11.824',-0.85
'0:11.828',-1.58
'0:11.832',-2.39
'0:11.836',-3.12
'0:11.840',-3.31
'0:11.844',-3.38
'0:11.848',-3.44
'0:11.852',-3.53
'0:11.855',-3.6
'0:11.859',-3.5
'0:11.863',-3.19
'0:11.867',-3.02
'0:11.871',-3.09
'0:11.875',-3.11
'0:11.879',-2.97
'0:11.883',-2.81
'0:11.887',-2.86
'0:11.891',-2.74
'0:11.895',-2.29
'0:11.898',-1.45
'0:11.902',-0.2
'0:11.906',1.55
'0:11.910',3.74
'0:11.914',6
'0:11.918',6.03
'0:11.922',2.87
'0:11.926',-1.76
'0:11.930',-5.71
'0:11.934',-7.84
'0:11.938',-8.19
'0:11.941',-7.57
'0:11.945',-6.7
'0:11.949',-5.89
'0:11.953',-5.01
'0:11.957',-4.28
'0:11.961',-3.65
'0:11.965',-3.14
'0:11.969',-2.83
'0:11.973',-2.48
'0:11.977',-2.17
'0:11.980',-1.77
'0:11.984',-1.48
'0:11.988',-1.35
'0:11.992',-1.24
'0:11.996',-1.07
'0:12.000',-0.99
'0:12.004',-1.02
'0:12.008',-0.92
'0:12.012',-0.79
'0:12.016',-0.61
'0:12.020',-0.49
'0:12.023',-0.36
'0:12.027',-0.14
'0:12.031',-0.02
'0:12.035',0.08
'0:12.039',0.4
'0:12.043',0.71
'0:12.047',1.12
'0:12.051',1.54
'0:12.055',1.9
'0:12.059',2.02
'0:12.063',2.03
'0:12.066',2.19
'0:12.070',2.43
'0:12.074',2.69
'0:12.078',2.61
'0:12.082',2.34
'0:12.086',2.25
'0:12.090',2.25
'0:12.094',2.08
'0:12.098',1.8
'0:12.102',1.31
'0:12.105',0.71
'0:12.109',0.25
'0:12.113',-0.27
'0:12.117',-0.87
'0:12.121',-1.16
'0:12.125',-1.12
'0:12.129',-0.97
'0:12.133',-0.96
'0:12.137',-1.26
'0:12.141',-1.32
'0:12.145',-1.07
'0:12.148',-0.65
'0:12.152',-0.16
'0:12.156',0.09
'0:12.160',0.34
'0:12.164',0.37
'0:12.168',0.27
'0:12.172',0.18
'0:12.176',0.15
'0:12.180',0.08
'0:12.184',-0.22
'0:12.188',-0.55
'0:12.191',-0.92
'0:12.195',-1.33
'0:12.199',-1.73
'0:12.203',-2.04
'0:12.207',-2.16
'0:12.211',-2.28
'0:12.215',-2.29
'0:12.219',-2.17
'0:12.223',-1.84
'0:12.227',-1.35
'0:12.230',-1.29
'0:12.234',-2.12
'0:12.238',-2.8
'0:12.242',-3.04
'0:12.246',-2.99
'0:12.250',-2.77
'0:12.254',-2.72
'0:12.258',-2.41
'0:12.262',-1.72
'0:12.266',-0.82
'0:12.270',1.19
'0:12.273',4.62
'0:12.277',8.01
'0:12.281',8.93
'0:12.285',5.92
'0:12.289',0.52
'0:12.293',-4.26
'0:12.297',-7.26
'0:12.301',-8.3
'0:12.305',-7.88
'0:12.309',-7.43
'0:12.313',-6.81
'0:12.316',-5.84
'0:12.320',-4.6
'0:12.324',-3.18
'0:12.328',-1.92
'0:12.332',-1.12
'0:12.336',-0.51
'0:12.340',0.12
'0:12.344',0.15
'0:12.348',0.06
'0:12.352',-0.07
'0:12.355',-0.25
'0:12.359',-0.34
'0:12.363',-0.5
'0:12.367',-0.58
'0:12.371',0.25
'0:12.375',1.27
'0:12.379',1.68
'0:12.383',1.9
'0:12.387',2.26
'0:12.391',2.04
'0:12.395',1.59
'0:12.398',1.17
'0:12.402',0.95
'0:12.406',1.05
'0:12.410',1.44
'0:12.414',2.15
'0:12.418',2.99
'0:12.422',3.36
'0:12.426',3.49
'0:12.430',3.85
'0:12.434',3.73
'0:12.438',3.2
'0:12.441',3.18
'0:12.445',3.36
'0:12.449',3.66
'0:12.453',3.86
'0:12.457',3.31
'0:12.461',2.15
'0:12.465',1.15
'0:12.469',0.03
'0:12.473',-0.53
'0:12.477',-0.95
'0:12.480',-1.41
'0:12.484',-1.56
'0:12.488',-1.78
'0:12.492',-1.57
'0:12.496',-0.67
'0:12.500',0.33
'0:12.504',0.79
'0:12.508',0.71
'0:12.512',0.56
'0:12.516',0.64
'0:12.520',1.03
'0:12.523',1.44
'0:12.527',1.39
'0:12.531',0.64
'0:12.535',-0.04
'0:12.539',-0.39
'0:12.543',-0.73
'0:12.547',-0.58
'0:12.551',-0.16
'0:12.555',-0.04
'0:12.559',-0.09
'0:12.563',-0.25
'0:12.566',-0.56
'0:12.570',-0.83
'0:12.574',-0.93
'0:12.578',-1.19
'0:12.582',-1.43
'0:12.586',-1.67
'0:12.590',-1.58
'0:12.594',-1.19
'0:12.598',-1.22
'0:12.602',-1.68
'0:12.605',-2.11
'0:12.609',-2.38
'0:12.613',-2.38
'0:12.617',-2.24
'0:12.621',-2.02
'0:12.625',-1.74
'0:12.629',-0.94
'0:12.633',1.01
'0:12.637',4.19
'0:12.641',7.44
'0:12.645',9.06
'0:12.648',7.41
'0:12.652',2.79
'0:12.656',-2.46
'0:12.660',-5.99
'0:12.664',-7.42
'0:12.668',-7.42
'0:12.672',-6.44
'0:12.676',-5.09
'0:12.680',-4.16
'0:12.684',-3.52
'0:12.688',-2.65
'0:12.691',-2.27
'0:12.695',-2.14
'0:12.699',-1.8
'0:12.703',-1.36
'0:12.707',-0.97
'0:12.711',-0.83
'0:12.715',-0.59
'0:12.719',-0.36
'0:12.723',-0.16
'0:12.727',-0.05
'0:12.730',0.07
'0:12.734',0.17
'0:12.738',0.37
'0:12.742',0.61
'0:12.746',0.82
'0:12.750',0.93
'0:12.754',1.17
'0:12.758',1.45
'0:12.762',1.71
'0:12.766',1.86
'0:12.770',2.12
'0:12.773',2.25
'0:12.777',2.25
'0:12.781',2.3
'0:12.785',2.45
'0:12.789',2.71
'0:12.793',2.91
'0:12.797',3.15
'0:12.801',3.47
'0:12.805',3.68
'0:12.809',3.78
'0:12.813',3.72
'0:12.816',3.43
'0:12.820',2.93
'0:12.824',2.38
'0:12.828',1.87
'0:12.832',1.26
'0:12.836',0.56
'0:12.840',0.04
'0:12.844',-0.17
'0:12.848',-0.38
'0:12.852',-0.54
'0:12.855',-0.73
'0:12.859',-0.89
'0:12.863',-0.98
'0:12.867',-0.96
'0:12.871',-0.8
'0:12.875',-0.63
'0:12.879',-0.49
'0:12.883',-0.38
'0:12.887',-0.16
'0:12.891',0.13
'0:12.895',0.42
'0:12.898',0.66
'0:12.902',0.95
'0:12.906',0.88
'0:12.910',0.39
'0:12.914',-0.14
'0:12.918',0.04
'0:12.922',0.02
'0:12.926',-0.51
'0:12.930',-1.16
'0:12.934',-1.65
'0:12.938',-1.75
'0:12.941',-1.8
'0:12.945',-1.92
'0:12.949',-2.06
'0:12.953',-2.02
'0:12.957',-1.9
'0:12.961',-1.88
'0:12.965',-1.85
'0:12.969',-1.85
'0:12.973',-1.75
'0:12.977',-1.61
'0:12.980',-1.36
'0:12.984',-1.23
'0:12.988',-1.07
'0:12.992',-0.53
'0:12.996',0.21
'0:13.000',1.86
'0:13.004',5.11
'0:13.008',8.53
'0:13.012',9.8
'0:13.016',7.35
'0:13.020',2.3
'0:13.023',-2.85
'0:13.027',-6.16
'0:13.031',-7.31
'0:13.035',-7.13
'0:13.039',-6.3
'0:13.043',-5.38
'0:13.047',-4.62
'0:13.051',-3.7
'0:13.055',-2.94
'0:13.059',-2.45
'0:13.063',-1.99
'0:13.066',-1.18
'0:13.070',-0.61
'0:13.074',-0.85
'0:13.078',-1.34
'0:13.082',-1.62
'0:13.086',-1.6
'0:13.090',-1.09
'0:13.094',-0.3
'0:13.098',0.32
'0:13.102',0.37
'0:13.105',0.11
'0:13.109',0
'0:13.113',0.36
'0:13.117',1.12
'0:13.121',1.65
'0:13.125',1.68
'0:13.129',1.37
'0:13.133',1.37
'0:13.137',2.1
'0:13.141',3.02
'0:13.145',3.36
'0:13.148',3.22
'0:13.152',2.96
'0:13.156',2.71
'0:13.160',2.58
'0:13.164',2.71
'0:13.168',2.98
'0:13.172',3.42
'0:13.176',3.64
'0:13.180',3.73
'0:13.184',3.67
'0:13.188',3.61
'0:13.191',3.17
'0:13.195',2.69
'0:13.199',2.22
'0:13.203',1.83
'0:13.207',1.51
'0:13.211',1.35
'0:13.215',1.17
'0:13.219',0.83
'0:13.223',0.45
'0:13.227',0.54
'0:13.230',0.68
'0:13.234',0.22
'0:13.238',-0.53
'0:13.242',-0.95
'0:13.246',-0.96
'0:13.250',-0.73
'0:13.254',-0.38
'0:13.258',0.25
'0:13.262',1.22
'0:13.266',1.8
'0:13.270',1.76
'0:13.273',1.46
'0:13.277',0.81
'0:13.281',-0.1
'0:13.285',-0.9
'0:13.289',-1.48
'0:13.293',-1.82
'0:13.297',-1.76
'0:13.301',-1.82
'0:13.305',-1.97
'0:13.309',-1.75
'0:13.313',-1.24
'0:13.316',-1.13
'0:13.320',-1.46
'0:13.324',-1.6
'0:13.328',-1.65
'0:13.332',-1.38
'0:13.336',-0.67
'0:13.340',-0.02
'0:13.344',0.2
'0:13.348',0.22
'0:13.352',-0.1
'0:13.355',-0.42
'0:13.359',-0.26
'0:13.363',0.74
'0:13.367',2.99
'0:13.371',5.62
'0:13.375',7.28
'0:13.379',6.56
'0:13.383',3.03
'0:13.387',-1.7
'0:13.391',-5.75
'0:13.395',-7.49
'0:13.398',-7.2
'0:13.402',-6.01
'0:13.406',-4.73
'0:13.410',-3.65
'0:13.414',-3.07
'0:13.418',-2.62
'0:13.422',-1.99
'0:13.426',-1.02
'0:13.430',-0.46
'0:13.434',-0.17
'0:13.438',0.25
'0:13.441',0.32
'0:13.445',0.1
'0:13.449',-0.06
'0:13.453',0.01
'0:13.457',0.15
'0:13.461',0.34
'0:13.465',0.86
'0:13.469',1.09
'0:13.473',1.16
'0:13.477',1.25
'0:13.480',1.35
'0:13.484',1.57
'0:13.488',1.78
'0:13.492',1.95
'0:13.496',2.18
'0:13.500',2.38
'0:13.504',2.58
'0:13.508',2.86
'0:13.512',3.1
'0:13.516',3.32
'0:13.520',3.56
'0:13.523',3.76
'0:13.527',3.85
'0:13.531',3.9
'0:13.535',3.85
'0:13.539',3.82
'0:13.543',3.59
'0:13.547',3.26
'0:13.551',2.93
'0:13.555',2.59
'0:13.559',2.22
'0:13.563',1.66
'0:13.566',1.05
'0:13.570',0.46
'0:13.574',-0.02
'0:13.578',-0.36
'0:13.582',-0.61
'0:13.586',-0.76
'0:13.590',-0.75
'0:13.594',-0.82
'0:13.598',-0.9
'0:13.602',-0.87
'0:13.605',-0.63
'0:13.609',-0.21
'0:13.613',0.03
'0:13.617',0.08
'0:13.621',0.14
'0:13.625',0.12
'0:13.629',-0.07
'0:13.633',-0.39
'0:13.637',-0.75
'0:13.641',-1.09
'0:13.645',-1.34
'0:13.648',-1.7
'0:13.652',-2
'0:13.656',-2.12
'0:13.660',-2.14
'0:13.664',-1.97
'0:13.668',-1.88
'0:13.672',-2.01
'0:13.676',-2.49
'0:13.680',-2.93
'0:13.684',-3.09
'0:13.688',-2.85
'0:13.691',-2.44
'0:13.695',-2.24
'0:13.699',-2.46
'0:13.703',-2.7
'0:13.707',-2.51
'0:13.711',-2.29
'0:13.715',-1.99
'0:13.719',-1.55
'0:13.723',-0.52
'0:13.727',1.24
'0:13.730',3.28
'0:13.734',5.15
'0:13.738',6.88
'0:13.742',7.11
'0:13.746',4.48
'0:13.750',0.02
'0:13.754',-4.47
'0:13.758',-7.33
'0:13.762',-8.13
'0:13.766',-7.64
'0:13.770',-6.58
'0:13.773',-5.52
'0:13.777',-4.4
'0:13.781',-3.2
'0:13.785',-2.01
'0:13.789',-1.22
'0:13.793',-1.25
'0:13.797',-1.71
'0:13.801',-1.9
'0:13.805',-1.55
'0:13.809',-1.34
'0:13.813',-1.39
'0:13.816',-1.41
'0:13.820',-1.46
'0:13.824',-1.34
'0:13.828',-1.06
'0:13.832',-0.8
'0:13.836',-0.49
'0:13.840',0.11
'0:13.844',0.64
'0:13.848',0.91
'0:13.852',1.02
'0:13.855',1.26
'0:13.859',1.34
'0:13.863',1.09
'0:13.867',0.99
'0:13.871',1.32
'0:13.875',1.86
'0:13.879',2.19
'0:13.883',2.46
'0:13.887',2.78
'0:13.891',3.11
'0:13.895',3.39
'0:13.898',3.53
'0:13.902',3.42
'0:13.906',3.37
'0:13.910',3.56
'0:13.914',3.58
'0:13.918',3.34
'0:13.922',3
'0:13.926',2.63
'0:13.930',2.13
'0:13.934',1.7
'0:13.938',1.56
'0:13.941',1.78
'0:13.945',1.61
'0:13.949',0.56
'0:13.953',-0.42
'0:13.957',-0.53
'0:13.961',-0.39
'0:13.965',-0.66
'0:13.969',-0.57
'0:13.973',0.01
'0:13.977',0.45
'0:13.980',0.78
'0:13.984',0.88
'0:13.988',0.95
'0:13.992',1.11
'0:13.996',1.15
'0:14.000',1.03
'0:14.004',0.83
'0:14.008',0.49
'0:14.012',0.19
'0:14.016',0.16
'0:14.020',0.19
'0:14.023',0.02
'0:14.027',-0.38
'0:14.031',-1.01
'0:14.035',-2.1
'0:14.039',-2.72
'0:14.043',-2.45
'0:14.047',-1.94
'0:14.051',-1.7
'0:14.055',-1.7
'0:14.059',-1.97
'0:14.063',-2.24
'0:14.066',-2.33
'0:14.070',-2.34
'0:14.074',-1.95
'0:14.078',-1.58
'0:14.082',-1.16
'0:14.086',-0.23
'0:14.090',1.53
'0:14.094',4.09
'0:14.098',7.1
'0:14.102',9.38
'0:14.105',9.47
'0:14.109',5.87
'0:14.113',0.12
'0:14.117',-4.5
'0:14.121',-6.82
'0:14.125',-7.3
'0:14.129',-6.6
'0:14.133',-5.68
'0:14.137',-5.01
'0:14.141',-4.21
'0:14.145',-3.38
'0:14.148',-2.67
'0:14.152',-1.92
'0:14.156',-1.55
'0:14.160',-1.36
'0:14.164',-0.97
'0:14.168',-0.8
'0:14.172',-0.65
'0:14.176',-0.58
'0:14.180',-0.82
'0:14.184',-0.92
'0:14.188',-0.83
'0:14.191',-0.72
'0:14.195',-0.33
'0:14.199',0.16
'0:14.203',0.6
'0:14.207',0.97
'0:14.211',1
'0:14.215',0.91
'0:14.219',1.32
'0:14.223',1.61
'0:14.227',1.69
'0:14.230',1.68
'0:14.234',1.9
'0:14.238',2.2
'0:14.242',2.54
'0:14.246',2.83
'0:14.250',3.65
'0:14.254',3.88
'0:14.258',3.76
'0:14.262',3.58
'0:14.266',3.47
'0:14.270',3.71
'0:14.273',3.88
'0:14.277',4.02
'0:14.281',3.82
'0:14.285',2.72
'0:14.289',1.72
'0:14.293',1.39
'0:14.297',1.29
'0:14.301',0.54
'0:14.305',-0.04
'0:14.309',-0.04
'0:14.313',0.13
'0:14.316',-0.05
'0:14.320',-0.14
'0:14.324',-0.13
'0:14.328',0.35
'0:14.332',0.63
'0:14.336',0.58
'0:14.340',0.51
'0:14.344',0.18
'0:14.348',0.16
'0:14.352',0.57
'0:14.355',0.87
'0:14.359',0.65
'0:14.363',0.1
'0:14.367',0.55
'0:14.371',1.2
'0:14.375',0.88
'0:14.379',-0.19
'0:14.383',-1.1
'0:14.387',-1.71
'0:14.391',-1.87
'0:14.395',-1.56
'0:14.398',-1.57
'0:14.402',-1.43
'0:14.406',-1.41
'0:14.410',-1.57
'0:14.414',-1.22
'0:14.418',-1.46
'0:14.422',-2.15
'0:14.426',-2.41
'0:14.430',-2.43
'0:14.434',-2.27
'0:14.438',-2.31
'0:14.441',-1.77
'0:14.445',-0.84
'0:14.449',0.16
'0:14.453',2.01
'0:14.457',4.41
'0:14.461',6.64
'0:14.465',8.33
'0:14.469',7.99
'0:14.473',4
'0:14.477',-1.67
'0:14.480',-5.63
'0:14.484',-7.41
'0:14.488',-7.9
'0:14.492',-7.47
'0:14.496',-6.2
'0:14.500',-4.76
'0:14.504',-3.48
'0:14.508',-2.72
'0:14.512',-1.98
'0:14.516',-1.58
'0:14.520',-1.6
'0:14.523',-1.58
'0:14.527',-1.14
'0:14.531',-0.55
'0:14.535',-0.02
'0:14.539',0.27
'0:14.543',0.17
'0:14.547',-0.19
'0:14.551',-0.48
'0:14.555',-0.53
'0:14.559',-0.4
'0:14.563',-0.21
'0:14.566',-0.01
'0:14.570',0.22
'0:14.574',0.51
'0:14.578',0.94
'0:14.582',1.39
'0:14.586',1.76
'0:14.590',2.22
'0:14.594',2.71
'0:14.598',3.09
'0:14.602',2.87
'0:14.605',2.49
'0:14.609',2.46
'0:14.613',2.47
'0:14.617',2.72
'0:14.621',3.44
'0:14.625',4.25
'0:14.629',4.41
'0:14.633',3.9
'0:14.637',3.41
'0:14.641',3.02
'0:14.645',2.59
'0:14.648',2.19
'0:14.652',1.8
'0:14.656',1.26
'0:14.660',0.7
'0:14.664',0.25
'0:14.668',-0.02
'0:14.672',-0.27
'0:14.676',-0.57
'0:14.680',-0.52
'0:14.684',0.09
'0:14.688',0.93
'0:14.691',0.93
'0:14.695',0.32
'0:14.699',-0.19
'0:14.703',-0.11
'0:14.707',0.11
'0:14.711',0.27
'0:14.715',0.4
'0:14.719',0.49
'0:14.723',0.61
'0:14.727',0.41
'0:14.730',0.13
'0:14.734',0
'0:14.738',-0.12
'0:14.742',-0.31
'0:14.746',-0.48
'0:14.750',-0.73
'0:14.754',-0.85
'0:14.758',-0.97
'0:14.762',-1.13
'0:14.766',-1.28
'0:14.770',-1.24
'0:14.773',-1.21
'0:14.777',-1.22
'0:14.781',-1.41
'0:14.785',-1.48
'0:14.789',-1.19
'0:14.793',-1.24
'0:14.797',-1.81
'0:14.801',-2.15
'0:14.805',-2.03
'0:14.809',-1.63
'0:14.813',-0.87
'0:14.816',0.22
'0:14.820',2.02
'0:14.824',4.73
'0:14.828',7.73
'0:14.832',9.08
'0:14.836',6.91
'0:14.840',1.76
'0:14.844',-3.58
'0:14.848',-6.94
'0:14.852',-8.06
'0:14.855',-7.76
'0:14.859',-6.62
'0:14.863',-5.3
'0:14.867',-3.93
'0:14.871',-2.85
'0:14.875',-2.34
'0:14.879',-2.09
'0:14.883',-1.9
'0:14.887',-1.78
'0:14.891',-1.95
'0:14.895',-1.75
'0:14.898',-1.54
'0:14.902',-1.3
'0:14.906',-0.8
'0:14.910',-0.46
'0:14.914',-0.39
'0:14.918',-0.48
'0:14.922',-0.42
'0:14.926',-0.14
'0:14.930',0.23
'0:14.934',0.37
'0:14.938',0.42
'0:14.941',0.64
'0:14.945',0.72
'0:14.949',0.93
'0:14.953',1.35
'0:14.957',1.56
'0:14.961',1.66
'0:14.965',2.26
'0:14.969',2.88
'0:14.973',3.12
'0:14.977',3.2
'0:14.980',3.37
'0:14.984',3.47
'0:14.988',3.48
'0:14.992',3.2
'0:14.996',3.04
'0:15.000',2.73
'0:15.004',2.56
'0:15.008',2.49
'0:15.012',2.14
'0:15.016',1.6
'0:15.020',0.9
'0:15.023',0.32
'0:15.027',-0.04
'0:15.031',0.02
'0:15.035',0.03
'0:15.039',-0.17
'0:15.043',-0.22
'0:15.047',-0.27
'0:15.051',-0.78
'0:15.055',-1.21
'0:15.059',-1.31
'0:15.063',-1.09
'0:15.066',-0.7
'0:15.070',-0.31
'0:15.074',0.09
'0:15.078',0.4
'0:15.082',0.56
'0:15.086',0.38
'0:15.090',0.2
'0:15.094',0.1
'0:15.098',-0.17
'0:15.102',-0.61
'0:15.105',-0.92
'0:15.109',-1.14
'0:15.113',-1.32
'0:15.117',-1.46
'0:15.121',-1.75
'0:15.125',-2.12
'0:15.129',-2.26
'0:15.133',-2.22
'0:15.137',-2.09
'0:15.141',-2.02
'0:15.145',-2.04
'0:15.148',-2.1
'0:15.152',-2.24
'0:15.156',-2.4
'0:15.160',-2.4
'0:15.164',-2.29
'0:15.168',-2.14
'0:15.172',-1.72
'0:15.176',-1.21
'0:15.180',-0.65
'0:15.184',0.79
'0:15.188',3.34
'0:15.191',6.11
'0:15.195',7.91
'0:15.199',6.62
'0:15.203',2.7
'0:15.207',-2.12
'0:15.211',-5.73
'0:15.215',-7.42
'0:15.219',-7.15
'0:15.223',-6.06
'0:15.227',-5.11
'0:15.230',-4.45
'0:15.234',-3.88
'0:15.238',-3.14
'0:15.242',-2.43
'0:15.246',-1.94
'0:15.250',-1.63
'0:15.254',-1.43
'0:15.258',-1.3
'0:15.262',-1.09
'0:15.266',-0.77
'0:15.270',-0.54
'0:15.273',-0.24
'0:15.277',-0.05
'0:15.281',0.11
'0:15.285',0.33
'0:15.289',0.57
'0:15.293',0.73
'0:15.297',0.73
'0:15.301',0.72
'0:15.305',0.95
'0:15.309',1.32
'0:15.313',1.81
'0:15.316',2.11
'0:15.320',2.4
'0:15.324',2.62
'0:15.328',2.74
'0:15.332',2.64
'0:15.336',3.03
'0:15.340',3.49
'0:15.344',3.43
'0:15.348',3.25
'0:15.352',3.27
'0:15.355',3.49
'0:15.359',3.46
'0:15.363',3.44
'0:15.367',3.49
'0:15.371',3.31
'0:15.375',3.06
'0:15.379',2.65
'0:15.383',2.09
'0:15.387',1.55
'0:15.391',1.07
'0:15.395',0.34
'0:15.398',-0.19
'0:15.402',-0.53
'0:15.406',-0.75
'0:15.410',-0.65
'0:15.414',-0.65
'0:15.418',-0.43
'0:15.422',-0.02
'0:15.426',0.35
'0:15.430',0.62
'0:15.434',0.58
'0:15.438',0.49
'0:15.441',0.27
'0:15.445',0.06
'0:15.449',-0.04
'0:15.453',0.16
'0:15.457',0.56
'0:15.461',0.46
'0:15.465',0.1
'0:15.469',-0.5
'0:15.473',-0.78
'0:15.477',-0.75
'0:15.480',-0.54
'0:15.484',-0.51
'0:15.488',-0.81
'0:15.492',-1.24
'0:15.496',-1.36
'0:15.500',-1.46
'0:15.504',-1.82
'0:15.508',-2.05
'0:15.512',-2.12
'0:15.516',-2.02
'0:15.520',-1.75
'0:15.523',-1.53
'0:15.527',-1.36
'0:15.531',-1.31
'0:15.535',-1.21
'0:15.539',-0.79
'0:15.543',0.04
'0:15.547',1.16
'0:15.551',2.55
'0:15.555',4.21
'0:15.559',5.53
'0:15.563',4.46
'0:15.566',1.38
'0:15.570',-2.6
'0:15.574',-5.73
'0:15.578',-7.08
'0:15.582',-6.9
'0:15.586',-6.06
'0:15.590',-4.98
'0:15.594',-4.05
'0:15.598',-3.27
'0:15.602',-2.72
'0:15.605',-2.28
'0:15.609',-1.99
'0:15.613',-1.79
'0:15.617',-1.7
'0:15.621',-1.97
'0:15.625',-1.99
'0:15.629',-1.09
'0:15.633',-0.33
'0:15.637',-0.26
'0:15.641',-0.16
'0:15.645',0.01
'0:15.648',0.06
'0:15.652',0.12
'0:15.656',-0.09
'0:15.660',-0.09
'0:15.664',0.31
'0:15.668',0.95
'0:15.672',1.18
'0:15.676',1.29
'0:15.680',1.23
'0:15.684',1.33
'0:15.688',1.66
'0:15.691',1.65
'0:15.695',1.59
'0:15.699',1.9
'0:15.703',2.24
'0:15.707',2.37
'0:15.711',2.44
'0:15.715',2.69
'0:15.719',2.74
'0:15.723',2.61
'0:15.727',2.41
'0:15.730',2.32
'0:15.734',2.13
'0:15.738',1.86
'0:15.742',1.46
'0:15.746',0.97
'0:15.750',0.48
'0:15.754',0.05
'0:15.758',-0.29
'0:15.762',-0.73
'0:15.766',-1.14
'0:15.770',-1.26
'0:15.773',-1.01
'0:15.777',-0.91
'0:15.781',-1.2
'0:15.785',-1.48
'0:15.789',-1.12
'0:15.793',-0.48
'0:15.797',0.07
'0:15.801',0.39
'0:15.805',0.2
'0:15.809',0.03
'0:15.813',0.09
'0:15.816',0.1
'0:15.820',-0.11
'0:15.824',-0.41
'0:15.828',-0.8
'0:15.832',-1.06
'0:15.836',-1.19
'0:15.840',-1.43
'0:15.844',-1.8
'0:15.848',-2.1
'0:15.852',-2.17
'0:15.855',-2.11
'0:15.859',-2.09
'0:15.863',-2.49
'0:15.867',-2.78
'0:15.871',-2.9
'0:15.875',-2.89
'0:15.879',-2.82
'0:15.883',-2.48
'0:15.887',-2.19
'0:15.891',-2.19
'0:15.895',-2.26
'0:15.898',-2.14
'0:15.902',-1.87
'0:15.906',-1.1
'0:15.910',0.32
'0:15.914',2.91
'0:15.918',6.09
'0:15.922',8.38
'0:15.926',7.66
'0:15.930',3.56
'0:15.934',-1.88
'0:15.938',-5.71
'0:15.941',-7.31
'0:15.945',-7.52
'0:15.949',-6.71
'0:15.953',-5.56
'0:15.957',-4.64
'0:15.961',-3.6
'0:15.965',-3.01
'0:15.969',-2.7
'0:15.973',-2.43
'0:15.977',-2.2
'0:15.980',-1.95
'0:15.984',-1.81
'0:15.988',-1.72
'0:15.992',-1.46
'0:15.996',-0.94
'0:16.000',-0.56
'0:16.004',-0.31
'0:16.008',-0.22
'0:16.012',-0.29
'0:16.016',-0.25
'0:16.020',0.08
'0:16.023',0.33
'0:16.027',0.42
'0:16.031',0.3
'0:16.035',0.37
'0:16.039',0.71
'0:16.043',0.99
'0:16.047',1.24
'0:16.051',1.27
'0:16.055',1.32
'0:16.059',1.59
'0:16.063',1.93
'0:16.066',2
'0:16.070',2.24
'0:16.074',2.53
'0:16.078',2.76
'0:16.082',3
'0:16.086',3.12
'0:16.090',2.9
'0:16.094',2.44
'0:16.098',2.48
'0:16.102',2.24
'0:16.105',1.58
'0:16.109',1
'0:16.113',0.65
'0:16.117',0.2
'0:16.121',-0.21
'0:16.125',-0.63
'0:16.129',-0.56
'0:16.133',-0.36
'0:16.137',-0.46
'0:16.141',-0.61
'0:16.145',-0.53
'0:16.148',-0.29
'0:16.152',-0.21
'0:16.156',0.03
'0:16.160',0.35
'0:16.164',0.78
'0:16.168',0.49
'0:16.172',0.3
'0:16.176',0.28
'0:16.180',0.18
'0:16.184',0.25
'0:16.188',0.22
'0:16.191',0.13
'0:16.195',-0.27
'0:16.199',-0.74
'0:16.203',-0.97
'0:16.207',-1.36
'0:16.211',-1.56
'0:16.215',-1.63
'0:16.219',-1.95
'0:16.223',-2.31
'0:16.227',-2.11
'0:16.230',-1.95
'0:16.234',-1.87
'0:16.238',-1.73
'0:16.242',-2.02
'0:16.246',-2.29
'0:16.250',-2.24
'0:16.254',-1.9
'0:16.258',-1.75
'0:16.262',-1.42
'0:16.266',-0.79
'0:16.270',0.24
'0:16.273',2
'0:16.277',4.61
'0:16.281',7.37
'0:16.285',8.46
'0:16.289',6.42
'0:16.293',1.73
'0:16.297',-3.19
'0:16.301',-6.31
'0:16.305',-7.23
'0:16.309',-7.05
'0:16.313',-6.44
'0:16.316',-5.35
'0:16.320',-4.04
'0:16.324',-3.32
'0:16.328',-3.19
'0:16.332',-2.74
'0:16.336',-2.18
'0:16.340',-1.74
'0:16.344',-1.36
'0:16.348',-1.32
'0:16.352',-1.51
'0:16.355',-1.59
'0:16.359',-1.21
'0:16.363',-0.7
'0:16.367',-0.44
'0:16.371',-0.26
'0:16.375',0.1
'0:16.379',0.67
'0:16.383',1.43
'0:16.387',2.12
'0:16.391',2.36
'0:16.395',2.16
'0:16.398',1.61
'0:16.402',1.32
'0:16.406',1.45
'0:16.410',1.66
'0:16.414',1.68
'0:16.418',1.79
'0:16.422',2.35
'0:16.426',2.87
'0:16.430',3.02
'0:16.434',3.16
'0:16.438',3.27
'0:16.441',3.63
'0:16.445',4.12
'0:16.449',4.27
'0:16.453',4.2
'0:16.457',3.94
'0:16.461',3.59
'0:16.465',2.89
'0:16.469',2.25
'0:16.473',2.02
'0:16.477',1.73
'0:16.480',1.14
'0:16.484',0.37
'0:16.488',0.07
'0:16.492',0.28
'0:16.496',0.34
'0:16.500',0.1
'0:16.504',-0.22
'0:16.508',-0.1
'0:16.512',0.29
'0:16.516',0.3
'0:16.520',0.27
'0:16.523',0.17
'0:16.527',0.03
'0:16.531',0.13
'0:16.535',0.49
'0:16.539',0.85
'0:16.543',0.78
'0:16.547',0.24
'0:16.551',-0.23
'0:16.555',-0.54
'0:16.559',-0.46
'0:16.563',-0.46
'0:16.566',-0.58
'0:16.570',-0.61
'0:16.574',-0.78
'0:16.578',-1.07
'0:16.582',-1.52
'0:16.586',-1.99
'0:16.590',-2.06
'0:16.594',-1.73
'0:16.598',-1.27
'0:16.602',-1.26
'0:16.605',-1.61
'0:16.609',-2.15
'0:16.613',-2.56
'0:16.617',-2.55
'0:16.621',-2.34
'0:16.625',-1.88
'0:16.629',-1.26
'0:16.633',-0.52
'0:16.637',0.73
'0:16.641',2.76
'0:16.645',5.75
'0:16.648',8.56
'0:16.652',8.92
'0:16.656',5.82
'0:16.660',0.4
'0:16.664',-4.37
'0:16.668',-6.58
'0:16.672',-6.92
'0:16.676',-6.47
'0:16.680',-5.71
'0:16.684',-4.72
'0:16.688',-3.52
'0:16.691',-3.1
'0:16.695',-3.16
'0:16.699',-3.29
'0:16.703',-3.11
'0:16.707',-2.67
'0:16.711',-2.22
'0:16.715',-1.99
'0:16.719',-1.78
'0:16.723',-1.73
'0:16.727',-1.4
'0:16.730',-0.6
'0:16.734',-0.2
'0:16.738',-0.32
'0:16.742',-0.23
'0:16.746',0.15
'0:16.750',0.4
'0:16.754',0.44
'0:16.758',0.44
'0:16.762',0.49
'0:16.766',0.77
'0:16.770',1.05
'0:16.773',1.3
'0:16.777',1.71
'0:16.781',2.08
'0:16.785',2.3
'0:16.789',2.56
'0:16.793',2.93
'0:16.797',3.17
'0:16.801',3.52
'0:16.805',3.68
'0:16.809',3.74
'0:16.813',3.78
'0:16.816',3.68
'0:16.820',3.43
'0:16.824',2.99
'0:16.828',2.51
'0:16.832',2.12
'0:16.836',1.68
'0:16.840',1.17
'0:16.844',0.7
'0:16.848',0.09
'0:16.852',-0.58
'0:16.855',-0.78
'0:16.859',-0.71
'0:16.863',-0.8
'0:16.867',-0.92
'0:16.871',-0.92
'0:16.875',-0.82
'0:16.879',-0.75
'0:16.883',-0.41
'0:16.887',-0.25
'0:16.891',-0.17
'0:16.895',-0.13
'0:16.898',0.01
'0:16.902',0.26
'0:16.906',0.4
'0:16.910',0.35
'0:16.914',0.22
'0:16.918',-0.1
'0:16.922',-0.38
'0:16.926',-0.68
'0:16.930',-0.92
'0:16.934',-0.87
'0:16.938',-1.01
'0:16.941',-1.43
'0:16.945',-1.8
'0:16.949',-2
'0:16.953',-2.2
'0:16.957',-2.43
'0:16.961',-2.47
'0:16.965',-2.29
'0:16.969',-2.09
'0:16.973',-2.07
'0:16.977',-2.05
'0:16.980',-2.01
'0:16.984',-2.09
'0:16.988',-1.89
'0:16.992',-1.75
'0:16.996',-1.2
'0:17.000',-0.15
'0:17.004',1.49
'0:17.008',4.01
'0:17.012',6.99
'0:17.016',8.35
'0:17.020',6.41
'0:17.023',1.73
'0:17.027',-3.4
'0:17.031',-6.56
'0:17.035',-7.59
'0:17.039',-7.24
'0:17.043',-6.33
'0:17.047',-5.38
'0:17.051',-4.66
'0:17.055',-3.83
'0:17.059',-2.96
'0:17.063',-2.3
'0:17.066',-1.87
'0:17.070',-1.41
'0:17.074',-1.04
'0:17.078',-0.74
'0:17.082',-0.4
'0:17.086',-0.31
'0:17.090',-0.41
'0:17.094',-0.54
'0:17.098',-0.77
'0:17.102',-0.65
'0:17.105',-0.21
'0:17.109',0.48
'0:17.113',1
'0:17.117',1.01
'0:17.121',0.71
'0:17.125',0.49
'0:17.129',0.51
'0:17.133',0.61
'0:17.137',0.88
'0:17.141',1.28
'0:17.145',1.64
'0:17.148',1.94
'0:17.152',2.2
'0:17.156',2.59
'0:17.160',2.87
'0:17.164',2.76
'0:17.168',3.04
'0:17.172',3.63
'0:17.176',3.95
'0:17.180',3.83
'0:17.184',3.39
'0:17.188',3.32
'0:17.191',3.59
'0:17.195',3.7
'0:17.199',3.83
'0:17.203',3.24
'0:17.207',1.5
'0:17.211',0.07
'0:17.215',-0.59
'0:17.219',-1.14
'0:17.223',-1.16
'0:17.227',-0.9
'0:17.230',-1.15
'0:17.234',-1.52
'0:17.238',-1.73
'0:17.242',-1.68
'0:17.246',-1.2
'0:17.250',-0.09
'0:17.254',0.63
'0:17.258',0.73
'0:17.262',0.38
'0:17.266',-0.11
'0:17.270',-0.21
'0:17.273',0.16
'0:17.277',0.8
'0:17.281',0.7
'0:17.285',0.46
'0:17.289',0.07
'0:17.293',-0.02
'0:17.297',0
'0:17.301',-0.1
'0:17.305',-0.49
'0:17.309',-0.75
'0:17.313',-1.05
'0:17.316',-1.54
'0:17.320',-2.1
'0:17.324',-2.11
'0:17.328',-1.62
'0:17.332',-1.24
'0:17.336',-0.9
'0:17.340',-0.78
'0:17.344',-0.78
'0:17.348',-0.75
'0:17.352',-0.75
'0:17.355',-0.99
'0:17.359',-0.91
'0:17.363',-0.08
'0:17.367',1.25
'0:17.371',3.54
'0:17.375',6.23
'0:17.379',7.39
'0:17.383',5.54
'0:17.387',1.59
'0:17.391',-2.78
'0:17.395',-6.11
'0:17.398',-7.86
'0:17.402',-7.68
'0:17.406',-6.36
'0:17.410',-5.03
'0:17.414',-4.28
'0:17.418',-3.49
'0:17.422',-2.97
'0:17.426',-2.85
'0:17.430',-2.59
'0:17.434',-2.16
'0:17.438',-1.63
'0:17.441',-1.04
'0:17.445',-0.4
'0:17.449',0.16
'0:17.453',0.4
'0:17.457',0.37
'0:17.461',0.22
'0:17.465',-0.19
'0:17.469',-0.49
'0:17.473',-0.56
'0:17.477',-0.38
'0:17.480',0.03
'0:17.484',0.34
'0:17.488',0.34
'0:17.492',0.3
'0:17.496',0.33
'0:17.500',0.57
'0:17.504',0.88
'0:17.508',1.05
'0:17.512',1.4
'0:17.516',1.86
'0:17.520',2.25
'0:17.523',2.7
'0:17.527',3.2
'0:17.531',3.39
'0:17.535',3.22
'0:17.539',3.14
'0:17.543',2.93
'0:17.547',2.73
'0:17.551',2.56
'0:17.555',2.29
'0:17.559',1.92
'0:17.563',1.6
'0:17.566',1.17
'0:17.570',0.68
'0:17.574',0.39
'0:17.578',0.1
'0:17.582',-0.48
'0:17.586',-0.98
'0:17.590',-1.07
'0:17.594',-1.14
'0:17.598',-1.12
'0:17.602',-1.14
'0:17.605',-1.04
'0:17.609',-0.7
'0:17.613',-0.47
'0:17.617',-0.41
'0:17.621',-0.46
'0:17.625',-0.58
'0:17.629',-0.46
'0:17.633',-0.34
'0:17.637',-0.38
'0:17.641',-0.21
'0:17.645',0.04
'0:17.648',0.17
'0:17.652',-0.11
'0:17.656',-0.58
'0:17.660',-0.81
'0:17.664',-1.23
'0:17.668',-1.73
'0:17.672',-2.02
'0:17.676',-1.95
'0:17.680',-2
'0:17.684',-2.04
'0:17.688',-2.03
'0:17.691',-2.07
'0:17.695',-1.98
'0:17.699',-1.91
'0:17.703',-1.89
'0:17.707',-1.84
'0:17.711',-1.61
'0:17.715',-1.55
'0:17.719',-1.31
'0:17.723',-0.77
'0:17.727',0.19
'0:17.730',1.88
'0:17.734',4.55
'0:17.738',7.64
'0:17.742',9.59
'0:17.746',8.54
'0:17.750',4.13
'0:17.754',-1.39
'0:17.758',-5.26
'0:17.762',-7.15
'0:17.766',-7.34
'0:17.770',-6.69
'0:17.773',-5.76
'0:17.777',-4.77
'0:17.781',-3.91
'0:17.785',-3.16
'0:17.789',-2.44
'0:17.793',-1.97
'0:17.797',-1.69
'0:17.801',-1.57
'0:17.805',-1.38
'0:17.809',-1.07
'0:17.813',-0.84
'0:17.816',-0.73
'0:17.820',-0.63
'0:17.824',-0.64
'0:17.828',-0.68
'0:17.832',-0.65
'0:17.836',-0.29
'0:17.840',0.15
'0:17.844',0.56
'0:17.848',0.76
'0:17.852',0.71
'0:17.855',0.74
'0:17.859',1.06
'0:17.863',1.25
'0:17.867',1.37
'0:17.871',1.62
'0:17.875',1.95
'0:17.879',2.22
'0:17.883',2.52
'0:17.887',3.08
'0:17.891',3.67
'0:17.895',4
'0:17.898',4.25
'0:17.902',4.37
'0:17.906',4.46
'0:17.910',4.29
'0:17.914',3.67
'0:17.918',2.97
'0:17.922',2.33
'0:17.926',1.54
'0:17.930',1.16
'0:17.934',0.83
'0:17.938',-0.1
'0:17.941',-0.73
'0:17.945',-0.79
'0:17.949',-0.22
'0:17.953',0.08
'0:17.957',0
'0:17.961',-0.16
'0:17.965',-0.16
'0:17.969',-0.04
'0:17.973',0.25
'0:17.977',0.41
'0:17.980',0.37
'0:17.984',0.47
'0:17.988',0.48
'0:17.992',0.32
'0:17.996',0.57
'0:18.000',0.97
'0:18.004',0.83
'0:18.008',0.67
'0:18.012',0.45
'0:18.016',-0.13
'0:18.020',-0.71
'0:18.023',-1.19
'0:18.027',-1.43
'0:18.031',-1.28
'0:18.035',-1.17
'0:18.039',-1.28
'0:18.043',-1.99
'0:18.047',-2.71
'0:18.051',-2.96
'0:18.055',-2.34
'0:18.059',-1.38
'0:18.063',-0.65
'0:18.066',-0.24
'0:18.070',-0.16
'0:18.074',-0.11
'0:18.078',0.1
'0:18.082',-0.09
'0:18.086',-0.13
'0:18.090',0.89
'0:18.094',3.4
'0:18.098',6.84
'0:18.102',9.66
'0:18.105',9.41
'0:18.109',5.11
'0:18.113',-0.63
'0:18.117',-4.55
'0:18.121',-5.88
'0:18.125',-5.1
'0:18.129',-3.84
'0:18.133',-3.53
'0:18.137',-3.76
'0:18.141',-3.77
'0:18.145',-3.33
'0:18.148',-2.47
'0:18.152',-1.77
'0:18.156',-1.41
'0:18.160',-1.19
'0:18.164',-0.89
'0:18.168',-0.51
'0:18.172',-0.11
'0:18.176',0.38
'0:18.180',0.86
'0:18.184',1.22
'0:18.188',1.55
'0:18.191',1.93
'0:18.195',1.88
'0:18.199',1.41
'0:18.203',1.17
'0:18.207',1.49
'0:18.211',1.58
'0:18.215',1.29
'0:18.219',1.28
'0:18.223',1.79
'0:18.227',2.47
'0:18.230',2.64
'0:18.234',2.62
'0:18.238',2.57
'0:18.242',2.49
'0:18.246',2.82
'0:18.250',3.37
'0:18.254',3.93
'0:18.258',4.17
'0:18.262',3.93
'0:18.266',3.97
'0:18.270',4.41
'0:18.273',4.38
'0:18.277',3.54
'0:18.281',2.39
'0:18.285',1.81
'0:18.289',1.51
'0:18.293',1.41
'0:18.297',1.17
'0:18.301',0.8
'0:18.305',0.45
'0:18.309',-0.04
'0:18.313',-0.09
'0:18.316',-0.18
'0:18.320',-0.61
'0:18.324',-0.89
'0:18.328',-0.57
'0:18.332',0.06
'0:18.336',0.74
'0:18.340',0.97
'0:18.344',0.34
'0:18.348',-0.19
'0:18.352',-0.24
'0:18.355',-0.31
'0:18.359',-0.13
'0:18.363',0.62
'0:18.367',1.03
'0:18.371',0.85
'0:18.375',0.37
'0:18.379',-0.07
'0:18.383',-0.38
'0:18.387',-0.63
'0:18.391',-0.95
'0:18.395',-1.13
'0:18.398',-1.51
'0:18.402',-1.85
'0:18.406',-1.84
'0:18.410',-1.7
'0:18.414',-1.57
'0:18.418',-1.7
'0:18.422',-1.92
'0:18.426',-2.09
'0:18.430',-2.01
'0:18.434',-1.72
'0:18.438',-1.51
'0:18.441',-1.28
'0:18.445',-0.98
'0:18.449',-0.49
'0:18.453',0.54
'0:18.457',2.65
'0:18.461',5.7
'0:18.465',8.66
'0:18.469',9.37
'0:18.473',6.54
'0:18.477',1.28
'0:18.480',-3.67
'0:18.484',-6.6
'0:18.488',-7.35
'0:18.492',-7.03
'0:18.496',-6.14
'0:18.500',-5.13
'0:18.504',-4.23
'0:18.508',-3.41
'0:18.512',-2.7
'0:18.516',-2.04
'0:18.520',-1.61
'0:18.523',-1.35
'0:18.527',-0.97
'0:18.531',-0.73
'0:18.535',-0.5
'0:18.539',-0.42
'0:18.543',-0.36
'0:18.547',-0.38
'0:18.551',-0.21
'0:18.555',-0.04
'0:18.559',0.23
'0:18.563',0.42
'0:18.566',0.52
'0:18.570',0.69
'0:18.574',0.75
'0:18.578',0.92
'0:18.582',1.1
'0:18.586',1.31
'0:18.590',1.32
'0:18.594',1.45
'0:18.598',1.64
'0:18.602',2.01
'0:18.605',2.59
'0:18.609',3.15
'0:18.613',3.34
'0:18.617',3.6
'0:18.621',3.69
'0:18.625',3.48
'0:18.629',3.47
'0:18.633',3.47
'0:18.637',3.31
'0:18.641',3.03
'0:18.645',2.75
'0:18.648',2.38
'0:18.652',1.66
'0:18.656',1.2
'0:18.660',1.13
'0:18.664',0.89
'0:18.668',0.63
'0:18.672',0.29
'0:18.676',-0.13
'0:18.680',-0.31
'0:18.684',-0.21
'0:18.688',-0.29
'0:18.691',-0.45
'0:18.695',-0.55
'0:18.699',-0.35
'0:18.703',-0.01
'0:18.707',0.28
'0:18.711',0.44
'0:18.715',0.57
'0:18.719',0.32
'0:18.723',0.1
'0:18.727',0.16
'0:18.730',0.2
'0:18.734',0.08
'0:18.738',-0.07
'0:18.742',-0.11
'0:18.746',-0.27
'0:18.750',-0.46
'0:18.754',-0.91
'0:18.758',-1.65
'0:18.762',-1.85
'0:18.766',-2.02
'0:18.770',-2.02
'0:18.773',-2
'0:18.777',-1.84
'0:18.781',-1.9
'0:18.785',-1.94
'0:18.789',-1.54
'0:18.793',-1.51
'0:18.797',-1.85
'0:18.801',-1.67
'0:18.805',-1.53
'0:18.809',-1.48
'0:18.813',-0.91
'0:18.816',-0.01
'0:18.820',1.74
'0:18.824',4.33
'0:18.828',6.79
'0:18.832',7.4
'0:18.836',4.67
'0:18.840',-0.01
'0:18.844',-4.35
'0:18.848',-6.61
'0:18.852',-6.81
'0:18.855',-5.66
'0:18.859',-4.45
'0:18.863',-3.53
'0:18.867',-2.91
'0:18.871',-2.46
'0:18.875',-1.94
'0:18.879',-1.35
'0:18.883',-0.92
'0:18.887',-0.25
'0:18.891',0.49
'0:18.895',0.48
'0:18.898',-0.13
'0:18.902',-0.56
'0:18.906',-0.73
'0:18.910',-0.75
'0:18.914',-0.62
'0:18.918',-0.16
'0:18.922',0.42
'0:18.926',0.83
'0:18.930',0.82
'0:18.934',0.3
'0:18.938',0.12
'0:18.941',0.57
'0:18.945',1.09
'0:18.949',1.34
'0:18.953',1.73
'0:18.957',1.45
'0:18.961',0.63
'0:18.965',0.52
'0:18.969',0.94
'0:18.973',1.35
'0:18.977',1.92
'0:18.980',2.68
'0:18.984',3.4
'0:18.988',3.46
'0:18.992',3.27
'0:18.996',3.45
'0:19.000',3.63
'0:19.004',3.36
'0:19.008',2.86
'0:19.012',2.44
'0:19.016',1.95
'0:19.020',1.51
'0:19.023',1.23
'0:19.027',0.67
'0:19.031',0
'0:19.035',-0.54
'0:19.039',-1.1
'0:19.043',-1.74
'0:19.047',-2.04
'0:19.051',-1.82
'0:19.055',-1.62
'0:19.059',-1.28
'0:19.063',-0.9
'0:19.066',-0.23
'0:19.070',0.38
'0:19.074',0.22
'0:19.078',-0.37
'0:19.082',-0.65
'0:19.086',-1.1
'0:19.090',-1.52
'0:19.094',-1.69
'0:19.098',-1.62
'0:19.102',-1.43
'0:19.105',-1.52
'0:19.109',-2
'0:19.113',-2.48
'0:19.117',-2.93
'0:19.121',-2.98
'0:19.125',-2.57
'0:19.129',-2.26
'0:19.133',-2.22
'0:19.137',-2.44
'0:19.141',-2.83
'0:19.145',-3
'0:19.148',-2.84
'0:19.152',-2.58
'0:19.156',-2.46
'0:19.160',-2.43
'0:19.164',-2.19
'0:19.168',-1.97
'0:19.172',-1.79
'0:19.176',-1.37
'0:19.180',-0.07
'0:19.184',2.12
'0:19.188',4.99
'0:19.191',7.7
'0:19.195',8.46
'0:19.199',5.64
'0:19.203',0.23
'0:19.207',-4.86
'0:19.211',-7.7
'0:19.215',-8.25
'0:19.219',-7.59
'0:19.223',-6.55
'0:19.227',-5.54
'0:19.230',-4.59
'0:19.234',-3.95
'0:19.238',-3.4
'0:19.242',-2.82
'0:19.246',-2.28
'0:19.250',-2.16
'0:19.254',-2.14
'0:19.258',-1.87
'0:19.262',-1.62
'0:19.266',-1.36
'0:19.270',-1.17
'0:19.273',-0.93
'0:19.277',-0.68
'0:19.281',-0.62
'0:19.285',-0.41
'0:19.289',-0.29
'0:19.293',-0.19
'0:19.297',-0.01
'0:19.301',0.23
'0:19.305',0.45
'0:19.309',0.69
'0:19.313',1.2
'0:19.316',1.47
'0:19.320',1.29
'0:19.324',1.42
'0:19.328',1.94
'0:19.332',2.47
'0:19.336',2.61
'0:19.340',2.57
'0:19.344',2.89
'0:19.348',3.39
'0:19.352',3.66
'0:19.355',3.8
'0:19.359',3.65
'0:19.363',3.35
'0:19.367',2.95
'0:19.371',2.56
'0:19.375',2.29
'0:19.379',1.68
'0:19.383',1.13
'0:19.387',0.69
'0:19.391',0.2
'0:19.395',-0.19
'0:19.398',-0.33
'0:19.402',-0.19
'0:19.406',-0.15
'0:19.410',-0.56
'0:19.414',-0.55
'0:19.418',-0.71
'0:19.422',-1.06
'0:19.426',-0.99
'0:19.430',-0.85
'0:19.434',-0.6
'0:19.438',-0.22
'0:19.441',-0.1
'0:19.445',-0.09
'0:19.449',0.31
'0:19.453',0.57
'0:19.457',0.5
'0:19.461',0
'0:19.465',-0.51
'0:19.469',-0.85
'0:19.473',-1.19
'0:19.477',-1.34
'0:19.480',-1.27
'0:19.484',-1.29
'0:19.488',-1.44
'0:19.492',-1.66
'0:19.496',-1.8
'0:19.500',-1.8
'0:19.504',-1.9
'0:19.508',-1.89
'0:19.512',-1.87
'0:19.516',-2.03
'0:19.520',-1.82
'0:19.523',-1.5
'0:19.527',-1.3
