'0:00.000',-1.24
'0:00.004',-0.97
'0:00.008',-0.73
'0:00.012',-1.17
'0:00.016',-2.14
'0:00.020',-2.68
'0:00.023',-2.47
'0:00.027',-1.62
'0:00.031',-1.13
'0:00.035',-1.86
'0:00.039',-2.52
'0:00.043',-2.69
'0:00.047',-1.99
'0:00.051',-0.12
'0:00.055',2.62
'0:00.059',5.41
'0:00.063',7.41
'0:00.066',6.68
'0:00.070',3.42
'0:00.074',-0.55
'0:00.078',-3.19
'0:00.082',-4.29
'0:00.086',-4.85
'0:00.090',-5.22
'0:00.094',-4.91
'0:00.098',-4.47
'0:00.102',-3.96
'0:00.105',-3.38
'0:00.109',-2.85
'0:00.113',-2.43
'0:00.117',-1.99
'0:00.121',-1.76
'0:00.125',-1.75
'0:00.129',-1.93
'0:00.133',-2.12
'0:00.137',-1.86
'0:00.141',-1.06
'0:00.145',-0.3
'0:00.148',-0.31
'0:00.152',-0.33
'0:00.156',0.71
'0:00.160',2.39
'0:00.164',3.26
'0:00.168',3.17
'0:00.172',3.05
'0:00.176',3.16
'0:00.180',3.28
'0:00.184',3.24
'0:00.188',3.4
'0:00.191',4.02
'0:00.195',5.18
'0:00.199',5.52
'0:00.203',4.68
'0:00.207',3.54
'0:00.211',2.28
'0:00.215',1.22
'0:00.219',1.08
'0:00.223',1.79
'0:00.227',1.75
'0:00.230',0.27
'0:00.234',-1
'0:00.238',-1.28
'0:00.242',-0.99
'0:00.246',-0.83
'0:00.250',-0.94
'0:00.254',-1.23
'0:00.258',-0.99
'0:00.262',-0.66
'0:00.266',-0.33
'0:00.270',0.14
'0:00.273',0.86
'0:00.277',1.09
'0:00.281',0.4
'0:00.285',-0.32
'0:00.289',-0.78
'0:00.293',-0.93
'0:00.297',-1.1
'0:00.301',-1.49
'0:00.305',-1.75
'0:00.309',-1.8
'0:00.313',-1.78
'0:00.316',-1.75
'0:00.320',-1.7
'0:00.324',-1.69
'0:00.328',-1.7
'0:00.332',-1.42
'0:00.336',-0.71
'0:00.340',0.6
'0:00.344',3.01
'0:00.348',5.72
'0:00.352',7.95
'0:00.355',7.61
'0:00.359',4.29
'0:00.363',0.08
'0:00.367',-2.92
'0:00.371',-4.22
'0:00.375',-4.72
'0:00.379',-4.89
'0:00.383',-4.47
'0:00.387',-3.65
'0:00.391',-2.81
'0:00.395',-2.28
'0:00.398',-2.05
'0:00.402',-1.94
'0:00.406',-1.87
'0:00.410',-1.67
'0:00.414',-1.05
'0:00.418',-0.06
'0:00.422',-0.01
'0:00.426',-0.48
'0:00.430',-0.87
'0:00.434',-1.91
'0:00.438',-2.39
'0:00.441',-2.33
'0:00.445',-2.08
'0:00.449',-1.58
'0:00.453',-0.82
'0:00.457',-0.46
'0:00.461',0.16
'0:00.465',0.87
'0:00.469',1.79
'0:00.473',2.8
'0:00.477',3.56
'0:00.480',3.27
'0:00.484',2.09
'0:00.488',1.69
'0:00.492',2.01
'0:00.496',1.5
'0:00.500',1.25
'0:00.504',1.39
'0:00.508',1.58
'0:00.512',1.03
'0:00.516',0.21
'0:00.520',-0.3
'0:00.523',-0.62
'0:00.527',-0.66
'0:00.531',-0.81
'0:00.535',-0.59
'0:00.539',0.18
'0:00.543',0.58
'0:00.547',0.63
'0:00.551',0.46
'0:00.555',0.13
'0:00.559',0.2
'0:00.563',0.32
'0:00.566',0.24
'0:00.570',-0.15
'0:00.574',-0.62
'0:00.578',-0.03
'0:00.582',0.7
'0:00.586',0.98
'0:00.590',-0.33
'0:00.594',-1.91
'0:00.598',-2.49
'0:00.602',-2.91
'0:00.605',-3.02
'0:00.609',-2.98
'0:00.613',-2.41
'0:00.617',-1.29
'0:00.621',-1.03
'0:00.625',-1.54
'0:00.629',-1.67
'0:00.633',-0.74
'0:00.637',1.53
'0:00.641',3.48
'0:00.645',2.7
'0:00.648',0.42
'0:00.652',-2.05
'0:00.656',-3.56
'0:00.660',-4.06
'0:00.664',-3.54
'0:00.668',-1.98
'0:00.672',-0.83
'0:00.676',0.13
'0:00.680',0.69
'0:00.684',0.04
'0:00.688',-0.95
'0:00.691',-0.96
'0:00.695',-0.04
'0:00.699',0.81
'0:00.703',1.27
'0:00.707',1.22
'0:00.711',0.7
'0:00.715',-0.22
'0:00.719',-1.52
'0:00.723',-2.24
'0:00.727',-2.08
'0:00.730',-1.09
'0:00.734',0.52
'0:00.738',1.92
'0:00.742',2.12
'0:00.746',1.38
'0:00.750',0.73
'0:00.754',0.54
'0:00.758',1.08
'0:00.762',2.16
'0:00.766',3.18
'0:00.770',4.04
'0:00.773',4.39
'0:00.777',4.16
'0:00.781',3.7
'0:00.785',3.17
'0:00.789',2.85
'0:00.793',2.61
'0:00.797',2.65
'0:00.801',2.97
'0:00.805',2.94
'0:00.809',1.6
'0:00.813',-0.11
'0:00.816',-1.22
'0:00.820',-1.51
'0:00.824',-1.21
'0:00.828',-0.72
'0:00.832',-0.24
'0:00.836',0.25
'0:00.840',0.4
'0:00.844',-0.09
'0:00.848',-0.74
'0:00.852',-1.03
'0:00.855',-1
'0:00.859',-0.85
'0:00.863',-0.63
'0:00.867',-0.66
'0:00.871',-1.03
'0:00.875',-1.51
'0:00.879',-1.6
'0:00.883',-1.23
'0:00.887',-0.98
'0:00.891',-1.62
'0:00.895',-2.65
'0:00.898',-3.54
'0:00.902',-3.62
'0:00.906',-2.76
'0:00.910',-1.62
'0:00.914',-0.77
'0:00.918',0.06
'0:00.922',2.32
'0:00.926',5.33
'0:00.930',7.06
'0:00.934',6.54
'0:00.938',4.18
'0:00.941',0.73
'0:00.945',-2.55
'0:00.949',-4.82
'0:00.953',-5.52
'0:00.957',-4.87
'0:00.961',-3.82
'0:00.965',-2.72
'0:00.969',-2.21
'0:00.973',-3.1
'0:00.977',-4.04
'0:00.980',-3.91
'0:00.984',-3.22
'0:00.988',-2.69
'0:00.992',-2.39
'0:00.996',-2.09
'0:01.000',-1.74
'0:01.004',-1.2
'0:01.008',-0.53
'0:01.012',-0.4
'0:01.016',-0.4
'0:01.020',-0.19
'0:01.023',0.18
'0:01.027',0.33
'0:01.031',0
'0:01.035',0.53
'0:01.039',2.03
'0:01.043',3.4
'0:01.047',3.75
'0:01.051',4.03
'0:01.055',3.77
'0:01.059',3.24
'0:01.063',3.05
'0:01.066',3.23
'0:01.070',3.41
'0:01.074',3.09
'0:01.078',2.88
'0:01.082',2.71
'0:01.086',2.35
'0:01.090',1.8
'0:01.094',1.21
'0:01.098',0.83
'0:01.102',0.74
'0:01.105',0.58
'0:01.109',0.32
'0:01.113',0.35
'0:01.117',0.54
'0:01.121',0.11
'0:01.125',-0.42
'0:01.129',-0.65
'0:01.133',-0.68
'0:01.137',-0.76
'0:01.141',-0.99
'0:01.145',-1.22
'0:01.148',-1.24
'0:01.152',-1.1
'0:01.156',-1.42
'0:01.160',-2.01
'0:01.164',-2.54
'0:01.168',-2.71
'0:01.172',-2.71
'0:01.176',-2.68
'0:01.180',-2.75
'0:01.184',-2.75
'0:01.188',-2.5
'0:01.191',-2.62
'0:01.195',-2.2
'0:01.199',-1.39
'0:01.203',-0.18
'0:01.207',2.08
'0:01.211',5.13
'0:01.215',8.48
'0:01.219',10.66
'0:01.223',8.64
'0:01.227',4.06
'0:01.230',0.84
'0:01.234',-1.82
'0:01.238',-3.94
'0:01.242',-4.68
'0:01.246',-4.7
'0:01.250',-4.78
'0:01.254',-5.27
'0:01.258',-5.83
'0:01.262',-5.94
'0:01.266',-5.27
'0:01.270',-4.45
'0:01.273',-3.52
'0:01.277',-2.54
'0:01.281',-2.12
'0:01.285',-1.9
'0:01.289',-1.55
'0:01.293',-0.96
'0:01.297',0.08
'0:01.301',1.25
'0:01.305',1.29
'0:01.309',0.92
'0:01.313',0.79
'0:01.316',0.8
'0:01.320',0.69
'0:01.324',-0.06
'0:01.328',-0.21
'0:01.332',-0.02
'0:01.336',0.03
'0:01.340',0.08
'0:01.344',0.22
'0:01.348',1.19
'0:01.352',2.08
'0:01.355',2.54
'0:01.359',2.83
'0:01.363',2.61
'0:01.367',2.09
'0:01.371',1.53
'0:01.375',1.43
'0:01.379',1.49
'0:01.383',1.26
'0:01.387',0.75
'0:01.391',0.3
'0:01.395',0.52
'0:01.398',1.35
'0:01.402',1.79
'0:01.406',2.46
'0:01.410',1.49
'0:01.414',-0.69
'0:01.418',-2.01
'0:01.422',-2.6
'0:01.426',-2.62
'0:01.430',-1.81
'0:01.434',-0.81
'0:01.438',-0.17
'0:01.441',-0.08
'0:01.445',-0.57
'0:01.449',-1.14
'0:01.453',-1.39
'0:01.457',-1.51
'0:01.461',-1.3
'0:01.465',0.74
'0:01.469',3.36
'0:01.473',1.8
'0:01.477',-1.96
'0:01.480',-4.63
'0:01.484',-4.47
'0:01.488',-2.97
'0:01.492',-0.48
'0:01.496',0.65
'0:01.500',1.43
'0:01.504',2.92
'0:01.508',3.91
'0:01.512',2.48
'0:01.516',-0.9
'0:01.520',-3.6
'0:01.523',-4.61
'0:01.527',-2.73
'0:01.531',-0.34
'0:01.535',-0.46
'0:01.539',-2.82
'0:01.543',-4.75
'0:01.547',-5.16
'0:01.551',-5.39
'0:01.555',-5.03
'0:01.559',-3.04
'0:01.563',-1.52
'0:01.566',-0.27
'0:01.570',0.4
'0:01.574',0.63
'0:01.578',0.46
'0:01.582',-0.11
'0:01.586',-0.69
'0:01.590',-0.64
'0:01.594',0.21
'0:01.598',0.8
'0:01.602',0.83
'0:01.605',0.83
'0:01.609',1
'0:01.613',1.14
'0:01.617',1.33
'0:01.621',1.91
'0:01.625',2.77
'0:01.629',3.34
'0:01.633',3.36
'0:01.637',3.27
'0:01.641',3.47
'0:01.645',3.54
'0:01.648',3.35
'0:01.652',3.06
'0:01.656',2.76
'0:01.660',2.4
'0:01.664',2.24
'0:01.668',2.08
'0:01.672',1.52
'0:01.676',0.72
'0:01.680',0.27
'0:01.684',-0.01
'0:01.688',0.03
'0:01.691',0.42
'0:01.695',0.96
'0:01.699',1.55
'0:01.703',2.27
'0:01.707',2.31
'0:01.711',1.4
'0:01.715',0.7
'0:01.719',1.31
'0:01.723',1.9
'0:01.727',1.49
'0:01.730',0.43
'0:01.734',-0.17
'0:01.738',-0.86
'0:01.742',-1.41
'0:01.746',-1.61
'0:01.750',-1.83
'0:01.754',-1.87
'0:01.758',-1.52
'0:01.762',-0.92
'0:01.766',-0.75
'0:01.770',-1.72
'0:01.773',-2.18
'0:01.777',-1.42
'0:01.781',-0.34
'0:01.785',1.09
'0:01.789',3.36
'0:01.793',5.86
'0:01.797',7.18
'0:01.801',6.11
'0:01.805',2.37
'0:01.809',-0.77
'0:01.813',-2.79
'0:01.816',-4.84
'0:01.820',-5.9
'0:01.824',-5.72
'0:01.828',-4.79
'0:01.832',-3.97
'0:01.836',-3.67
'0:01.840',-3.48
'0:01.844',-3.21
'0:01.848',-2.59
'0:01.852',-2.07
'0:01.855',-1.87
'0:01.859',-1.56
'0:01.863',-1.22
'0:01.867',-0.94
'0:01.871',-0.75
'0:01.875',-0.53
'0:01.879',-0.44
'0:01.883',-0.43
'0:01.887',-0.28
'0:01.891',-0.2
'0:01.895',-0.07
'0:01.898',0.3
'0:01.902',0.84
'0:01.906',2.08
'0:01.910',3.58
'0:01.914',4.18
'0:01.918',3.4
'0:01.922',2.81
'0:01.926',2.73
'0:01.930',2.85
'0:01.934',2.66
'0:01.938',2.56
'0:01.941',2.96
'0:01.945',2.98
'0:01.949',1.68
'0:01.953',0.36
'0:01.957',-0.07
'0:01.961',-0.37
'0:01.965',-0.4
'0:01.969',0.04
'0:01.973',0.36
'0:01.977',0.33
'0:01.980',0.4
'0:01.984',0.59
'0:01.988',0.76
'0:01.992',1.31
'0:01.996',1.71
'0:02.000',1.77
'0:02.004',1.89
'0:02.008',1.88
'0:02.012',1.78
'0:02.016',1.28
'0:02.020',0.05
'0:02.023',-0.89
'0:02.027',-1.12
'0:02.031',-0.93
'0:02.035',-1.22
'0:02.039',-2.11
'0:02.043',-2.63
'0:02.047',-2.47
'0:02.051',-2.08
'0:02.055',-2.32
'0:02.059',-3.03
'0:02.063',-3.31
'0:02.066',-2.73
'0:02.070',-0.96
'0:02.074',2.09
'0:02.078',6.06
'0:02.082',10.01
'0:02.086',11.8
'0:02.090',9.05
'0:02.094',2.22
'0:02.098',-4.01
'0:02.102',-6.87
'0:02.105',-7.22
'0:02.109',-7.13
'0:02.113',-6.78
'0:02.117',-6.35
'0:02.121',-5.91
'0:02.125',-5.11
'0:02.129',-4.3
'0:02.133',-3.61
'0:02.137',-3.02
'0:02.141',-2.81
'0:02.145',-2.43
'0:02.148',-1.83
'0:02.152',-0.65
'0:02.156',0.31
'0:02.160',-0.36
'0:02.164',-1.32
'0:02.168',-1.04
'0:02.172',-0.27
'0:02.176',0.94
'0:02.180',1.43
'0:02.184',0.93
'0:02.188',-0.13
'0:02.191',-0.85
'0:02.195',-1.27
'0:02.199',-1.71
'0:02.203',-0.95
'0:02.207',0.34
'0:02.211',1.34
'0:02.215',1.78
'0:02.219',2.01
'0:02.223',2.35
'0:02.227',2.29
'0:02.230',1.7
'0:02.234',1.41
'0:02.238',0.84
'0:02.242',0.42
'0:02.246',-0.07
'0:02.250',-0.59
'0:02.254',-0.8
'0:02.258',-0.53
'0:02.262',0.25
'0:02.266',1.25
'0:02.270',1.19
'0:02.273',0.89
'0:02.277',1.35
'0:02.281',2.08
'0:02.285',2.09
'0:02.289',1.03
'0:02.293',0.63
'0:02.297',0.82
'0:02.301',1.01
'0:02.305',2.33
'0:02.309',4.22
'0:02.313',3.75
'0:02.316',0.67
'0:02.320',-2.06
'0:02.324',-3.03
'0:02.328',-1.7
'0:02.332',-0.79
'0:02.336',-1.62
'0:02.340',-2.62
'0:02.344',-3.39
'0:02.348',-3.58
'0:02.352',-3.53
'0:02.355',-2.69
'0:02.359',-1.8
'0:02.363',-0.33
'0:02.367',1.55
'0:02.371',3.46
'0:02.375',3.81
'0:02.379',2.49
'0:02.383',1.01
'0:02.387',-0.02
'0:02.391',-2.12
'0:02.395',-4.11
'0:02.398',-3.94
'0:02.402',-3.16
'0:02.406',-2.68
'0:02.410',-2.21
'0:02.414',-1.92
'0:02.418',-2.22
'0:02.422',-2.34
'0:02.426',-2.24
'0:02.430',-1.97
'0:02.434',-1.3
'0:02.438',-0.52
'0:02.441',0.06
'0:02.445',0.15
'0:02.449',-0.04
'0:02.453',-0.04
'0:02.457',0.15
'0:02.461',0.4
'0:02.465',0.54
'0:02.469',0.69
'0:02.473',0.98
'0:02.477',1.47
'0:02.480',1.88
'0:02.484',2.2
'0:02.488',2.28
'0:02.492',2.35
'0:02.496',2.62
'0:02.500',3
'0:02.504',3.3
'0:02.508',3.46
'0:02.512',3.41
'0:02.516',3.32
'0:02.520',3.36
'0:02.523',3.56
'0:02.527',3.63
'0:02.531',3.05
'0:02.535',1.88
'0:02.539',0.93
'0:02.543',1.01
'0:02.547',1.48
'0:02.551',1.25
'0:02.555',0.41
'0:02.559',-0.12
'0:02.563',0.06
'0:02.566',0.6
'0:02.570',1.31
'0:02.574',1.58
'0:02.578',1.11
'0:02.582',0.42
'0:02.586',0.44
'0:02.590',0.5
'0:02.594',0.17
'0:02.598',-0.35
'0:02.602',-1.11
'0:02.605',-1.69
'0:02.609',-1.76
'0:02.613',-1.58
'0:02.617',-1.38
'0:02.621',-1.27
'0:02.625',-1.5
'0:02.629',-2.08
'0:02.633',-2.42
'0:02.637',-2.38
'0:02.641',-2.13
'0:02.645',-1.49
'0:02.648',-0.1
'0:02.652',2.31
'0:02.656',4.88
'0:02.660',6.01
'0:02.664',4.6
'0:02.668',1.1
'0:02.672',-2.45
'0:02.676',-4.77
'0:02.680',-5.62
'0:02.684',-5
'0:02.688',-3.9
'0:02.691',-3.51
'0:02.695',-3.81
'0:02.699',-4.19
'0:02.703',-4.26
'0:02.707',-3.75
'0:02.711',-2.66
'0:02.715',-1.69
'0:02.719',-1.56
'0:02.723',-1.62
'0:02.727',-1.73
'0:02.730',-1.67
'0:02.734',-1.39
'0:02.738',-1.32
'0:02.742',-1.24
'0:02.746',-1.21
'0:02.750',-1.24
'0:02.754',-0.82
'0:02.758',0
'0:02.762',0.74
'0:02.766',1.43
'0:02.770',1.84
'0:02.773',2.47
'0:02.777',3.29
'0:02.781',4.23
'0:02.785',4.93
'0:02.789',5.04
'0:02.793',5.06
'0:02.797',5.25
'0:02.801',5.55
'0:02.805',5.59
'0:02.809',4.07
'0:02.813',2.09
'0:02.816',1.11
'0:02.820',0.61
'0:02.824',0.29
'0:02.828',0.18
'0:02.832',0.1
'0:02.836',0.03
'0:02.840',0.17
'0:02.844',0.69
'0:02.848',1.27
'0:02.852',1.04
'0:02.855',0.93
'0:02.859',1.07
'0:02.863',1.07
'0:02.867',1.22
'0:02.871',1.24
'0:02.875',0.72
'0:02.879',0.35
'0:02.883',-0.3
'0:02.887',-1.12
'0:02.891',-1.3
'0:02.895',-1.12
'0:02.898',-1.87
'0:02.902',-2.73
'0:02.906',-2.91
'0:02.910',-2.38
'0:02.914',-1.92
'0:02.918',-2.1
'0:02.922',-3.03
'0:02.926',-3.87
'0:02.930',-3.56
'0:02.934',-2.43
'0:02.938',0.29
'0:02.941',3.88
'0:02.945',6.59
'0:02.949',7.39
'0:02.953',5.17
'0:02.957',1.32
'0:02.961',-2.02
'0:02.965',-4.08
'0:02.969',-4.35
'0:02.973',-3.4
'0:02.977',-3.67
'0:02.980',-5.27
'0:02.984',-5.98
'0:02.988',-5.45
'0:02.992',-5.29
'0:02.996',-5.43
'0:03.000',-5.43
'0:03.004',-4.8
'0:03.008',-3.65
'0:03.012',-2.41
'0:03.016',-1.24
'0:03.020',-1.15
'0:03.023',-1.61
'0:03.027',-1.88
'0:03.031',-2.2
'0:03.035',-2.16
'0:03.039',-1.61
'0:03.043',-0.74
'0:03.047',-0.11
'0:03.051',0.1
'0:03.055',0.49
'0:03.059',1.86
'0:03.063',3.18
'0:03.066',3.46
'0:03.070',2.56
'0:03.074',1.68
'0:03.078',1.77
'0:03.082',2.29
'0:03.086',2.57
'0:03.090',3.08
'0:03.094',3.79
'0:03.098',3.7
'0:03.102',2.75
'0:03.105',2.84
'0:03.109',3.55
'0:03.113',3.39
'0:03.117',0.9
'0:03.121',-0.97
'0:03.125',-1.78
'0:03.129',-1.74
'0:03.133',-1.4
'0:03.137',-0.98
'0:03.141',-0.01
'0:03.145',1.16
'0:03.148',1.71
'0:03.152',1.7
'0:03.156',1.63
'0:03.160',1.39
'0:03.164',1.3
'0:03.168',1.01
'0:03.172',0.58
'0:03.176',0.19
'0:03.180',-0.21
'0:03.184',-0.38
'0:03.188',-1.75
'0:03.191',-1.98
'0:03.195',-1.33
'0:03.199',-1.23
'0:03.203',-1.45
'0:03.207',-0.8
'0:03.211',-1.13
'0:03.215',-1.33
'0:03.219',-1.4
'0:03.223',-0.87
'0:03.227',0.73
'0:03.230',2.18
'0:03.234',4.1
'0:03.238',4.77
'0:03.242',2.81
'0:03.246',-0.09
'0:03.250',-2.57
'0:03.254',-4.24
'0:03.258',-4.08
'0:03.262',-3.45
'0:03.266',-2.64
'0:03.270',-1.85
'0:03.273',-1.71
'0:03.277',-1.84
'0:03.281',-1.65
'0:03.285',-1.23
'0:03.289',-1.12
'0:03.293',-1.39
'0:03.297',-1.43
'0:03.301',-1.23
'0:03.305',-0.88
'0:03.309',-0.58
'0:03.313',-0.31
'0:03.316',-0.16
'0:03.320',-0.1
'0:03.324',0.01
'0:03.328',0.22
'0:03.332',0.67
'0:03.336',1.3
'0:03.340',1.72
'0:03.344',1.7
'0:03.348',1.76
'0:03.352',2.06
'0:03.355',2.42
'0:03.359',2.72
'0:03.363',3.13
'0:03.367',3.8
'0:03.371',4.27
'0:03.375',4.04
'0:03.379',3.41
'0:03.383',3.31
'0:03.387',3.3
'0:03.391',2.91
'0:03.395',2.18
'0:03.398',1.67
'0:03.402',0.89
'0:03.406',0.35
'0:03.410',0.28
'0:03.414',0.8
'0:03.418',1.14
'0:03.422',0.61
'0:03.426',0.32
'0:03.430',0.24
'0:03.434',0.17
'0:03.438',0.31
'0:03.441',0.77
'0:03.445',1.67
'0:03.449',2.12
'0:03.453',1.64
'0:03.457',0.28
'0:03.461',-1.26
'0:03.465',-2.13
'0:03.469',-2.31
'0:03.473',-2.08
'0:03.477',-1.47
'0:03.480',-1.4
'0:03.484',-2.24
'0:03.488',-2.83
'0:03.492',-2.8
'0:03.496',-2.37
'0:03.500',-1.88
'0:03.504',-2
'0:03.508',-2.17
'0:03.512',-1.3
'0:03.516',0.7
'0:03.520',2.87
'0:03.523',4.44
'0:03.527',4.07
'0:03.531',1.95
'0:03.535',-0.46
'0:03.539',-2.75
'0:03.543',-4.79
'0:03.547',-5.63
'0:03.551',-5.59
'0:03.555',-4.93
'0:03.559',-4.13
'0:03.563',-3.45
'0:03.566',-3.02
'0:03.570',-3.09
'0:03.574',-3.11
'0:03.578',-2.92
'0:03.582',-2.6
'0:03.586',-2.02
'0:03.590',-1.44
'0:03.594',-1.33
'0:03.598',-0.83
'0:03.602',-0.39
'0:03.605',-0.44
'0:03.609',-0.03
'0:03.613',0.61
'0:03.617',0.77
'0:03.621',0.85
'0:03.625',0.98
'0:03.629',1.54
'0:03.633',2.07
'0:03.637',3.05
'0:03.641',4.33
'0:03.645',5.03
'0:03.648',5.87
'0:03.652',6.88
'0:03.656',6.45
'0:03.660',4.33
'0:03.664',2.75
'0:03.668',2.37
'0:03.672',2.53
'0:03.676',3.21
'0:03.680',3.85
'0:03.684',3.67
'0:03.688',1.84
'0:03.691',-0.34
'0:03.695',-1.62
'0:03.699',-2.01
'0:03.703',-1.58
'0:03.707',-0.38
'0:03.711',0.95
'0:03.715',1.68
'0:03.719',1.7
'0:03.723',1.61
'0:03.727',1.85
'0:03.730',1.44
'0:03.734',0.04
'0:03.738',-1.91
'0:03.742',-3.03
'0:03.746',-3.29
'0:03.750',-3.21
'0:03.754',-2.91
'0:03.758',-1.92
'0:03.762',-0.6
'0:03.766',-0.78
'0:03.770',-2.32
'0:03.773',-3.74
'0:03.777',-4.38
'0:03.781',-4.41
'0:03.785',-4.48
'0:03.789',-4.18
'0:03.793',-3.39
'0:03.797',-1.9
'0:03.801',0.44
'0:03.805',3.1
'0:03.809',5.79
'0:03.813',7.36
'0:03.816',6.41
'0:03.820',3.14
'0:03.824',-1.23
'0:03.828',-4.95
'0:03.832',-6.86
'0:03.836',-7.47
'0:03.840',-7.12
'0:03.844',-6.36
'0:03.848',-5.32
'0:03.852',-4.99
'0:03.855',-4.65
'0:03.859',-4.41
'0:03.863',-4.47
'0:03.867',-3.73
'0:03.871',-2.81
'0:03.875',-2.29
'0:03.879',-2.11
'0:03.883',-1.91
'0:03.887',-1.65
'0:03.891',-1.23
'0:03.895',-0.99
'0:03.898',-0.58
'0:03.902',-0.46
'0:03.906',-0.55
'0:03.910',-0.63
'0:03.914',-0.29
'0:03.918',0.92
'0:03.922',1.99
'0:03.926',2.3
'0:03.930',2.6
'0:03.934',3.45
'0:03.938',4.52
'0:03.941',5.01
'0:03.945',5.31
'0:03.949',5.23
'0:03.953',4.48
'0:03.957',3.58
'0:03.961',3.27
'0:03.965',3.27
'0:03.969',3.05
'0:03.973',2.9
'0:03.977',2.42
'0:03.980',1.44
'0:03.984',0.72
'0:03.988',0.7
'0:03.992',0.53
'0:03.996',-0.45
'0:04.000',-1.01
'0:04.004',-0.58
'0:04.008',-0.37
'0:04.012',0.13
'0:04.016',1.85
'0:04.020',3.37
'0:04.023',3.67
'0:04.027',2.71
'0:04.031',1.18
'0:04.035',0.57
'0:04.039',-0.26
'0:04.043',-0.29
'0:04.047',-0.01
'0:04.051',0.44
'0:04.055',0.35
'0:04.059',-0.26
'0:04.063',-0.14
'0:04.066',-0.36
'0:04.070',-1.9
'0:04.074',-3.36
'0:04.078',-3.7
'0:04.082',-2.65
'0:04.086',-1.14
'0:04.090',1.23
'0:04.094',4.07
'0:04.098',5.57
'0:04.102',4.01
'0:04.105',0.97
'0:04.109',-1.55
'0:04.113',-2.98
'0:04.117',-3.39
'0:04.121',-3.44
'0:04.125',-3.29
'0:04.129',-3.13
'0:04.133',-2.85
'0:04.137',-2.58
'0:04.141',-2.36
'0:04.145',-2.12
'0:04.148',-1.79
'0:04.152',-1.35
'0:04.156',-0.96
'0:04.160',-0.76
'0:04.164',-0.68
'0:04.168',-0.58
'0:04.172',-0.33
'0:04.176',-0.19
'0:04.180',-0.41
'0:04.184',-0.64
'0:04.188',-0.57
'0:04.191',-0.06
'0:04.195',0.65
'0:04.199',1.17
'0:04.203',1.43
'0:04.207',1.79
'0:04.211',2.67
'0:04.215',3.86
'0:04.219',5.01
'0:04.223',5.82
'0:04.227',6.18
'0:04.230',5.81
'0:04.234',5.31
'0:04.238',4.84
'0:04.242',3.78
'0:04.246',2.95
'0:04.250',3.15
'0:04.254',3.23
'0:04.258',2.17
'0:04.262',0.61
'0:04.266',-0.51
'0:04.270',-1.15
'0:04.273',-1.33
'0:04.277',-0.86
'0:04.281',0.09
'0:04.285',0.73
'0:04.289',0.88
'0:04.293',1.3
'0:04.297',1.36
'0:04.301',0.55
'0:04.305',-0.15
'0:04.309',-0.4
'0:04.313',-0.65
'0:04.316',-0.38
'0:04.320',0.33
'0:04.324',0.65
'0:04.328',-0.21
'0:04.332',-1.08
'0:04.336',-1.77
'0:04.340',-2.77
'0:04.344',-3.51
'0:04.348',-3.67
'0:04.352',-3.45
'0:04.355',-3.04
'0:04.359',-3.06
'0:04.363',-3.47
'0:04.367',-3.48
'0:04.371',-3.12
'0:04.375',-2.01
'0:04.379',0.25
'0:04.383',2.77
'0:04.387',4.42
'0:04.391',4.03
'0:04.395',1.44
'0:04.398',-1.57
'0:04.402',-3.54
'0:04.406',-4.62
'0:04.410',-5.04
'0:04.414',-4.77
'0:04.418',-4.22
'0:04.422',-3.39
'0:04.426',-2.44
'0:04.430',-1.57
'0:04.434',-1.53
'0:04.438',-2.42
'0:04.441',-2.67
'0:04.445',-2.31
'0:04.449',-2.05
'0:04.453',-1.6
'0:04.457',-0.85
'0:04.461',-0.27
'0:04.465',-0.15
'0:04.469',-0.08
'0:04.473',0.47
'0:04.477',0.86
'0:04.480',0.93
'0:04.484',1.06
'0:04.488',1.4
'0:04.492',1.96
'0:04.496',2.78
'0:04.500',3.89
'0:04.504',4.1
'0:04.508',3.5
'0:04.512',3.34
'0:04.516',3.29
'0:04.520',3.34
'0:04.523',3.68
'0:04.527',3.88
'0:04.531',4
'0:04.535',3.48
'0:04.539',2.19
'0:04.543',1.33
'0:04.547',2.08
'0:04.551',2.57
'0:04.555',1.13
'0:04.559',-0.63
'0:04.563',-1.09
'0:04.566',-1.18
'0:04.570',-1.84
'0:04.574',-2.1
'0:04.578',-1.86
'0:04.582',-1.3
'0:04.586',-0.78
'0:04.590',-0.31
'0:04.594',-0.32
'0:04.598',-0.94
'0:04.602',-1.64
'0:04.605',-1.84
'0:04.609',-1.55
'0:04.613',-1.16
'0:04.617',-0.73
'0:04.621',0.06
'0:04.625',-0.13
'0:04.629',-1.91
'0:04.633',-3.4
'0:04.637',-4.05
'0:04.641',-4.14
'0:04.645',-3.68
'0:04.648',-3.35
'0:04.652',-3.52
'0:04.656',-3.59
'0:04.660',-2.71
'0:04.664',-0.78
'0:04.668',1.89
'0:04.672',4.97
'0:04.676',6.62
'0:04.680',5.2
'0:04.684',2.04
'0:04.688',-0.59
'0:04.691',-2.34
'0:04.695',-3.73
'0:04.699',-4.81
'0:04.703',-5.21
'0:04.707',-5.08
'0:04.711',-4.62
'0:04.715',-4.34
'0:04.719',-4.08
'0:04.723',-3.7
'0:04.727',-3.1
'0:04.730',-2.5
'0:04.734',-2.24
'0:04.738',-1.96
'0:04.742',-1.52
'0:04.746',-1.2
'0:04.750',-1.02
'0:04.754',-0.99
'0:04.758',-0.71
'0:04.762',-0.2
'0:04.766',0.3
'0:04.770',0.51
'0:04.773',0.43
'0:04.777',0.48
'0:04.781',1.01
'0:04.785',1.76
'0:04.789',2.4
'0:04.793',2.73
'0:04.797',2.8
'0:04.801',3.04
'0:04.805',3.47
'0:04.809',3.45
'0:04.813',3.41
'0:04.816',3.44
'0:04.820',3.36
'0:04.824',2.99
'0:04.828',2.53
'0:04.832',2.26
'0:04.836',2.22
'0:04.840',2.13
'0:04.844',1.74
'0:04.848',1.22
'0:04.852',1.24
'0:04.855',1.72
'0:04.859',2.17
'0:04.863',2.27
'0:04.867',2.46
'0:04.871',2.19
'0:04.875',1.73
'0:04.879',1.05
'0:04.883',0.48
'0:04.887',0.42
'0:04.891',0.62
'0:04.895',1.33
'0:04.898',1.76
'0:04.902',1.34
'0:04.906',0.23
'0:04.910',-0.58
'0:04.914',-0.63
'0:04.918',-0.58
'0:04.922',-0.92
'0:04.926',-2.27
'0:04.930',-3.35
'0:04.934',-3.5
'0:04.938',-2.78
'0:04.941',-1.6
'0:04.945',-1.37
'0:04.949',-1.4
'0:04.953',-0.42
'0:04.957',1.2
'0:04.961',2.51
'0:04.965',2.21
'0:04.969',1.24
'0:04.973',-0.69
'0:04.977',-2.2
'0:04.980',-2.97
'0:04.984',-3.69
'0:04.988',-3.99
'0:04.992',-3.52
'0:04.996',-2.89
'0:05.000',-2.42
'0:05.004',-2.02
'0:05.008',-1.6
'0:05.012',-1.32
'0:05.016',-1.32
'0:05.020',-1.24
'0:05.023',-1.22
'0:05.027',-1.06
'0:05.031',-0.66
'0:05.035',-0.11
'0:05.039',0.23
'0:05.043',0.38
'0:05.047',0.72
'0:05.051',1.01
'0:05.055',0.57
'0:05.059',0
'0:05.063',0.17
'0:05.066',0.72
'0:05.070',1.46
'0:05.074',2.41
'0:05.078',3.33
'0:05.082',3.84
'0:05.086',3.79
'0:05.090',3.2
'0:05.094',3.01
'0:05.098',3.4
'0:05.102',3.98
'0:05.105',4.29
'0:05.109',3.97
'0:05.113',2.6
'0:05.117',1.65
'0:05.121',1.69
'0:05.125',1.75
'0:05.129',1.56
'0:05.133',1.63
'0:05.137',1.33
'0:05.141',0.45
'0:05.145',-0.17
'0:05.148',-0.31
'0:05.152',-0.18
'0:05.156',0.15
'0:05.160',0.52
'0:05.164',0.85
'0:05.168',0.94
'0:05.172',1.03
'0:05.176',0.74
'0:05.180',0.05
'0:05.184',-0.59
'0:05.188',-0.78
'0:05.191',-1.15
'0:05.195',-1.81
'0:05.199',-2.32
'0:05.203',-2.5
'0:05.207',-2.52
'0:05.211',-2.53
'0:05.215',-2.51
'0:05.219',-2.48
'0:05.223',-2.28
'0:05.227',-1.79
'0:05.230',-1.18
'0:05.234',-0.98
'0:05.238',-1.03
'0:05.242',0.05
'0:05.246',2.36
'0:05.250',4.17
'0:05.254',3.6
'0:05.258',0.97
'0:05.262',-2.17
'0:05.266',-4.21
'0:05.270',-4.97
'0:05.273',-4.99
'0:05.277',-4.67
'0:05.281',-4.22
'0:05.285',-3.62
'0:05.289',-3.11
'0:05.293',-2.82
'0:05.297',-2.72
'0:05.301',-2.66
'0:05.305',-2.54
'0:05.309',-2.21
'0:05.313',-1.76
'0:05.316',-1.24
'0:05.320',-0.98
'0:05.324',-0.89
'0:05.328',-0.7
'0:05.332',-0.4
'0:05.336',-0.08
'0:05.340',0.12
'0:05.344',0.36
'0:05.348',0.61
'0:05.352',0.89
'0:05.355',1.28
'0:05.359',1.76
'0:05.363',2.51
'0:05.367',3.31
'0:05.371',3.79
'0:05.375',4.1
'0:05.379',4.29
'0:05.383',4.31
'0:05.387',4.08
'0:05.391',3.75
'0:05.395',3.46
'0:05.398',3.41
'0:05.402',3.18
'0:05.406',2.7
'0:05.410',2.08
'0:05.414',1.52
'0:05.418',0.77
'0:05.422',0.3
'0:05.426',0.18
'0:05.430',0.13
'0:05.434',0.01
'0:05.438',0.25
'0:05.441',0.77
'0:05.445',1.28
'0:05.449',1.31
'0:05.453',0.79
'0:05.457',0.67
'0:05.461',0.63
'0:05.465',-0.27
'0:05.469',-1.38
'0:05.473',-1.95
'0:05.477',-2.09
'0:05.480',-2.09
'0:05.484',-2.23
'0:05.488',-2.65
'0:05.492',-3.12
'0:05.496',-3.33
'0:05.500',-3.34
'0:05.504',-3.19
'0:05.508',-2.31
'0:05.512',-0.95
'0:05.516',-0.73
'0:05.520',-1.35
'0:05.523',-1.64
'0:05.527',-0.85
'0:05.531',1.13
'0:05.535',3.73
'0:05.539',4.88
'0:05.543',3.07
'0:05.547',-0.65
'0:05.551',-3.71
'0:05.555',-5.4
'0:05.559',-6.15
'0:05.563',-5.85
'0:05.566',-5.06
'0:05.570',-4.67
'0:05.574',-4.17
'0:05.578',-3.7
'0:05.582',-3.67
'0:05.586',-3.3
'0:05.590',-2.75
'0:05.594',-2.54
'0:05.598',-2.73
'0:05.602',-2.96
'0:05.605',-2.3
'0:05.609',-1.94
'0:05.613',-1.92
'0:05.617',-1.64
'0:05.621',-1.19
'0:05.625',-0.6
'0:05.629',-0.01
'0:05.633',0.44
'0:05.637',0.65
'0:05.641',1.08
'0:05.645',1.34
'0:05.648',1.44
'0:05.652',1.37
'0:05.656',1.44
'0:05.660',2.15
'0:05.664',3.24
'0:05.668',4.28
'0:05.672',4.41
'0:05.676',3.73
'0:05.680',3.01
'0:05.684',2.19
'0:05.688',1.46
'0:05.691',0.97
'0:05.695',0.78
'0:05.699',0.72
'0:05.703',0.63
'0:05.707',0.53
'0:05.711',0.4
'0:05.715',0.91
'0:05.719',1.22
'0:05.723',1.27
'0:05.727',1.91
'0:05.730',2.92
'0:05.734',3.73
'0:05.738',4.03
'0:05.742',3.4
'0:05.746',2.52
'0:05.750',1.93
'0:05.754',1.39
'0:05.758',1.33
'0:05.762',1.73
'0:05.766',2.15
'0:05.770',2.01
'0:05.773',0.75
'0:05.777',-1.54
'0:05.781',-2.76
'0:05.785',-2.73
'0:05.789',-1.85
'0:05.793',-0.67
'0:05.797',-0.37
'0:05.801',-0.52
'0:05.805',-1.71
'0:05.809',-3.25
'0:05.813',-3.44
'0:05.816',-1.1
'0:05.820',2.84
'0:05.824',6.32
'0:05.828',5.24
'0:05.832',0.92
'0:05.836',-2.55
'0:05.840',-3.64
'0:05.844',-2.78
'0:05.848',-1.08
'0:05.852',-1.07
'0:05.855',-2.98
'0:05.859',-4.26
'0:05.863',-5.33
'0:05.867',-4.53
'0:05.871',-2.92
'0:05.875',-2.04
'0:05.879',-1.74
'0:05.883',-1.14
'0:05.887',-0.89
'0:05.891',-0.45
'0:05.895',-0.2
'0:05.898',-0.79
'0:05.902',-1.46
'0:05.906',-1.32
'0:05.910',-0.06
'0:05.914',1.54
'0:05.918',1.96
'0:05.922',0.74
'0:05.926',0.08
'0:05.930',0.14
'0:05.934',0.63
'0:05.938',1.43
'0:05.941',2.08
'0:05.945',2.55
'0:05.949',3
'0:05.953',3.49
'0:05.957',3.77
'0:05.961',3.65
'0:05.965',2.98
'0:05.969',2.33
'0:05.973',2.15
'0:05.977',2.11
'0:05.980',1.88
'0:05.984',1.5
'0:05.988',1.11
'0:05.992',0.85
'0:05.996',0.74
'0:06.000',0.63
'0:06.004',0.59
'0:06.008',0.91
'0:06.012',1.27
'0:06.016',1.57
'0:06.020',1.58
'0:06.023',1.24
'0:06.027',0.9
'0:06.031',0.92
'0:06.035',0.96
'0:06.039',0.78
'0:06.043',0.45
'0:06.047',-0.08
'0:06.051',-0.73
'0:06.055',-1.32
'0:06.059',-1.61
'0:06.063',-1.77
'0:06.066',-1.8
'0:06.070',-2.08
'0:06.074',-2.33
'0:06.078',-2.39
'0:06.082',-2.44
'0:06.086',-2.39
'0:06.090',-2.25
'0:06.094',-1.81
'0:06.098',-1.01
'0:06.102',0.94
'0:06.105',3.78
'0:06.109',6.46
'0:06.113',6.63
'0:06.117',3.63
'0:06.121',-0.62
'0:06.125',-3.63
'0:06.129',-5.06
'0:06.133',-5.53
'0:06.137',-5.35
'0:06.141',-5.02
'0:06.145',-4.64
'0:06.148',-3.85
'0:06.152',-3.11
'0:06.156',-2.52
'0:06.160',-2.31
'0:06.164',-2.27
'0:06.168',-1.93
'0:06.172',-1.42
'0:06.176',-0.97
'0:06.180',-0.95
'0:06.184',-1.19
'0:06.188',-1.34
'0:06.191',-1.24
'0:06.195',-1.23
'0:06.199',-1.36
'0:06.203',-1.21
'0:06.207',-0.53
'0:06.211',0.3
'0:06.215',1.16
'0:06.219',1.95
'0:06.223',2.34
'0:06.227',2.19
'0:06.230',2.51
'0:06.234',3.43
'0:06.238',3.93
'0:06.242',3.63
'0:06.246',3.14
'0:06.250',2.77
'0:06.254',2.36
'0:06.258',2.16
'0:06.262',2.01
'0:06.266',1.67
'0:06.270',1
'0:06.273',0.39
'0:06.277',0.09
'0:06.281',-0.17
'0:06.285',-0.15
'0:06.289',-0.11
'0:06.293',0.5
'0:06.297',1.36
'0:06.301',1.75
'0:06.305',1.93
'0:06.309',2.06
'0:06.313',1.09
'0:06.316',-0.09
'0:06.320',-0.84
'0:06.324',-1.16
'0:06.328',-0.51
'0:06.332',0.05
'0:06.336',-0.94
'0:06.340',-1.83
'0:06.344',-2.72
'0:06.348',-3.7
'0:06.352',-4.32
'0:06.355',-4.33
'0:06.359',-3.52
'0:06.363',-1.92
'0:06.367',-0.79
'0:06.371',-1.07
'0:06.375',-1.98
'0:06.379',-2.22
'0:06.383',-2.3
'0:06.387',-1.74
'0:06.391',0.43
'0:06.395',3.96
'0:06.398',7.41
'0:06.402',7.57
'0:06.406',3.95
'0:06.410',-0.38
'0:06.414',-3.25
'0:06.418',-4.96
'0:06.422',-5.55
'0:06.426',-5.11
'0:06.430',-4.29
'0:06.434',-3.72
'0:06.438',-3.08
'0:06.441',-2.9
'0:06.445',-3.16
'0:06.449',-3.04
'0:06.453',-2.62
'0:06.457',-2.3
'0:06.461',-2.13
'0:06.465',-2.17
'0:06.469',-1.89
'0:06.473',-1.5
'0:06.477',-1.28
'0:06.480',-0.88
'0:06.484',-0.34
'0:06.488',0.1
'0:06.492',0.71
'0:06.496',1.84
'0:06.500',2.77
'0:06.504',2.69
'0:06.508',1.97
'0:06.512',1.71
'0:06.516',2.09
'0:06.520',3.1
'0:06.523',3.91
'0:06.527',3.96
'0:06.531',4
'0:06.535',3.74
'0:06.539',3.45
'0:06.543',3.08
'0:06.547',2.39
'0:06.551',1.35
'0:06.555',0.86
'0:06.559',0.93
'0:06.563',1.07
'0:06.566',0.9
'0:06.570',0.44
'0:06.574',0.19
'0:06.578',0.26
'0:06.582',1.24
'0:06.586',1.96
'0:06.590',1.91
'0:06.594',1.61
'0:06.598',1.34
'0:06.602',1.39
'0:06.605',0.9
'0:06.609',0.53
'0:06.613',0.66
'0:06.617',0.44
'0:06.621',0.09
'0:06.625',-0.2
'0:06.629',-0.67
'0:06.633',-1.43
'0:06.637',-1.95
'0:06.641',-2.45
'0:06.645',-2.97
'0:06.648',-3.07
'0:06.652',-2.75
'0:06.656',-2.47
'0:06.660',-2.32
'0:06.664',-2.71
'0:06.668',-2.44
'0:06.672',-2.25
'0:06.676',-2.09
'0:06.680',-0.7
'0:06.684',1.61
'0:06.688',3.26
'0:06.691',2.94
'0:06.695',1.76
'0:06.699',-0.76
'0:06.703',-2.37
'0:06.707',-2.94
'0:06.711',-3.61
'0:06.715',-3.62
'0:06.719',-3.27
'0:06.723',-2.87
'0:06.727',-2.75
'0:06.730',-2.67
'0:06.734',-2.53
'0:06.738',-1.64
'0:06.742',-1.1
'0:06.746',-0.58
'0:06.750',-0.25
'0:06.754',-0.05
'0:06.758',-0.01
'0:06.762',0.05
'0:06.766',0.22
'0:06.770',0.79
'0:06.773',1.29
'0:06.777',1.52
'0:06.781',1.71
'0:06.785',1.96
'0:06.789',2.34
'0:06.793',2.85
'0:06.797',3.12
'0:06.801',2.94
'0:06.805',2.48
'0:06.809',2.31
'0:06.813',2.7
'0:06.816',3.68
'0:06.820',4.91
'0:06.824',5.43
'0:06.828',5.2
'0:06.832',4.15
'0:06.836',3.11
'0:06.840',2.69
'0:06.844',2.61
'0:06.848',2.13
'0:06.852',1.14
'0:06.855',0.16
'0:06.859',-0.41
'0:06.863',-0.53
'0:06.867',-0.33
'0:06.871',-0.01
'0:06.875',0.27
'0:06.879',0.52
'0:06.883',0.52
'0:06.887',0.34
'0:06.891',0.02
'0:06.895',-0.09
'0:06.898',0.14
'0:06.902',0.52
'0:06.906',0.5
'0:06.910',0.14
'0:06.914',-0.07
'0:06.918',-0.35
'0:06.922',-1.27
'0:06.926',-1.97
'0:06.930',-2.17
'0:06.934',-2.65
'0:06.938',-3.36
'0:06.941',-3.32
'0:06.945',-2.5
'0:06.949',-1.46
'0:06.953',-1.4
'0:06.957',-1.89
'0:06.961',-1.24
'0:06.965',0.4
'0:06.969',2.91
'0:06.973',5.55
'0:06.977',6.68
'0:06.980',4.83
'0:06.984',1.79
'0:06.988',-1
'0:06.992',-3.1
'0:06.996',-4.2
'0:07.000',-5
'0:07.004',-5.17
'0:07.008',-4.61
'0:07.012',-3.96
'0:07.016',-3.45
'0:07.020',-3.22
'0:07.023',-3.11
'0:07.027',-2.71
'0:07.031',-2.07
'0:07.035',-1.47
'0:07.039',-1.03
'0:07.043',-0.81
'0:07.047',-0.65
'0:07.051',-0.4
'0:07.055',-0.24
'0:07.059',-0.34
'0:07.063',-0.28
'0:07.066',0.1
'0:07.070',0.81
'0:07.074',1.17
'0:07.078',0.9
'0:07.082',0.51
'0:07.086',0.45
'0:07.090',1.17
'0:07.094',2.37
'0:07.098',3.38
'0:07.102',3.99
'0:07.105',4.57
'0:07.109',4.79
'0:07.113',4.05
'0:07.117',3.03
'0:07.121',2.23
'0:07.125',1.61
'0:07.129',1.36
'0:07.133',1.17
'0:07.137',0.69
'0:07.141',-0.16
'0:07.145',-0.94
'0:07.148',-1.21
'0:07.152',-1.06
'0:07.156',-0.52
'0:07.160',0.01
'0:07.164',0.02
'0:07.168',-0.09
'0:07.172',-0.01
'0:07.176',0.26
'0:07.180',0.59
'0:07.184',0.65
'0:07.188',0.7
'0:07.191',1.01
'0:07.195',0.77
'0:07.199',-0.06
'0:07.203',-0.82
'0:07.207',-1.33
'0:07.211',-1.78
'0:07.215',-2.12
'0:07.219',-2.41
'0:07.223',-2.61
'0:07.227',-2.86
'0:07.230',-3.19
'0:07.234',-3.26
'0:07.238',-2.78
'0:07.242',-1.87
'0:07.246',-0.83
'0:07.250',0.4
'0:07.254',2.47
'0:07.258',5.23
'0:07.262',7.72
'0:07.266',8.02
'0:07.270',4.85
'0:07.273',0.24
'0:07.277',-3.37
'0:07.281',-5.7
'0:07.285',-6.66
'0:07.289',-6.46
'0:07.293',-5.7
'0:07.297',-4.69
'0:07.301',-4.08
'0:07.305',-3.69
'0:07.309',-3.33
'0:07.313',-3
'0:07.316',-2.86
'0:07.320',-2.69
'0:07.324',-2.17
'0:07.328',-1.65
'0:07.332',-1.39
'0:07.336',-1.21
'0:07.340',-1.1
'0:07.344',-1.02
'0:07.348',-0.77
'0:07.352',-0.6
'0:07.355',-0.53
'0:07.359',-0.31
'0:07.363',0.06
'0:07.367',0.6
'0:07.371',1.13
'0:07.375',1.38
'0:07.379',1.82
'0:07.383',2.53
'0:07.387',3.16
'0:07.391',3.51
'0:07.395',3.8
'0:07.398',3.74
'0:07.402',3.94
'0:07.406',4.21
'0:07.410',3.74
'0:07.414',3.44
'0:07.418',3.15
'0:07.422',2.39
'0:07.426',0.91
'0:07.430',-0.85
'0:07.434',-1.9
'0:07.438',-1.59
'0:07.441',-1.04
'0:07.445',-1.05
'0:07.449',-1.17
'0:07.453',-0.95
'0:07.457',-0.11
'0:07.461',0.94
'0:07.465',1.34
'0:07.469',0.76
'0:07.473',0.13
'0:07.477',-0.17
'0:07.480',-0.14
'0:07.484',0.33
'0:07.488',0.58
'0:07.492',0.4
'0:07.496',0.59
'0:07.500',0.55
'0:07.504',-0.13
'0:07.508',-0.93
'0:07.512',-1.3
'0:07.516',-2.08
'0:07.520',-2.67
'0:07.523',-2.93
'0:07.527',-3.32
'0:07.531',-3.22
'0:07.535',-2.5
'0:07.539',-1.51
'0:07.543',0.07
'0:07.547',2.53
'0:07.551',5.45
'0:07.555',6.55
'0:07.559',4.81
'0:07.563',1.94
'0:07.566',-0.5
'0:07.570',-2.29
'0:07.574',-3.27
'0:07.578',-3.73
'0:07.582',-3.94
'0:07.586',-3.68
'0:07.590',-3.03
'0:07.594',-2.24
'0:07.598',-2.28
'0:07.602',-2.66
'0:07.605',-2.73
'0:07.609',-2.53
'0:07.613',-1.93
'0:07.617',-1.4
'0:07.621',-0.85
'0:07.625',0.77
'0:07.629',2.28
'0:07.633',1.62
'0:07.637',-0.26
'0:07.641',-1.53
'0:07.645',-2.01
'0:07.648',-1.63
'0:07.652',-0.66
'0:07.656',0
'0:07.660',0.25
'0:07.664',0.87
'0:07.668',1.72
'0:07.672',3.1
'0:07.676',4.11
'0:07.680',5.03
'0:07.684',4.83
'0:07.688',3.65
'0:07.691',2.42
'0:07.695',1.54
'0:07.699',0.64
'0:07.703',0.88
'0:07.707',1.89
'0:07.711',2.09
'0:07.715',1.85
'0:07.719',1.54
'0:07.723',0.77
'0:07.727',0.56
'0:07.730',0.67
'0:07.734',0.73
'0:07.738',0.6
'0:07.742',0.2
'0:07.746',0.06
'0:07.750',0.04
'0:07.754',0.14
'0:07.758',-0.03
'0:07.762',-0.27
'0:07.766',-0.04
'0:07.770',0.24
'0:07.773',0.14
'0:07.777',0.25
'0:07.781',0.37
'0:07.785',0.34
'0:07.789',-0.11
'0:07.793',-0.92
'0:07.797',-1.92
'0:07.801',-1.99
'0:07.805',-1.94
'0:07.809',-3.21
'0:07.813',-3.76
'0:07.816',-3.41
'0:07.820',-2.58
'0:07.824',-1.64
'0:07.828',-1.02
'0:07.832',-0.04
'0:07.836',1.65
'0:07.840',3.14
'0:07.844',2.57
'0:07.848',0.37
'0:07.852',-1.81
'0:07.855',-3.11
'0:07.859',-3.7
'0:07.863',-3.25
'0:07.867',-2.42
'0:07.871',-1.67
'0:07.875',-1.39
'0:07.879',-1.56
'0:07.883',-1.83
'0:07.887',-1.82
'0:07.891',-1.55
'0:07.895',-1.51
'0:07.898',-1.77
'0:07.902',-1.67
'0:07.906',-1.08
'0:07.910',-0.6
'0:07.914',-0.15
'0:07.918',0.4
'0:07.922',0.76
'0:07.926',0.85
'0:07.930',0.87
'0:07.934',1.11
'0:07.938',1.4
'0:07.941',1.79
'0:07.945',2.05
'0:07.949',2.1
'0:07.953',1.99
'0:07.957',2.05
'0:07.961',2.38
'0:07.965',2.79
'0:07.969',3.1
'0:07.973',3.3
'0:07.977',3.66
'0:07.980',4.07
'0:07.984',4.19
'0:07.988',3.67
'0:07.992',2.96
'0:07.996',2.42
'0:08.000',2
'0:08.004',1.75
'0:08.008',1.53
'0:08.012',1.29
'0:08.016',1.05
'0:08.020',0.72
'0:08.023',0.46
'0:08.027',0.39
'0:08.031',0.52
'0:08.035',0.71
'0:08.039',0.81
'0:08.043',0.71
'0:08.047',0.59
'0:08.051',0.54
'0:08.055',0.44
'0:08.059',0.34
'0:08.063',0.37
'0:08.066',0.18
'0:08.070',-0.4
'0:08.074',-0.91
'0:08.078',-1.17
'0:08.082',-1.37
'0:08.086',-1.57
'0:08.090',-1.89
'0:08.094',-2.04
'0:08.098',-2.02
'0:08.102',-2.15
'0:08.105',-1.93
'0:08.109',-1.4
'0:08.113',-0.72
'0:08.117',0.62
'0:08.121',2.71
'0:08.125',5.26
'0:08.129',6.52
'0:08.133',5.4
'0:08.137',2.57
'0:08.141',-0.49
'0:08.145',-2.82
'0:08.148',-4.04
'0:08.152',-4.39
'0:08.156',-4.56
'0:08.160',-4.55
'0:08.164',-4.15
'0:08.168',-3.55
'0:08.172',-2.75
'0:08.176',-1.73
'0:08.180',-0.54
'0:08.184',0.14
'0:08.188',-0.27
'0:08.191',-0.55
'0:08.195',-0.58
'0:08.199',-1.39
'0:08.203',-2.05
'0:08.207',-2.02
'0:08.211',-2.05
'0:08.215',-1.73
'0:08.219',-0.73
'0:08.223',0.46
'0:08.227',1.1
'0:08.230',0.98
'0:08.234',0.46
'0:08.238',0.26
'0:08.242',0.85
'0:08.246',3.75
'0:08.250',7.19
'0:08.254',6.11
'0:08.258',2.96
'0:08.262',2.06
'0:08.266',2.08
'0:08.270',0.56
'0:08.273',-0.67
'0:08.277',-1.39
'0:08.281',-1.75
'0:08.285',-1.57
'0:08.289',-0.85
'0:08.293',0.23
'0:08.297',0.3
'0:08.301',-0.4
'0:08.305',-0.88
'0:08.309',-1.19
'0:08.313',-1.06
'0:08.316',-0.71
'0:08.320',-0.46
'0:08.324',-0.36
'0:08.328',-0.29
'0:08.332',-0.08
'0:08.336',0.37
'0:08.340',0.79
'0:08.344',1.21
'0:08.348',1.77
'0:08.352',0.4
'0:08.355',-2.61
'0:08.359',-4.3
'0:08.363',-4.52
'0:08.367',-4.28
'0:08.371',-4.01
'0:08.375',-3.86
'0:08.379',-3.6
'0:08.383',-3.2
'0:08.387',-2.97
'0:08.391',-3.29
'0:08.395',-3.43
'0:08.398',-2.99
'0:08.402',-1.96
'0:08.406',0.14
'0:08.410',3.17
'0:08.414',6.04
'0:08.418',6.75
'0:08.422',5.22
'0:08.426',2.65
'0:08.430',-1.07
'0:08.434',-4.63
'0:08.438',-6.41
'0:08.441',-6.94
'0:08.445',-6.17
'0:08.449',-4.68
'0:08.453',-3.89
'0:08.457',-3.65
'0:08.461',-3.55
'0:08.465',-3.33
'0:08.469',-3.06
'0:08.473',-2.44
'0:08.477',-1.72
'0:08.480',-1.16
'0:08.484',-0.72
'0:08.488',-0.35
'0:08.492',-0.11
'0:08.496',0.18
'0:08.500',1.03
'0:08.504',2.59
'0:08.508',3.17
'0:08.512',1.49
'0:08.516',-0.24
'0:08.520',-0.77
'0:08.523',-0.24
'0:08.527',0.69
'0:08.531',2.36
'0:08.535',4.49
'0:08.539',5.08
'0:08.543',3.95
'0:08.547',2.82
'0:08.551',2.19
'0:08.555',2
'0:08.559',2.15
'0:08.563',2.22
'0:08.566',1.79
'0:08.570',1.23
'0:08.574',0.9
'0:08.578',0.83
'0:08.582',0.72
'0:08.586',0.67
'0:08.590',0.81
'0:08.594',0.85
'0:08.598',0.78
'0:08.602',0.86
'0:08.605',1.19
'0:08.609',1.47
'0:08.613',1.47
'0:08.617',1.34
'0:08.621',1.27
'0:08.625',1.34
'0:08.629',1.23
'0:08.633',0.85
'0:08.637',0.6
'0:08.641',0.28
'0:08.645',-0.12
'0:08.648',-0.42
'0:08.652',-0.89
'0:08.656',-1.42
'0:08.660',-1.49
'0:08.664',-1.39
'0:08.668',-1.54
'0:08.672',-1.98
'0:08.676',-2.46
'0:08.680',-2.6
'0:08.684',-2.53
'0:08.688',-2.25
'0:08.691',-1.15
'0:08.695',1.23
'0:08.699',3.52
'0:08.703',3.53
'0:08.707',1.69
'0:08.711',0.33
'0:08.715',-1.15
'0:08.719',-3.07
'0:08.723',-3.88
'0:08.727',-4.02
'0:08.730',-3.81
'0:08.734',-3.26
'0:08.738',-3.08
'0:08.742',-2.44
'0:08.746',-1.79
'0:08.750',-1.67
'0:08.754',-1.45
'0:08.758',-1.01
'0:08.762',-0.93
'0:08.766',-0.99
'0:08.770',-0.74
'0:08.773',-0.58
'0:08.777',-0.59
'0:08.781',-0.53
'0:08.785',-0.21
'0:08.789',0.04
'0:08.793',0.38
'0:08.797',0.76
'0:08.801',0.91
'0:08.805',1.18
'0:08.809',1.67
'0:08.813',2.23
'0:08.816',2.81
'0:08.820',3.27
'0:08.824',3.61
'0:08.828',3.92
'0:08.832',4.09
'0:08.836',4.01
'0:08.840',3.78
'0:08.844',3.41
'0:08.848',2.96
'0:08.852',2.64
'0:08.855',2.24
'0:08.859',1.82
'0:08.863',1.56
'0:08.867',1.44
'0:08.871',1.44
'0:08.875',1.49
'0:08.879',1.64
'0:08.883',1.76
'0:08.887',1.86
'0:08.891',1.9
'0:08.895',1.9
'0:08.898',1.98
'0:08.902',2
'0:08.906',1.85
'0:08.910',1.5
'0:08.914',1.09
'0:08.918',0.77
'0:08.922',0.56
'0:08.926',0.27
'0:08.930',-0.23
'0:08.934',-0.67
'0:08.938',-0.9
'0:08.941',-1.03
'0:08.945',-1.18
'0:08.949',-1.55
'0:08.953',-2.19
'0:08.957',-2.97
'0:08.961',-3.52
'0:08.965',-3.7
'0:08.969',-3.5
'0:08.973',-3.04
'0:08.977',-2.53
'0:08.980',-1.55
'0:08.984',0.14
'0:08.988',2.21
'0:08.992',2.8
'0:08.996',1.29
'0:09.000',-0.83
'0:09.004',-2.13
'0:09.008',-2.44
'0:09.012',-2.31
'0:09.016',-2.47
'0:09.020',-2.84
'0:09.023',-3.19
'0:09.027',-3.29
'0:09.031',-3.12
'0:09.035',-2.73
'0:09.039',-2.28
'0:09.043',-1.84
'0:09.047',-1.5
'0:09.051',-1.22
'0:09.055',-0.86
'0:09.059',-0.43
'0:09.063',0.06
'0:09.066',0.4
'0:09.070',0.42
'0:09.074',0.32
'0:09.078',0.68
'0:09.082',1.52
'0:09.086',2.23
'0:09.090',2.29
'0:09.094',2.17
'0:09.098',2.15
'0:09.102',2.08
'0:09.105',2.28
'0:09.109',2.57
'0:09.113',2.91
'0:09.117',3.26
'0:09.121',3.36
'0:09.125',3.2
'0:09.129',3.13
'0:09.133',3.17
'0:09.137',2.89
'0:09.141',2.2
'0:09.145',1.66
'0:09.148',1.56
'0:09.152',1.71
'0:09.156',1.65
'0:09.160',1.26
'0:09.164',0.38
'0:09.168',-0.29
'0:09.172',-0.25
'0:09.176',0.25
'0:09.180',0.78
'0:09.184',0.88
'0:09.188',0.73
'0:09.191',0.62
'0:09.195',0.52
'0:09.199',0.41
'0:09.203',0.16
'0:09.207',-0.38
'0:09.211',-0.7
'0:09.215',-0.73
'0:09.219',-0.7
'0:09.223',-0.84
'0:09.227',-1.53
'0:09.230',-2.63
'0:09.234',-3.17
'0:09.238',-3.19
'0:09.242',-2.97
'0:09.246',-2.84
'0:09.250',-2.72
'0:09.254',-2.58
'0:09.258',-2.5
'0:09.262',-2.3
'0:09.266',-1.48
'0:09.270',0.53
'0:09.273',3.23
'0:09.277',4.46
'0:09.281',3.22
'0:09.285',0.54
'0:09.289',-2.04
'0:09.293',-3.63
'0:09.297',-4.45
'0:09.301',-4.59
'0:09.305',-4.24
'0:09.309',-4.06
'0:09.313',-4.01
'0:09.316',-3.72
'0:09.320',-3.23
'0:09.324',-2.77
'0:09.328',-2.67
'0:09.332',-2.51
'0:09.336',-2.04
'0:09.340',-1.92
'0:09.344',-1.82
'0:09.348',-1.35
'0:09.352',-0.94
'0:09.355',-0.68
'0:09.359',-0.69
'0:09.363',-0.67
'0:09.367',-0.28
'0:09.371',0.27
'0:09.375',1.04
'0:09.379',1.63
'0:09.383',1.45
'0:09.387',1.13
'0:09.391',1.51
'0:09.395',2.31
'0:09.398',2.85
'0:09.402',2.82
'0:09.406',2.63
'0:09.410',2.64
'0:09.414',2.52
'0:09.418',2.29
'0:09.422',2.15
'0:09.426',2
'0:09.430',1.91
'0:09.434',1.6
'0:09.438',1.01
'0:09.441',0.65
'0:09.445',0.69
'0:09.449',0.86
'0:09.453',0.87
'0:09.457',0.67
'0:09.461',0.56
'0:09.465',0.75
'0:09.469',1.16
'0:09.473',1.54
'0:09.477',1.73
'0:09.480',1.63
'0:09.484',1.23
'0:09.488',0.4
'0:09.492',-0.48
'0:09.496',-0.98
'0:09.500',-1.27
'0:09.504',-1.38
'0:09.508',-1.49
'0:09.512',-1.61
'0:09.516',-1.58
'0:09.520',-1.42
'0:09.523',-1.13
'0:09.527',-1.25
'0:09.531',-1.83
'0:09.535',-2.45
'0:09.539',-2.81
'0:09.543',-2.77
'0:09.547',-2.5
'0:09.551',-1.88
'0:09.555',-0.47
'0:09.559',1.54
'0:09.563',3.7
'0:09.566',4.64
'0:09.570',3.25
'0:09.574',0.25
'0:09.578',-2.53
'0:09.582',-4
'0:09.586',-4.43
'0:09.590',-4.26
'0:09.594',-3.87
'0:09.598',-3.37
'0:09.602',-2.88
'0:09.605',-2.38
'0:09.609',-2.26
'0:09.613',-2.16
'0:09.617',-1.77
'0:09.621',-1.25
'0:09.625',-0.8
'0:09.629',-0.65
'0:09.633',-0.6
'0:09.637',-0.68
'0:09.641',-0.81
'0:09.645',-0.87
'0:09.648',-0.73
'0:09.652',-0.29
'0:09.656',0.18
'0:09.660',0.44
'0:09.664',0.51
'0:09.668',0.52
'0:09.672',0.99
'0:09.676',1.75
'0:09.680',2.39
'0:09.684',2.87
'0:09.688',3.2
'0:09.691',3.41
'0:09.695',3.64
'0:09.699',3.7
'0:09.703',3.6
'0:09.707',3.21
'0:09.711',2.78
'0:09.715',2.53
'0:09.719',2.27
'0:09.723',2
'0:09.727',1.78
'0:09.730',1.62
'0:09.734',1.53
'0:09.738',1.39
'0:09.742',1.17
'0:09.746',0.97
'0:09.750',0.93
'0:09.754',1
'0:09.758',1.15
'0:09.762',1.29
'0:09.766',1.32
'0:09.770',1.12
'0:09.773',0.83
'0:09.777',0.41
'0:09.781',-0.13
'0:09.785',-0.61
'0:09.789',-0.83
'0:09.793',-1.23
'0:09.797',-1.73
'0:09.801',-2.21
'0:09.805',-2.58
'0:09.809',-2.85
'0:09.813',-2.9
'0:09.816',-2.67
'0:09.820',-2.44
'0:09.824',-2.39
'0:09.828',-2.32
'0:09.832',-2.31
'0:09.836',-2.06
'0:09.840',-1.22
'0:09.844',0.39
'0:09.848',1.91
'0:09.852',1.51
'0:09.855',-0.13
'0:09.859',-1.88
'0:09.863',-3.09
'0:09.867',-3.6
'0:09.871',-3.55
'0:09.875',-3.16
'0:09.879',-3.07
'0:09.883',-3.06
'0:09.887',-2.61
'0:09.891',-1.57
'0:09.895',-0.99
'0:09.898',-0.82
'0:09.902',-0.85
'0:09.906',-0.87
'0:09.910',-0.87
'0:09.914',-0.75
'0:09.918',-0.56
'0:09.922',-0.44
'0:09.926',-0.36
'0:09.930',-0.01
'0:09.934',0.35
'0:09.938',0.5
'0:09.941',0.48
'0:09.945',0.27
'0:09.949',0.66
'0:09.953',1.53
'0:09.957',2.37
'0:09.961',3.04
'0:09.965',3.69
'0:09.969',4.05
'0:09.973',4.19
'0:09.977',4.19
'0:09.980',4.49
'0:09.984',4.91
'0:09.988',4.93
'0:09.992',4.32
'0:09.996',3.47
'0:10.000',2.36
'0:10.004',1.36
'0:10.008',1.26
'0:10.012',1.38
'0:10.016',1.15
'0:10.020',1.33
'0:10.023',1.52
'0:10.027',1.61
'0:10.031',1.48
'0:10.035',1.11
'0:10.039',0.88
'0:10.043',1.03
'0:10.047',1.22
'0:10.051',0.8
'0:10.055',0.24
'0:10.059',-0.13
'0:10.063',-0.49
'0:10.066',-0.77
'0:10.070',-1.17
'0:10.074',-1.56
'0:10.078',-1.9
'0:10.082',-2.1
'0:10.086',-2.3
'0:10.090',-2.51
'0:10.094',-2.6
'0:10.098',-2.46
'0:10.102',-2.34
'0:10.105',-2.47
'0:10.109',-2.91
'0:10.113',-3.12
'0:10.117',-2.92
'0:10.121',-2.6
'0:10.125',-2.22
'0:10.129',-1.38
'0:10.133',0.03
'0:10.137',1.98
'0:10.141',2.69
'0:10.145',1.37
'0:10.148',-0.7
'0:10.152',-2.24
'0:10.156',-3.06
'0:10.160',-3.43
'0:10.164',-3.45
'0:10.168',-3.38
'0:10.172',-3.21
'0:10.176',-2.79
'0:10.180',-2.38
'0:10.184',-2.04
'0:10.188',-1.67
'0:10.191',-1.3
'0:10.195',-1.03
'0:10.199',-1.16
'0:10.203',-1.5
'0:10.207',-1.63
'0:10.211',-1.44
'0:10.215',-1.03
'0:10.219',-0.62
'0:10.223',-0.24
'0:10.227',0.06
'0:10.230',0.43
'0:10.234',0.77
'0:10.238',1.11
'0:10.242',1.64
'0:10.246',2.26
'0:10.250',2.61
'0:10.254',2.73
'0:10.258',2.84
'0:10.262',3.17
'0:10.266',3.47
'0:10.270',3.61
'0:10.273',3.65
'0:10.277',3.38
'0:10.281',2.99
'0:10.285',2.74
'0:10.289',2.55
'0:10.293',2.07
'0:10.297',1.66
'0:10.301',1.36
'0:10.305',1.27
'0:10.309',1.25
'0:10.313',1.03
'0:10.316',0.79
'0:10.320',0.79
'0:10.324',0.9
'0:10.328',0.96
'0:10.332',1.1
'0:10.336',1.41
'0:10.340',1.18
'0:10.344',0.57
'0:10.348',0.07
'0:10.352',-0.25
'0:10.355',-0.57
'0:10.359',-0.9
'0:10.363',-1.07
'0:10.367',-1.45
'0:10.371',-1.91
'0:10.375',-2.07
'0:10.379',-1.89
'0:10.383',-1.63
'0:10.387',-1.54
'0:10.391',-1.69
'0:10.395',-2
'0:10.398',-2.06
'0:10.402',-2.01
'0:10.406',-1.79
'0:10.410',-1.57
'0:10.414',-1.44
'0:10.418',-0.37
'0:10.422',1.69
'0:10.426',3
'0:10.430',1.82
'0:10.434',-0.81
'0:10.438',-2.95
'0:10.441',-3.97
'0:10.445',-4.04
'0:10.449',-3.69
'0:10.453',-3.45
'0:10.457',-3.22
'0:10.461',-2.74
'0:10.465',-2.16
'0:10.469',-1.88
'0:10.473',-2.08
'0:10.477',-2.37
'0:10.480',-2.17
'0:10.484',-1.54
'0:10.488',-1.07
'0:10.492',-0.99
'0:10.496',-0.94
'0:10.500',-0.83
'0:10.504',-0.65
'0:10.508',-0.37
'0:10.512',0.16
'0:10.516',0.71
'0:10.520',1.03
'0:10.523',1.18
'0:10.527',1.21
'0:10.531',1.57
'0:10.535',2.17
'0:10.539',2.54
'0:10.543',2.75
'0:10.547',3.43
'0:10.551',4.05
'0:10.555',3.86
'0:10.559',3.25
'0:10.563',2.72
'0:10.566',2.26
'0:10.570',1.88
'0:10.574',1.7
'0:10.578',1.66
'0:10.582',1.71
'0:10.586',1.59
'0:10.590',1.36
'0:10.594',1.2
'0:10.598',1.16
'0:10.602',0.9
'0:10.605',0.75
'0:10.609',0.59
'0:10.613',0.61
'0:10.617',0.79
'0:10.621',1.02
'0:10.625',0.82
'0:10.629',0.36
'0:10.633',0.03
'0:10.637',-0.22
'0:10.641',-0.49
'0:10.645',-0.69
'0:10.648',-0.85
'0:10.652',-1.14
'0:10.656',-1.47
'0:10.660',-1.78
'0:10.664',-1.95
'0:10.668',-2.02
'0:10.672',-2.1
'0:10.676',-2.27
'0:10.680',-2.46
'0:10.684',-2.59
'0:10.688',-2.74
'0:10.691',-2.57
'0:10.695',-2.01
'0:10.699',-1.44
'0:10.703',-0.78
'0:10.707',0.66
'0:10.711',2.8
'0:10.715',4.37
'0:10.719',3.51
'0:10.723',0.75
'0:10.727',-1.92
'0:10.730',-3.6
'0:10.734',-4.37
'0:10.738',-4.43
'0:10.742',-3.98
'0:10.746',-3.33
'0:10.750',-2.7
'0:10.754',-2.38
'0:10.758',-2.34
'0:10.762',-2.26
'0:10.766',-1.96
'0:10.770',-1.62
'0:10.773',-1.33
'0:10.777',-1.09
'0:10.781',-0.85
'0:10.785',-0.57
'0:10.789',-0.29
'0:10.793',-0.04
'0:10.797',0.2
'0:10.801',0.45
'0:10.805',0.76
'0:10.809',1.21
'0:10.813',1.64
'0:10.816',1.99
'0:10.820',2.25
'0:10.824',2.47
'0:10.828',2.71
'0:10.832',2.93
'0:10.836',3.1
'0:10.840',3.37
'0:10.844',3.6
'0:10.848',3.65
'0:10.852',3.59
'0:10.855',3.44
'0:10.859',3.12
'0:10.863',2.69
'0:10.867',2.29
'0:10.871',1.95
'0:10.875',1.6
'0:10.879',1.24
'0:10.883',1.09
'0:10.887',0.95
'0:10.891',0.89
'0:10.895',1
'0:10.898',1.03
'0:10.902',1.16
'0:10.906',1.33
'0:10.910',1.5
'0:10.914',1.48
'0:10.918',1.27
'0:10.922',0.99
'0:10.926',0.63
'0:10.930',0.29
'0:10.934',0.04
'0:10.938',-0.4
'0:10.941',-0.88
'0:10.945',-1.17
'0:10.949',-1.39
'0:10.953',-1.68
'0:10.957',-2.15
'0:10.961',-2.39
'0:10.965',-2.51
'0:10.969',-2.56
'0:10.973',-2.62
'0:10.977',-2.7
'0:10.980',-2.5
'0:10.984',-2.25
'0:10.988',-1.64
'0:10.992',-0.52
'0:10.996',1.26
'0:11.000',2.75
'0:11.004',2.11
'0:11.008',-0.15
'0:11.012',-2.38
'0:11.016',-3.66
'0:11.020',-4.04
'0:11.023',-3.88
'0:11.027',-3.42
'0:11.031',-2.92
'0:11.035',-2.57
'0:11.039',-2.26
'0:11.043',-2.07
'0:11.047',-1.93
'0:11.051',-1.75
'0:11.055',-1.62
'0:11.059',-1.46
'0:11.063',-1.2
'0:11.066',-0.91
'0:11.070',-0.57
'0:11.074',-0.18
'0:11.078',0.11
'0:11.082',0.4
'0:11.086',0.74
'0:11.090',0.92
'0:11.094',0.91
'0:11.098',0.9
'0:11.102',1.15
'0:11.105',1.55
'0:11.109',2.01
'0:11.113',2.49
'0:11.117',2.85
'0:11.121',3.08
'0:11.125',3.42
'0:11.129',3.78
'0:11.133',3.87
'0:11.137',3.73
'0:11.141',3.53
'0:11.145',3.24
'0:11.148',2.94
'0:11.152',2.57
'0:11.156',2.34
'0:11.160',2.05
'0:11.164',1.7
'0:11.168',1.33
'0:11.172',1.02
'0:11.176',0.85
'0:11.180',0.98
'0:11.184',1.14
'0:11.188',0.99
'0:11.191',0.72
'0:11.195',0.41
'0:11.199',0.28
'0:11.203',0.43
'0:11.207',0.58
'0:11.211',0.53
'0:11.215',0.28
'0:11.219',-0.07
'0:11.223',-0.32
'0:11.227',-0.77
'0:11.230',-1.2
'0:11.234',-1.59
'0:11.238',-1.89
'0:11.242',-2.25
'0:11.246',-2.69
'0:11.250',-3.05
'0:11.254',-2.8
'0:11.258',-2.49
'0:11.262',-2.29
'0:11.266',-2.32
'0:11.270',-2.46
'0:11.273',-2.82
'0:11.277',-3.04
'0:11.281',-2.25
'0:11.285',0.02
'0:11.289',2.31
'0:11.293',2.25
'0:11.297',0.4
'0:11.301',-1.66
'0:11.305',-2.97
'0:11.309',-3.6
'0:11.313',-3.77
'0:11.316',-3.63
'0:11.320',-3.35
'0:11.324',-2.95
'0:11.328',-2.47
'0:11.332',-2.17
'0:11.336',-2.24
'0:11.340',-2.37
'0:11.344',-2.11
'0:11.348',-1.05
'0:11.352',-0.4
'0:11.355',-1.06
'0:11.359',-1.24
'0:11.363',0.06
'0:11.367',0.57
'0:11.371',-0.36
'0:11.375',-0.96
'0:11.379',-0.84
'0:11.383',-0.33
'0:11.387',0.23
'0:11.391',0.82
'0:11.395',1.48
'0:11.398',2.25
'0:11.402',2.86
'0:11.406',3.1
'0:11.410',3.2
'0:11.414',3.16
'0:11.418',3.14
'0:11.422',3.17
'0:11.426',3.15
'0:11.430',3.04
'0:11.434',2.7
'0:11.438',2.31
'0:11.441',1.91
'0:11.445',1.45
'0:11.449',0.84
'0:11.453',0.37
'0:11.457',0.25
'0:11.461',0.15
'0:11.465',-0.02
'0:11.469',-0.11
'0:11.473',-0.14
'0:11.477',-0.1
'0:11.480',0.03
'0:11.484',0.26
'0:11.488',0.47
'0:11.492',0.54
'0:11.496',0.44
'0:11.500',0.37
'0:11.504',0.13
'0:11.508',-0.27
'0:11.512',-0.69
'0:11.516',-1.1
'0:11.520',-1.52
'0:11.523',-1.9
'0:11.527',-2.17
'0:11.531',-2.35
'0:11.535',-2.31
'0:11.539',-2.19
'0:11.543',-2.45
'0:11.547',-2.73
'0:11.551',-2.94
'0:11.555',-3.14
'0:11.559',-3.23
'0:11.563',-3.09
'0:11.566',-2.55
'0:11.570',-0.86
'0:11.574',1.43
'0:11.578',3.14
'0:11.582',2.79
'0:11.586',0.95
'0:11.590',-1.13
'0:11.594',-2.62
'0:11.598',-3.35
'0:11.602',-3.5
'0:11.605',-3.05
'0:11.609',-2.62
'0:11.613',-2.27
'0:11.617',-1.11
'0:11.621',0.15
'0:11.625',0.46
'0:11.629',-0.4
'0:11.633',-1.92
'0:11.637',-2.59
'0:11.641',-2.32
'0:11.645',-1.72
'0:11.648',-1.23
'0:11.652',-0.89
'0:11.656',-0.58
'0:11.660',-0.19
'0:11.664',0.26
'0:11.668',0.6
'0:11.672',0.99
'0:11.676',1.35
'0:11.680',1.64
'0:11.684',1.91
'0:11.688',2.17
'0:11.691',2.51
'0:11.695',2.87
'0:11.699',3.32
'0:11.703',3.67
'0:11.707',3.88
'0:11.711',3.97
'0:11.715',3.93
'0:11.719',3.72
'0:11.723',3.29
'0:11.727',2.76
'0:11.730',2.24
'0:11.734',2.01
'0:11.738',1.77
'0:11.742',1.51
'0:11.746',1.26
'0:11.750',1.02
'0:11.754',1.02
'0:11.758',1.02
'0:11.762',0.9
'0:11.766',0.78
'0:11.770',0.96
'0:11.773',1.14
'0:11.777',1.2
'0:11.781',1.22
'0:11.785',1.14
'0:11.789',0.77
'0:11.793',0.46
'0:11.797',0.14
'0:11.801',-0.4
'0:11.805',-0.89
'0:11.809',-1.25
'0:11.813',-1.54
'0:11.816',-1.84
'0:11.820',-2.13
'0:11.824',-2.47
'0:11.828',-2.69
'0:11.832',-2.66
'0:11.836',-2.46
'0:11.840',-2.29
'0:11.844',-2.29
'0:11.848',-2.17
'0:11.852',-1.63
'0:11.855',-0.8
'0:11.859',0.56
'0:11.863',2.69
'0:11.867',4.48
'0:11.871',4.02
'0:11.875',1.37
'0:11.879',-1.51
'0:11.883',-3.29
'0:11.887',-4.07
'0:11.891',-4.16
'0:11.895',-3.92
'0:11.898',-3.57
'0:11.902',-3.12
'0:11.906',-2.67
'0:11.910',-2.31
'0:11.914',-2.09
'0:11.918',-1.8
'0:11.922',-1.59
'0:11.926',-1.41
'0:11.930',-1.28
'0:11.934',-1.21
'0:11.938',-1.06
'0:11.941',-0.71
'0:11.945',-0.11
'0:11.949',0.3
'0:11.953',0.54
'0:11.957',0.74
'0:11.961',1.01
'0:11.965',1.38
'0:11.969',1.71
'0:11.973',2.04
'0:11.977',2.28
'0:11.980',2.52
'0:11.984',2.81
'0:11.988',3.01
'0:11.992',3.12
'0:11.996',3.01
'0:12.000',2.9
'0:12.004',3.02
'0:12.008',3.09
'0:12.012',2.92
'0:12.016',2.59
'0:12.020',2.24
'0:12.023',1.98
'0:12.027',2.11
'0:12.031',2.02
'0:12.035',1.29
'0:12.039',0.5
'0:12.043',0.23
'0:12.047',0.25
'0:12.051',0.19
'0:12.055',0.25
'0:12.059',0.5
'0:12.063',0.8
'0:12.066',0.97
'0:12.070',0.98
'0:12.074',0.95
'0:12.078',0.97
'0:12.082',1.06
'0:12.086',1.06
'0:12.090',0.72
'0:12.094',0.08
'0:12.098',-0.77
'0:12.102',-1.57
'0:12.105',-2.2
'0:12.109',-2.31
'0:12.113',-1.58
'0:12.117',-0.26
'0:12.121',0.18
'0:12.125',0.69
'0:12.129',0.51
'0:12.133',-0.92
'0:12.137',-2.26
'0:12.141',-3.1
'0:12.145',-3.16
'0:12.148',-2.28
'0:12.152',-1.08
'0:12.156',0.9
'0:12.160',2.06
'0:12.164',0.66
'0:12.168',-2.4
'0:12.172',-4.56
'0:12.176',-5.24
'0:12.180',-5.15
'0:12.184',-3.86
'0:12.188',-1.99
'0:12.191',-0.13
'0:12.195',0.65
'0:12.199',-0.28
'0:12.203',-1.04
'0:12.207',-0.11
'0:12.211',0.98
'0:12.215',0.51
'0:12.219',-1.58
'0:12.223',-3.03
'0:12.227',-3.2
'0:12.230',-3.43
'0:12.234',-3.27
'0:12.238',-1.73
'0:12.242',0.55
'0:12.246',1.68
'0:12.250',0.95
'0:12.254',-0.14
'0:12.258',0.21
'0:12.262',4.52
'0:12.266',9.3
'0:12.270',6.08
'0:12.273',1.15
'0:12.277',-0.42
'0:12.281',0.93
'0:12.285',1.69
'0:12.289',1.97
'0:12.293',2.18
'0:12.297',2.31
'0:12.301',2.83
'0:12.305',3.22
'0:12.309',3.31
'0:12.313',3.8
'0:12.316',5.62
'0:12.320',6.27
'0:12.324',3.42
'0:12.328',-0.43
'0:12.332',-0.77
'0:12.336',1.34
'0:12.340',1.19
'0:12.344',-0.5
'0:12.348',-0.24
'0:12.352',2.05
'0:12.355',3.12
'0:12.359',0.95
'0:12.363',-1.92
'0:12.367',-2.12
'0:12.371',-0.91
'0:12.375',-0.81
'0:12.379',-1.8
'0:12.383',-2.1
'0:12.387',-1.91
'0:12.391',-0.76
'0:12.395',1.28
'0:12.398',0.71
'0:12.402',-2.85
'0:12.406',-5.05
'0:12.410',-4.34
'0:12.414',-0.99
'0:12.418',0.33
'0:12.422',-3.19
'0:12.426',-5.55
'0:12.430',-5.34
'0:12.434',-4.41
'0:12.438',-3.41
'0:12.441',-1.28
'0:12.445',0.75
'0:12.449',-0.11
'0:12.453',-1.72
'0:12.457',-2.5
'0:12.461',-1.79
'0:12.465',-1.66
'0:12.469',-1.86
'0:12.473',-2.19
'0:12.477',-2.51
'0:12.480',-3.19
'0:12.484',-3.41
'0:12.488',-3.21
'0:12.492',-2.48
'0:12.496',-1.68
'0:12.500',-2.09
'0:12.504',-1.65
'0:12.508',-0.29
'0:12.512',0.16
'0:12.516',-0.48
'0:12.520',-0.62
'0:12.523',-0.12
'0:12.527',0.91
'0:12.531',1.42
'0:12.535',0.71
'0:12.539',0.11
'0:12.543',0.39
'0:12.547',1.03
'0:12.551',1.16
'0:12.555',1.26
'0:12.559',2.03
'0:12.563',3.32
'0:12.566',4.5
'0:12.570',5.69
'0:12.574',5.54
'0:12.578',4.08
'0:12.582',2.89
'0:12.586',2.01
'0:12.590',1.96
'0:12.594',2.32
'0:12.598',2.47
'0:12.602',2.91
'0:12.605',3.21
'0:12.609',2.16
'0:12.613',0.95
'0:12.617',0.38
'0:12.621',0.33
'0:12.625',0.54
'0:12.629',0.64
'0:12.633',0.75
'0:12.637',0.83
'0:12.641',0.86
'0:12.645',0.86
'0:12.648',0.76
'0:12.652',0.91
'0:12.656',1.22
'0:12.660',0.78
'0:12.664',-0.15
'0:12.668',-0.91
'0:12.672',-1.36
'0:12.676',-1.57
'0:12.680',-1.63
'0:12.684',-1.78
'0:12.688',-2.08
'0:12.691',-2.42
'0:12.695',-2.53
'0:12.699',-2.17
'0:12.703',-1.73
'0:12.707',-1.89
'0:12.711',-2.6
'0:12.715',-3.12
'0:12.719',-3.26
'0:12.723',-2.88
'0:12.727',-1.76
'0:12.730',-0.04
'0:12.734',1.37
'0:12.738',0.97
'0:12.742',-0.57
'0:12.746',-2.06
'0:12.750',-2.95
'0:12.754',-3.22
'0:12.758',-3.14
'0:12.762',-2.84
'0:12.766',-2.55
'0:12.770',-2.51
'0:12.773',-2.53
'0:12.777',-2.43
'0:12.781',-2.31
'0:12.785',-2.11
'0:12.789',-1.71
'0:12.793',-1.12
'0:12.797',-0.22
'0:12.801',0.69
'0:12.805',0.84
'0:12.809',0.25
'0:12.813',-0.15
'0:12.816',-0.09
'0:12.820',0.26
'0:12.824',0.72
'0:12.828',1.04
'0:12.832',1.4
'0:12.836',1.8
'0:12.840',2.23
'0:12.844',2.64
'0:12.848',3.08
'0:12.852',3.46
'0:12.855',3.62
'0:12.859',3.74
'0:12.863',3.88
'0:12.867',3.97
'0:12.871',3.85
'0:12.875',3.55
'0:12.879',3.3
'0:12.883',2.99
'0:12.887',2.52
'0:12.891',1.95
'0:12.895',1.6
'0:12.898',1.35
'0:12.902',1.17
'0:12.906',1.15
'0:12.910',1.17
'0:12.914',1.07
'0:12.918',0.98
'0:12.922',1.08
'0:12.926',1.34
'0:12.930',1.56
'0:12.934',1.57
'0:12.938',1.44
'0:12.941',1.19
'0:12.945',1
'0:12.949',0.7
'0:12.953',0.25
'0:12.957',-0.21
'0:12.961',-0.79
'0:12.965',-1.31
'0:12.969',-1.65
'0:12.973',-1.88
'0:12.977',-1.92
'0:12.980',-1.97
'0:12.984',-1.98
'0:12.988',-1.96
'0:12.992',-2.2
'0:12.996',-2.54
'0:13.000',-2.57
'0:13.004',-2.42
'0:13.008',-2.28
'0:13.012',-1.58
'0:13.016',0
'0:13.020',1.95
'0:13.023',2.29
'0:13.027',0.65
'0:13.031',-1.48
'0:13.035',-3.17
'0:13.039',-4.18
'0:13.043',-4.46
'0:13.047',-4.18
'0:13.051',-3.59
'0:13.055',-3.03
'0:13.059',-2.64
'0:13.063',-2.25
'0:13.066',-1.82
'0:13.070',-1.51
'0:13.074',-1.23
'0:13.078',-0.99
'0:13.082',-0.77
'0:13.086',-0.67
'0:13.090',-0.63
'0:13.094',-0.45
'0:13.098',-0.01
'0:13.102',0.47
'0:13.105',0.86
'0:13.109',1.41
'0:13.113',1.88
'0:13.117',1.79
'0:13.121',1.31
'0:13.125',1.13
'0:13.129',1.18
'0:13.133',1.68
'0:13.137',2.43
'0:13.141',2.76
'0:13.145',2.95
'0:13.148',3.13
'0:13.152',3.29
'0:13.156',3.32
'0:13.160',3.19
'0:13.164',2.8
'0:13.168',2.38
'0:13.172',2.01
'0:13.176',1.7
'0:13.180',1.54
'0:13.184',1.49
'0:13.188',1.42
'0:13.191',1.26
'0:13.195',1.09
'0:13.199',0.89
'0:13.203',0.62
'0:13.207',0.37
'0:13.211',0.1
'0:13.215',-0.05
'0:13.219',-0.19
'0:13.223',-0.24
'0:13.227',0.03
'0:13.230',0.2
'0:13.234',0.02
'0:13.238',-0.41
'0:13.242',-0.86
'0:13.246',-1.28
'0:13.250',-1.67
'0:13.254',-2.03
'0:13.258',-2.39
'0:13.262',-2.58
'0:13.266',-2.6
'0:13.270',-2.56
'0:13.273',-2.53
'0:13.277',-2.63
'0:13.281',-2.78
'0:13.285',-2.82
'0:13.289',-2.76
'0:13.293',-2.52
'0:13.297',-2.17
'0:13.301',-1.8
'0:13.305',-0.82
'0:13.309',0.91
'0:13.313',2.68
'0:13.316',2.52
'0:13.320',0.7
'0:13.324',-1.46
'0:13.328',-3.21
'0:13.332',-4.04
'0:13.336',-4
'0:13.340',-3.67
'0:13.344',-3.35
'0:13.348',-2.94
'0:13.352',-2.43
'0:13.355',-1.93
'0:13.359',-1.52
'0:13.363',-1.36
'0:13.367',-1.34
'0:13.371',-1.23
'0:13.375',-0.99
'0:13.379',-0.65
'0:13.383',-0.4
'0:13.387',-0.19
'0:13.391',-0.11
'0:13.395',0.09
'0:13.398',0.53
'0:13.402',0.94
'0:13.406',1.23
'0:13.410',1.35
'0:13.414',1.47
'0:13.418',1.59
'0:13.422',1.89
'0:13.426',2.38
'0:13.430',2.86
'0:13.434',3.26
'0:13.438',3.58
'0:13.441',3.75
'0:13.445',3.76
'0:13.449',3.68
'0:13.453',3.48
'0:13.457',3.26
'0:13.461',3.05
'0:13.465',2.69
'0:13.469',2.15
'0:13.473',1.6
'0:13.477',1.34
'0:13.480',1.18
'0:13.484',1.09
'0:13.488',0.95
'0:13.492',0.75
'0:13.496',0.58
'0:13.500',0.57
'0:13.504',0.78
'0:13.508',0.93
'0:13.512',0.99
'0:13.516',1
'0:13.520',0.9
'0:13.523',0.78
'0:13.527',0.62
'0:13.531',0.27
'0:13.535',-0.13
'0:13.539',-0.54
'0:13.543',-0.86
'0:13.547',-1.16
'0:13.551',-1.53
'0:13.555',-1.86
'0:13.559',-2.14
'0:13.563',-2.25
'0:13.566',-2.29
'0:13.570',-2.26
'0:13.574',-2.27
'0:13.578',-2.31
'0:13.582',-2.43
'0:13.586',-2.57
'0:13.590',-2.35
'0:13.594',-1.4
'0:13.598',0.44
'0:13.602',1.78
'0:13.605',1.06
'0:13.609',-0.85
'0:13.613',-2.75
'0:13.617',-3.82
'0:13.621',-4.09
'0:13.625',-3.8
'0:13.629',-3.23
'0:13.633',-2.77
'0:13.637',-2.42
'0:13.641',-2.03
'0:13.645',-1.71
'0:13.648',-1.36
'0:13.652',-1.15
'0:13.656',-1.06
'0:13.660',-0.94
'0:13.664',-0.88
'0:13.668',-0.74
'0:13.672',-0.46
'0:13.676',-0.1
'0:13.680',0.2
'0:13.684',0.3
'0:13.688',0.35
'0:13.691',0.47
'0:13.695',0.72
'0:13.699',1.06
'0:13.703',1.42
'0:13.707',1.59
'0:13.711',1.82
'0:13.715',2.2
'0:13.719',2.62
'0:13.723',3.06
'0:13.727',3.35
'0:13.730',3.59
'0:13.734',3.52
'0:13.738',3.33
'0:13.742',3.19
'0:13.746',3
'0:13.750',2.77
'0:13.754',2.36
'0:13.758',1.76
'0:13.762',1
'0:13.766',0.41
'0:13.770',0.02
'0:13.773',0.09
'0:13.777',0.32
'0:13.781',0.45
'0:13.785',0.54
'0:13.789',0.44
'0:13.793',0.16
'0:13.797',-0.17
'0:13.801',-0.19
'0:13.805',-0.1
'0:13.809',0
'0:13.813',0.03
'0:13.816',0
'0:13.820',0
'0:13.824',0.05
'0:13.828',-0.11
'0:13.832',-0.75
'0:13.836',-1.52
'0:13.840',-1.63
'0:13.844',-1.77
'0:13.848',-2.32
'0:13.852',-2.48
'0:13.855',-2.16
'0:13.859',-1.93
'0:13.863',-2.35
'0:13.867',-2.72
'0:13.871',-2.86
'0:13.875',-3.4
'0:13.879',-3.43
'0:13.883',-3.04
'0:13.887',-2.48
'0:13.891',-1.21
'0:13.895',-0.54
'0:13.898',-1.24
'0:13.902',-2.26
'0:13.906',-2.62
'0:13.910',-1.82
'0:13.914',-1.19
'0:13.918',-2.77
'0:13.922',-4.57
'0:13.926',-4.9
'0:13.930',-4.26
'0:13.934',-3.71
'0:13.938',-3.22
'0:13.941',-2.65
'0:13.945',-2.28
'0:13.949',-2.04
'0:13.953',-1.84
'0:13.957',-0.63
'0:13.961',1.01
'0:13.965',1.05
'0:13.969',-0.15
'0:13.973',-0.37
'0:13.977',-0.21
'0:13.980',-0.23
'0:13.984',-0.31
'0:13.988',0.12
'0:13.992',1
'0:13.996',2.02
'0:14.000',3.27
'0:14.004',4.09
'0:14.008',4.15
'0:14.012',4.77
'0:14.016',6.97
'0:14.020',7.49
'0:14.023',5.28
'0:14.027',3.06
'0:14.031',1.71
'0:14.035',1.21
'0:14.039',1.37
'0:14.043',1.61
'0:14.047',1.53
'0:14.051',1.24
'0:14.055',1.1
'0:14.059',1.02
'0:14.063',1.13
'0:14.066',1.98
'0:14.070',3.28
'0:14.074',2.93
'0:14.078',0.88
'0:14.082',-0.85
'0:14.086',-1.41
'0:14.090',-1.29
'0:14.094',-0.91
'0:14.098',-0.61
'0:14.102',-0.41
'0:14.105',-0.21
'0:14.109',0.04
'0:14.113',0.42
'0:14.117',0.72
'0:14.121',0.2
'0:14.125',-0.59
'0:14.129',-0.79
'0:14.133',-0.96
'0:14.137',-2.24
'0:14.141',-2.85
'0:14.145',-3.01
'0:14.148',-3.78
'0:14.152',-4.01
'0:14.156',-3.85
'0:14.160',-3.67
'0:14.164',-3.35
'0:14.168',-2.82
'0:14.172',-2.3
'0:14.176',-1.6
'0:14.180',0.42
'0:14.184',3.24
'0:14.188',3.46
'0:14.191',0.75
'0:14.195',-2.36
'0:14.199',-3.94
'0:14.203',-4.33
'0:14.207',-4.13
'0:14.211',-3.67
'0:14.215',-3.07
'0:14.219',-2.42
'0:14.223',-1.9
'0:14.227',-1.35
'0:14.230',-0.69
'0:14.234',-0.08
'0:14.238',-0.05
'0:14.242',-0.29
'0:14.246',-0.07
'0:14.250',1.23
'0:14.254',1.41
'0:14.258',-0.07
'0:14.262',-0.76
'0:14.266',-0.63
'0:14.270',-0.29
'0:14.273',0.17
'0:14.277',0.7
'0:14.281',1.28
'0:14.285',1.97
'0:14.289',2.83
'0:14.293',3.45
'0:14.297',3.95
'0:14.301',4.48
'0:14.305',3.95
'0:14.309',3.13
'0:14.313',2.86
'0:14.316',3.2
'0:14.320',3.72
'0:14.324',4.01
'0:14.328',3.91
'0:14.332',3.2
'0:14.336',2.57
'0:14.340',2.08
'0:14.344',1.74
'0:14.348',1.7
'0:14.352',1.03
'0:14.355',0.56
'0:14.359',0.51
'0:14.363',0.52
'0:14.367',0.79
'0:14.371',1.12
'0:14.375',1.35
'0:14.379',1.29
'0:14.383',1.15
'0:14.387',1.44
'0:14.391',2.41
'0:14.395',2.84
'0:14.398',1.89
'0:14.402',0.51
'0:14.406',-0.56
'0:14.410',-1.18
'0:14.414',-1.52
'0:14.418',-1.7
'0:14.422',-1.81
'0:14.426',-1.94
'0:14.430',-1.8
'0:14.434',-1.34
'0:14.438',-0.87
'0:14.441',-0.94
'0:14.445',-1.69
'0:14.449',-2.54
'0:14.453',-3
'0:14.457',-2.92
'0:14.461',-2.62
'0:14.465',-1.91
'0:14.469',-0.45
'0:14.473',1.55
'0:14.477',2.41
'0:14.480',1.32
'0:14.484',-0.45
'0:14.488',-1.78
'0:14.492',-2.57
'0:14.496',-3.05
'0:14.500',-3.09
'0:14.504',-2.58
'0:14.508',-1.33
'0:14.512',-0.92
'0:14.516',-1.84
'0:14.520',-2.29
'0:14.523',-2.01
'0:14.527',-1.67
'0:14.531',-1.25
'0:14.535',-0.9
'0:14.539',-0.75
'0:14.543',-0.45
'0:14.547',-0.11
'0:14.551',0.16
'0:14.555',0.47
'0:14.559',0.82
'0:14.563',1.03
'0:14.566',1.23
'0:14.570',1.47
'0:14.574',1.56
'0:14.578',1.67
'0:14.582',1.92
'0:14.586',2.37
'0:14.590',2.75
'0:14.594',3.01
'0:14.598',3.2
'0:14.602',3.43
'0:14.605',3.83
'0:14.609',3.87
'0:14.613',3.27
'0:14.617',2.57
'0:14.621',2.07
'0:14.625',1.77
'0:14.629',1.56
'0:14.633',1.28
'0:14.637',0.96
'0:14.641',0.79
'0:14.645',0.78
'0:14.648',0.73
'0:14.652',0.69
'0:14.656',0.7
'0:14.660',0.73
'0:14.664',0.73
'0:14.668',0.94
'0:14.672',1.32
'0:14.676',1.28
'0:14.680',0.94
'0:14.684',0.51
'0:14.688',0.17
'0:14.691',-0.02
'0:14.695',-0.17
'0:14.699',-0.38
'0:14.703',-0.67
'0:14.707',-1.09
'0:14.711',-1.56
'0:14.715',-1.95
'0:14.719',-2.16
'0:14.723',-2.06
'0:14.727',-1.82
'0:14.730',-1.68
'0:14.734',-1.88
'0:14.738',-2.32
'0:14.742',-2.6
'0:14.746',-2.65
'0:14.750',-2.55
'0:14.754',-2.17
'0:14.758',-1.05
'0:14.762',1.03
'0:14.766',3.55
'0:14.770',3.88
'0:14.773',1.57
'0:14.777',-1.35
'0:14.781',-3.24
'0:14.785',-4.09
'0:14.789',-4.23
'0:14.793',-3.97
'0:14.797',-3.51
'0:14.801',-2.96
'0:14.805',-2.5
'0:14.809',-2.24
'0:14.813',-2.04
'0:14.816',-1.77
'0:14.820',-1.46
'0:14.824',-1.21
'0:14.828',-0.98
'0:14.832',-0.62
'0:14.836',-0.31
'0:14.840',-0.12
'0:14.844',-0.09
'0:14.848',-0.07
'0:14.852',0.11
'0:14.855',0.4
'0:14.859',0.74
'0:14.863',1.29
'0:14.867',1.85
'0:14.871',2.18
'0:14.875',2.37
'0:14.879',2.62
'0:14.883',2.92
'0:14.887',3.24
'0:14.891',3.52
'0:14.895',3.74
'0:14.898',3.75
'0:14.902',3.53
'0:14.906',3.19
'0:14.910',2.7
'0:14.914',2.26
'0:14.918',1.79
'0:14.922',1.14
'0:14.926',0.5
'0:14.930',0.25
'0:14.934',0.22
'0:14.938',0.17
'0:14.941',0.14
'0:14.945',0.07
'0:14.949',0.03
'0:14.953',0.13
'0:14.957',0.4
'0:14.961',0.61
'0:14.965',0.68
'0:14.969',0.56
'0:14.973',0.36
'0:14.977',0.12
'0:14.980',-0.03
'0:14.984',-0.25
'0:14.988',-0.57
'0:14.992',-0.92
'0:14.996',-1.29
'0:15.000',-1.59
'0:15.004',-2.08
'0:15.008',-2.57
'0:15.012',-2.86
'0:15.016',-2.96
'0:15.020',-3.03
'0:15.023',-3.22
'0:15.027',-3.34
'0:15.031',-3.25
'0:15.035',-3.04
'0:15.039',-2.81
'0:15.043',-2.34
'0:15.047',-1.33
'0:15.051',0.41
'0:15.055',1.94
'0:15.059',1.4
'0:15.063',-0.45
'0:15.066',-2.26
'0:15.070',-3.55
'0:15.074',-4.19
'0:15.078',-4.08
'0:15.082',-3.48
'0:15.086',-2.84
'0:15.090',-2.47
'0:15.094',-2.56
'0:15.098',-2.63
'0:15.102',-2.25
'0:15.105',-1.49
'0:15.109',-0.98
'0:15.113',-0.88
'0:15.117',-0.75
'0:15.121',-0.58
'0:15.125',-0.09
'0:15.129',0.83
'0:15.133',1.42
'0:15.137',1.48
'0:15.141',1.26
'0:15.145',1.19
'0:15.148',1.12
'0:15.152',0.93
'0:15.156',0.43
'0:15.160',0.8
'0:15.164',1.67
'0:15.168',2.28
'0:15.172',2.8
'0:15.176',3.4
'0:15.180',4.37
'0:15.184',5.35
'0:15.188',5.22
'0:15.191',4.07
'0:15.195',3.12
'0:15.199',2.2
'0:15.203',1.74
'0:15.207',1.63
'0:15.211',1.08
'0:15.215',0.29
'0:15.219',-0.34
'0:15.223',-0.4
'0:15.227',-0.17
'0:15.230',-0.09
'0:15.234',0.44
'0:15.238',1.62
'0:15.242',1.23
'0:15.246',-1.07
'0:15.250',-2.44
'0:15.254',-2.02
'0:15.258',-1.13
'0:15.262',-0.79
'0:15.266',-0.44
'0:15.270',0.22
'0:15.273',1.02
'0:15.277',1.09
'0:15.281',0.97
'0:15.285',0.65
'0:15.289',-0.51
'0:15.293',-2.37
'0:15.297',-3.45
'0:15.301',-3.72
'0:15.305',-3.58
'0:15.309',-3.48
'0:15.313',-3.62
'0:15.316',-3.6
'0:15.320',-3.46
'0:15.324',-3.19
'0:15.328',-2.95
'0:15.332',-2.92
'0:15.336',-2.65
'0:15.340',-2.42
'0:15.344',-1.27
'0:15.348',0.58
'0:15.352',0.73
'0:15.355',-0.51
'0:15.359',-1.33
'0:15.363',-1.26
'0:15.367',-0.25
'0:15.371',-0.83
'0:15.375',-3.53
'0:15.379',-5.77
'0:15.383',-5.96
'0:15.387',-4.97
'0:15.391',-3.79
'0:15.395',-2.92
'0:15.398',-2.27
'0:15.402',-1.66
'0:15.406',-1.2
'0:15.410',-0.58
'0:15.414',0.04
'0:15.418',0.55
'0:15.422',1.03
'0:15.426',1.04
'0:15.430',0.4
'0:15.434',-0.12
'0:15.438',0.04
'0:15.441',0.92
'0:15.445',3.15
'0:15.449',4.23
'0:15.453',3.28
'0:15.457',2.01
'0:15.461',1.55
'0:15.465',1.99
'0:15.469',2.67
'0:15.473',3.35
'0:15.477',3.87
'0:15.480',4.03
'0:15.484',4.15
'0:15.488',4.22
'0:15.492',4.16
'0:15.496',3.67
'0:15.500',2.1
'0:15.504',0.87
'0:15.508',1.03
'0:15.512',1.15
'0:15.516',0.29
'0:15.520',-0.49
'0:15.523',-0.49
'0:15.527',0.8
'0:15.531',1.98
'0:15.535',0.92
'0:15.539',-0.14
'0:15.543',0.12
'0:15.547',1.08
'0:15.551',1.46
'0:15.555',0.84
'0:15.559',0.05
'0:15.563',-0.44
'0:15.566',-0.26
'0:15.570',0.7
'0:15.574',0.78
'0:15.578',-0.58
'0:15.582',-1.83
'0:15.586',-2.48
'0:15.590',-2.56
'0:15.594',-2.23
'0:15.598',-1.87
'0:15.602',-1.29
'0:15.605',-0.09
'0:15.609',0.7
'0:15.613',-1.21
'0:15.617',-3.07
'0:15.621',-3.79
'0:15.625',-4.24
'0:15.629',-3.79
'0:15.633',-2.01
'0:15.637',0.55
'0:15.641',2.36
'0:15.645',2.2
'0:15.648',0.47
'0:15.652',-1.77
'0:15.656',-3.1
'0:15.660',-3.19
'0:15.664',-2.63
'0:15.668',-1.77
'0:15.672',-0.93
'0:15.676',-0.36
'0:15.680',-0.66
'0:15.684',-1.61
'0:15.688',-2.09
'0:15.691',-1.92
'0:15.695',-1.42
'0:15.699',-0.41
'0:15.703',0.48
'0:15.707',0.61
'0:15.711',0.41
'0:15.715',0.41
'0:15.719',0.63
'0:15.723',0.78
'0:15.727',0.86
'0:15.730',1.09
'0:15.734',1.57
'0:15.738',2.01
'0:15.742',2.28
'0:15.746',2.5
'0:15.750',2.84
'0:15.754',3.46
'0:15.758',4.43
'0:15.762',4.89
'0:15.766',4.54
'0:15.770',3.99
'0:15.773',3.55
'0:15.777',3.29
'0:15.781',3.22
'0:15.785',3.22
'0:15.789',2.98
'0:15.793',2.49
'0:15.797',2.16
'0:15.801',1.84
'0:15.805',1.53
'0:15.809',1.34
'0:15.813',1.15
'0:15.816',1.21
'0:15.820',1.56
'0:15.824',1.71
'0:15.828',1.6
'0:15.832',1.46
'0:15.836',1.3
'0:15.840',1.47
'0:15.844',1.86
'0:15.848',1.79
'0:15.852',1.34
'0:15.855',0.87
'0:15.859',0.41
'0:15.863',-0.03
'0:15.867',-0.35
'0:15.871',-0.84
'0:15.875',-1.33
'0:15.879',-1.56
'0:15.883',-1.73
'0:15.887',-1.99
'0:15.891',-2.29
'0:15.895',-2.36
'0:15.898',-2.16
'0:15.902',-2.28
'0:15.906',-2.52
'0:15.910',-2.4
'0:15.914',-2.14
'0:15.918',-1.64
'0:15.922',-0.37
'0:15.926',1.79
'0:15.930',3.72
'0:15.934',3.22
'0:15.938',1.02
'0:15.941',-1.13
'0:15.945',-2.53
'0:15.949',-3.43
'0:15.953',-3.9
'0:15.957',-4.02
'0:15.961',-3.8
'0:15.965',-3.19
'0:15.969',-2.59
'0:15.973',-2.24
'0:15.977',-2.06
'0:15.980',-1.87
'0:15.984',-1.62
'0:15.988',-1.32
'0:15.992',-1.09
'0:15.996',-0.87
'0:16.000',-0.65
'0:16.004',-0.5
'0:16.008',-0.27
'0:16.012',0.08
'0:16.016',0.47
'0:16.020',0.81
'0:16.023',1.05
'0:16.027',1.22
'0:16.031',1.43
'0:16.035',1.82
'0:16.039',2.28
'0:16.043',2.74
'0:16.047',3.07
'0:16.051',3.24
'0:16.055',3.35
'0:16.059',3.5
'0:16.063',3.46
'0:16.066',3.2
'0:16.070',2.79
'0:16.074',2.4
'0:16.078',2.05
'0:16.082',1.77
'0:16.086',1.54
'0:16.090',1.16
'0:16.094',0.67
'0:16.098',0.34
'0:16.102',0.24
'0:16.105',0.23
'0:16.109',0.32
'0:16.113',0.43
'0:16.117',0.5
'0:16.121',0.64
'0:16.125',0.9
'0:16.129',1.13
'0:16.133',1.22
'0:16.137',1.13
'0:16.141',0.95
'0:16.145',0.73
'0:16.148',0.46
'0:16.152',0.19
'0:16.156',-0.22
'0:16.160',-0.79
'0:16.164',-1.27
'0:16.168',-1.58
'0:16.172',-1.84
'0:16.176',-2.12
'0:16.180',-2.3
'0:16.184',-2.36
'0:16.188',-2.32
'0:16.191',-2.26
'0:16.195',-2.39
'0:16.199',-2.48
'0:16.203',-2.26
'0:16.207',-1.61
'0:16.211',-0.8
'0:16.215',0
'0:16.219',1.25
'0:16.223',1.78
'0:16.227',0.46
'0:16.230',-1.58
'0:16.234',-3.32
'0:16.238',-4.22
'0:16.242',-4.24
'0:16.246',-3.87
'0:16.250',-3.36
'0:16.254',-2.88
'0:16.258',-2.46
'0:16.262',-2.21
'0:16.266',-1.91
'0:16.270',-1.53
'0:16.273',-1.18
'0:16.277',-0.94
'0:16.281',-0.83
'0:16.285',-0.75
'0:16.289',-0.63
'0:16.293',-0.52
'0:16.297',-0.3
'0:16.301',0.19
'0:16.305',0.84
'0:16.309',1.28
'0:16.313',1.57
'0:16.316',1.57
'0:16.320',1.41
'0:16.324',1.34
'0:16.328',1.57
'0:16.332',1.99
'0:16.336',2.52
'0:16.340',3.39
'0:16.344',3.96
'0:16.348',4.05
'0:16.352',3.9
'0:16.355',3.55
'0:16.359',3.25
'0:16.363',2.74
'0:16.367',2.24
'0:16.371',1.95
'0:16.375',1.75
'0:16.379',1.47
'0:16.383',1.17
'0:16.387',1.41
'0:16.391',1.98
'0:16.395',1.4
'0:16.398',0.03
'0:16.402',-0.94
'0:16.406',-1.55
'0:16.410',-1.78
'0:16.414',-1.3
'0:16.418',-0.56
'0:16.422',-0.15
'0:16.426',0.08
'0:16.430',0.23
'0:16.434',0.4
'0:16.438',0.18
'0:16.441',-0.12
'0:16.445',-0.37
'0:16.449',-0.52
'0:16.453',-1.31
'0:16.457',-2.25
'0:16.461',-3.06
'0:16.465',-3.42
'0:16.469',-3.06
'0:16.473',-2.77
'0:16.477',-2.46
'0:16.480',-1.76
'0:16.484',-1.45
'0:16.488',-2.57
'0:16.492',-3.63
'0:16.496',-4.04
'0:16.500',-3.99
'0:16.504',-3.45
'0:16.508',-1.95
'0:16.512',0.15
'0:16.516',0.17
'0:16.520',-1.12
'0:16.523',-1.93
'0:16.527',-2.37
'0:16.531',-2.78
'0:16.535',-3.58
'0:16.539',-3.02
'0:16.543',-2.32
'0:16.547',-2.87
'0:16.551',-3.62
'0:16.555',-3.34
'0:16.559',-2.77
'0:16.563',-3.01
'0:16.566',-2.91
'0:16.570',-1.95
'0:16.574',-0.96
'0:16.578',-0.18
'0:16.582',1.07
'0:16.586',1.19
'0:16.590',0.71
'0:16.594',0.13
'0:16.598',-0.62
'0:16.602',-1.04
'0:16.605',-0.82
'0:16.609',-0.4
'0:16.613',0.27
'0:16.617',1.25
'0:16.621',2.41
'0:16.625',3.22
'0:16.629',4.25
'0:16.633',5.1
'0:16.637',5.26
'0:16.641',5.08
'0:16.645',4.69
'0:16.648',4.06
'0:16.652',3.05
'0:16.656',2.01
'0:16.660',1.46
'0:16.664',1.63
'0:16.668',2.56
'0:16.672',3.23
'0:16.676',2.94
'0:16.680',2.05
'0:16.684',0.21
'0:16.688',-0.7
'0:16.691',-0.93
'0:16.695',-0.88
'0:16.699',-0.34
'0:16.703',0.61
'0:16.707',1.6
'0:16.711',2.05
'0:16.715',2.01
'0:16.719',1.29
'0:16.723',0.14
'0:16.727',-0.74
'0:16.730',-0.92
'0:16.734',-0.85
'0:16.738',-0.85
'0:16.742',-1.25
'0:16.746',-1.59
'0:16.750',-1.89
'0:16.754',-2.13
'0:16.758',-1.89
'0:16.762',-0.37
'0:16.766',0.61
'0:16.770',-0.58
'0:16.773',-2.38
'0:16.777',-3.68
'0:16.781',-4.2
'0:16.785',-3.66
'0:16.789',-3.06
'0:16.793',-2.67
'0:16.797',-1.71
'0:16.801',0.46
'0:16.805',2.32
'0:16.809',1.48
'0:16.813',-0.85
'0:16.816',-2.75
'0:16.820',-3.68
'0:16.824',-3.34
'0:16.828',-2.55
'0:16.832',-2.5
'0:16.836',-2.5
'0:16.840',-2.4
'0:16.844',-1.96
'0:16.848',-1.25
'0:16.852',0.09
'0:16.855',1.01
'0:16.859',-0.05
'0:16.863',-1.21
'0:16.867',-1.61
'0:16.871',-1.4
'0:16.875',-0.57
'0:16.879',0.44
'0:16.883',1.58
'0:16.887',1.74
'0:16.891',1.11
'0:16.895',0.99
'0:16.898',1.71
'0:16.902',2.27
'0:16.906',2.06
'0:16.910',1.82
'0:16.914',1.96
'0:16.918',2.4
'0:16.922',3.03
'0:16.926',3.53
'0:16.930',3.68
'0:16.934',3.86
'0:16.938',3.95
'0:16.941',4.08
'0:16.945',4.49
'0:16.949',4.21
'0:16.953',3.32
'0:16.957',2.98
'0:16.961',2.7
'0:16.965',1.89
'0:16.969',1.12
'0:16.973',0.65
'0:16.977',0.39
'0:16.980',0.42
'0:16.984',0.8
'0:16.988',1.38
'0:16.992',1.31
'0:16.996',0.86
'0:17.000',0.56
'0:17.004',0.59
'0:17.008',0.96
'0:17.012',1.14
'0:17.016',0.78
'0:17.020',0.29
'0:17.023',0.2
'0:17.027',0.47
'0:17.031',0.31
'0:17.035',-0.4
'0:17.039',-1.15
'0:17.043',-1.16
'0:17.047',-0.58
'0:17.051',-0.74
'0:17.055',-2
'0:17.059',-2.88
'0:17.063',-3.08
'0:17.066',-2.92
'0:17.070',-2.64
'0:17.074',-2.35
'0:17.078',-2.36
'0:17.082',-2.28
'0:17.086',-1.7
'0:17.090',-0.27
'0:17.094',1.55
'0:17.098',1.75
'0:17.102',0.38
'0:17.105',-1.04
'0:17.109',-1.82
'0:17.113',-2.4
'0:17.117',-2.93
'0:17.121',-3.12
'0:17.125',-2.86
'0:17.129',-2.34
'0:17.133',-1.65
'0:17.137',-1.46
'0:17.141',-1.53
'0:17.145',-1.41
'0:17.148',-1.15
'0:17.152',-0.79
'0:17.156',-0.35
'0:17.160',-0.04
'0:17.164',0.1
'0:17.168',0.23
'0:17.172',0.5
'0:17.176',0.75
'0:17.180',0.94
'0:17.184',1.11
'0:17.188',1.2
'0:17.191',1.42
'0:17.195',1.64
'0:17.199',1.81
'0:17.203',2.22
'0:17.207',2.69
'0:17.211',3.23
'0:17.215',3.69
'0:17.219',3.85
'0:17.223',3.85
'0:17.227',4.13
'0:17.230',4.26
'0:17.234',3.63
'0:17.238',2.72
'0:17.242',2.14
'0:17.246',2.28
'0:17.250',2.8
'0:17.254',2.31
'0:17.258',0.95
'0:17.262',0.02
'0:17.266',-0.31
'0:17.270',-0.4
'0:17.273',-0.47
'0:17.277',-0.34
'0:17.281',-0.11
'0:17.285',0.14
'0:17.289',0.5
'0:17.293',0.85
'0:17.297',0.92
'0:17.301',0.7
'0:17.305',0.56
'0:17.309',0.49
'0:17.313',0.31
'0:17.316',-0.1
'0:17.320',-0.47
'0:17.324',-0.93
'0:17.328',-1.35
'0:17.332',-1.81
'0:17.336',-2.22
'0:17.340',-2.44
'0:17.344',-2.55
'0:17.348',-2.69
'0:17.352',-2.81
'0:17.355',-2.84
'0:17.359',-2.67
'0:17.363',-2.4
'0:17.367',-2.39
'0:17.371',-2.64
'0:17.375',-2.62
'0:17.379',-1.73
'0:17.383',0.19
'0:17.387',2.3
'0:17.391',2.52
'0:17.395',0.85
'0:17.398',-1.34
'0:17.402',-2.89
'0:17.406',-3.69
'0:17.410',-3.87
'0:17.414',-3.62
'0:17.418',-3.21
'0:17.422',-2.91
'0:17.426',-2.73
'0:17.430',-2.58
'0:17.434',-2.36
'0:17.438',-2.05
'0:17.441',-1.49
'0:17.445',-1.03
'0:17.449',-0.91
'0:17.453',-0.94
'0:17.457',-0.84
'0:17.461',-0.64
'0:17.465',-0.41
'0:17.469',-0.12
'0:17.473',0.23
'0:17.477',0.6
'0:17.480',0.95
'0:17.484',1.39
'0:17.488',2.01
'0:17.492',2.42
'0:17.496',2.44
'0:17.500',2.54
'0:17.504',2.84
'0:17.508',3.2
'0:17.512',3.46
'0:17.516',3.56
'0:17.520',3.59
'0:17.523',3.48
'0:17.527',3.31
'0:17.531',3.03
'0:17.535',2.67
'0:17.539',2.28
'0:17.543',1.89
'0:17.547',1.5
'0:17.551',1.22
'0:17.555',1.01
'0:17.559',0.86
'0:17.563',0.78
'0:17.566',0.71
'0:17.570',0.78
'0:17.574',0.91
'0:17.578',1.02
'0:17.582',1.05
'0:17.586',1.02
'0:17.590',0.97
'0:17.594',0.87
'0:17.598',0.83
'0:17.602',0.7
'0:17.605',0.44
'0:17.609',0.14
'0:17.613',-0.25
'0:17.617',-0.73
'0:17.621',-1.21
'0:17.625',-1.61
'0:17.629',-1.8
'0:17.633',-2.1
'0:17.637',-2.35
'0:17.641',-2.69
'0:17.645',-2.97
'0:17.648',-3
'0:17.652',-3
'0:17.656',-2.96
'0:17.660',-2.95
'0:17.664',-2.84
'0:17.668',-2.33
'0:17.672',-1.22
'0:17.676',0.69
'0:17.680',1.75
'0:17.684',0.81
'0:17.688',-1.15
'0:17.691',-2.81
'0:17.695',-3.67
'0:17.699',-4.03
'0:17.703',-4.16
'0:17.707',-3.88
'0:17.711',-3.31
'0:17.715',-2.54
'0:17.719',-2.14
'0:17.723',-1.99
'0:17.727',-1.72
'0:17.730',-1.55
'0:17.734',-1.38
'0:17.738',-1.28
'0:17.742',-0.96
'0:17.746',-0.59
'0:17.750',-0.36
'0:17.754',-0.09
'0:17.758',0.19
'0:17.762',0.47
'0:17.766',0.81
'0:17.770',1.05
'0:17.773',1.18
'0:17.777',1.32
'0:17.781',1.59
'0:17.785',1.99
'0:17.789',2.29
'0:17.793',2.55
'0:17.797',3.11
'0:17.801',3.5
'0:17.805',3.73
'0:17.809',3.68
'0:17.813',3.48
'0:17.816',3.31
'0:17.820',3.18
'0:17.824',2.76
'0:17.828',2.05
'0:17.832',1.43
'0:17.836',0.89
'0:17.840',0.55
'0:17.844',0.29
'0:17.848',0.12
'0:17.852',-0.02
'0:17.855',-0.21
'0:17.859',-0.34
'0:17.863',-0.08
'0:17.867',0.31
'0:17.871',0.49
'0:17.875',0.41
'0:17.879',0.14
'0:17.883',0.17
'0:17.887',0.22
'0:17.891',0.29
'0:17.895',0.47
'0:17.898',0.23
'0:17.902',-0.2
'0:17.906',-0.45
'0:17.910',-0.93
'0:17.914',-1.43
'0:17.918',-1.66
'0:17.922',-2.1
'0:17.926',-2.82
'0:17.930',-3.29
'0:17.934',-3.03
'0:17.938',-2.57
'0:17.941',-2.49
'0:17.945',-2.91
'0:17.949',-2.99
'0:17.953',-2.74
'0:17.957',-2.71
'0:17.961',-2.57
'0:17.965',-1.88
'0:17.969',0.12
'0:17.973',1.86
'0:17.977',1.5
'0:17.980',-0.2
'0:17.984',-1.86
'0:17.988',-2.97
'0:17.992',-3.46
'0:17.996',-3.5
'0:18.000',-3.21
'0:18.004',-2.79
'0:18.008',-2.35
'0:18.012',-1.96
'0:18.016',-1.71
'0:18.020',-1.64
'0:18.023',-1.53
'0:18.027',-1.34
'0:18.031',-1.07
'0:18.035',-0.7
'0:18.039',-0.24
'0:18.043',0.02
'0:18.047',0.16
'0:18.051',0.35
'0:18.055',0.76
'0:18.059',1.28
'0:18.063',1.37
'0:18.066',1.19
'0:18.070',1.18
'0:18.074',1.55
'0:18.078',1.83
'0:18.082',1.98
'0:18.086',2.28
'0:18.090',2.73
'0:18.094',3.26
'0:18.098',3.66
'0:18.102',3.88
'0:18.105',4.04
'0:18.109',4.01
'0:18.113',3.5
'0:18.117',2.89
'0:18.121',2.18
'0:18.125',1.38
'0:18.129',0.85
'0:18.133',0.56
'0:18.137',0.42
'0:18.141',0.37
'0:18.145',0.37
'0:18.148',0.3
'0:18.152',0.14
'0:18.156',-0.27
'0:18.160',-0.53
'0:18.164',-0.58
'0:18.168',-0.58
'0:18.172',-0.45
'0:18.176',-0.13
'0:18.180',0.13
'0:18.184',0.2
'0:18.188',0.19
'0:18.191',0.08
'0:18.195',-0.04
'0:18.199',-0.14
'0:18.203',-0.5
'0:18.207',-1.42
'0:18.211',-2.46
'0:18.215',-3.08
'0:18.219',-3.36
'0:18.223',-3.36
'0:18.227',-2.91
'0:18.230',-2.44
'0:18.234',-2.59
'0:18.238',-3.13
'0:18.242',-3.36
'0:18.246',-3.25
'0:18.250',-3.33
'0:18.254',-3.08
'0:18.258',-2.05
'0:18.262',-0.19
'0:18.266',1.42
'0:18.270',0.81
'0:18.273',-1.09
'0:18.277',-2.93
'0:18.281',-3.83
'0:18.285',-3.88
'0:18.289',-3.42
'0:18.293',-2.94
'0:18.297',-2.62
'0:18.301',-2.26
'0:18.305',-1.97
'0:18.309',-1.59
'0:18.313',-1.19
'0:18.316',-1.38
'0:18.320',-1.73
'0:18.324',-1.79
'0:18.328',-1.54
'0:18.332',-0.92
'0:18.336',0.17
'0:18.340',1.03
'0:18.344',1.17
'0:18.348',0.9
'0:18.352',0.65
'0:18.355',0.51
'0:18.359',0.68
'0:18.363',1.09
'0:18.367',1.64
'0:18.371',2.04
'0:18.375',2.81
'0:18.379',3.77
'0:18.383',4.14
'0:18.387',3.73
'0:18.391',3.36
'0:18.395',3.19
'0:18.398',3.19
'0:18.402',3.15
'0:18.406',3.21
'0:18.410',3.22
'0:18.414',3.14
'0:18.418',3.24
'0:18.422',2.5
'0:18.426',1.14
'0:18.430',0.49
'0:18.434',0.47
'0:18.438',0.65
'0:18.441',0.79
'0:18.445',1.27
'0:18.449',1.95
'0:18.453',1.74
'0:18.457',1.01
'0:18.461',0.77
'0:18.465',0.78
'0:18.469',0.88
'0:18.473',0.85
'0:18.477',0.67
'0:18.480',0.53
'0:18.484',0.56
'0:18.488',0.66
'0:18.492',0.4
'0:18.496',-0.54
'0:18.500',-1.49
'0:18.504',-1.99
'0:18.508',-2.06
'0:18.512',-1.84
'0:18.516',-1.79
'0:18.520',-1.95
'0:18.523',-1.94
'0:18.527',-1.88
'0:18.531',-2.2
'0:18.535',-2.35
'0:18.539',-2.11
'0:18.543',-2.04
'0:18.547',-1.38
'0:18.551',0.18
'0:18.555',2.31
'0:18.559',3.15
'0:18.563',1.75
'0:18.566',-0.51
'0:18.570',-2.4
'0:18.574',-3.29
'0:18.578',-3.5
'0:18.582',-3.23
'0:18.586',-2.89
'0:18.590',-2.67
'0:18.594',-2.38
'0:18.598',-2.1
'0:18.602',-1.79
'0:18.605',-1.43
'0:18.609',-1.22
'0:18.613',-1.24
'0:18.617',-1.21
'0:18.621',-1.09
'0:18.625',-0.79
'0:18.629',-0.43
'0:18.633',-0.04
'0:18.637',0.35
'0:18.641',0.54
'0:18.645',0.6
'0:18.648',0.66
'0:18.652',0.82
'0:18.656',1.18
'0:18.660',1.7
'0:18.664',2.24
'0:18.668',2.77
'0:18.672',3.18
'0:18.676',3.37
'0:18.680',3.46
'0:18.684',3.45
'0:18.688',3.31
'0:18.691',3.13
'0:18.695',2.97
'0:18.699',2.85
'0:18.703',3
'0:18.707',2.85
'0:18.711',2.16
'0:18.715',1.57
'0:18.719',1.09
'0:18.723',0.94
'0:18.727',1.23
'0:18.730',1.26
'0:18.734',0.72
'0:18.738',0.27
'0:18.742',0.05
'0:18.746',0.06
'0:18.750',0.31
'0:18.754',0.64
'0:18.758',0.93
'0:18.762',1.07
'0:18.766',1.02
'0:18.770',0.93
'0:18.773',0.8
'0:18.777',0.6
'0:18.781',0.39
'0:18.785',0
'0:18.789',-0.51
'0:18.793',-1.02
'0:18.797',-1.4
'0:18.801',-1.58
'0:18.805',-1.54
'0:18.809',-1.59
'0:18.813',-1.91
'0:18.816',-2.37
'0:18.820',-2.68
'0:18.824',-2.82
'0:18.828',-2.78
'0:18.832',-2.62
'0:18.836',-2.3
'0:18.840',-1.49
'0:18.844',0
'0:18.848',1.97
'0:18.852',2.74
'0:18.855',1.41
'0:18.859',-0.72
'0:18.863',-2.32
'0:18.867',-3.04
'0:18.871',-3.17
'0:18.875',-3.06
'0:18.879',-2.72
'0:18.883',-2.3
'0:18.887',-2.04
'0:18.891',-1.8
'0:18.895',-1.54
'0:18.898',-1.33
'0:18.902',-1.19
'0:18.906',-0.97
'0:18.910',-0.68
'0:18.914',-0.43
'0:18.918',-0.26
'0:18.922',-0.1
'0:18.926',0.02
'0:18.930',0.12
'0:18.934',0.18
'0:18.938',0.42
'0:18.941',0.77
'0:18.945',1.05
'0:18.949',1.32
'0:18.953',1.65
'0:18.957',2.06
'0:18.961',2.51
'0:18.965',3.02
'0:18.969',3.43
'0:18.973',3.63
'0:18.977',3.61
'0:18.980',3.56
'0:18.984',3.52
'0:18.988',3.39
'0:18.992',3.1
'0:18.996',2.6
'0:19.000',2.03
'0:19.004',1.5
'0:19.008',1.13
'0:19.012',0.75
'0:19.016',0.49
'0:19.020',0.32
'0:19.023',0.29
'0:19.027',0.43
'0:19.031',0.49
'0:19.035',0.44
'0:19.039',0.39
'0:19.043',0.42
'0:19.047',0.56
'0:19.051',0.64
'0:19.055',0.64
'0:19.059',0.68
'0:19.063',0.6
'0:19.066',0.41
'0:19.070',0.06
'0:19.074',-0.35
'0:19.078',-0.77
'0:19.082',-1.2
'0:19.086',-1.56
'0:19.090',-1.8
'0:19.094',-2
'0:19.098',-2.15
'0:19.102',-2.26
'0:19.105',-2.35
'0:19.109',-2.44
'0:19.113',-2.6
'0:19.117',-2.65
'0:19.121',-2.58
'0:19.125',-2.4
'0:19.129',-1.65
'0:19.133',-0.01
'0:19.137',2.12
'0:19.141',2.88
'0:19.145',1.3
'0:19.148',-1.18
'0:19.152',-3.02
'0:19.156',-4.03
'0:19.160',-4.38
'0:19.164',-4.18
'0:19.168',-3.68
'0:19.172',-3.15
'0:19.176',-2.62
'0:19.180',-2.08
'0:19.184',-1.79
'0:19.188',-1.73
'0:19.191',-1.65
'0:19.195',-1.48
'0:19.199',-1.24
'0:19.203',-0.9
'0:19.207',-0.62
'0:19.211',-0.49
'0:19.215',-0.42
'0:19.219',-0.28
'0:19.223',0.07
'0:19.227',0.52
'0:19.230',0.86
'0:19.234',1.19
'0:19.238',1.45
'0:19.242',1.81
'0:19.246',2.31
'0:19.250',2.79
'0:19.254',3.2
'0:19.258',3.47
'0:19.262',3.56
'0:19.266',3.61
'0:19.270',3.59
'0:19.273',3.39
'0:19.277',3.16
'0:19.281',3.02
'0:19.285',2.78
'0:19.289',2.42
'0:19.293',1.94
'0:19.297',1.42
'0:19.301',0.9
'0:19.305',0.55
'0:19.309',0.34
'0:19.313',0.3
'0:19.316',0.37
'0:19.320',0.42
'0:19.324',0.29
'0:19.328',0.05
'0:19.332',-0.09
'0:19.336',-0.04
'0:19.340',0.15
'0:19.344',0.37
'0:19.348',0.35
'0:19.352',0.34
'0:19.355',0.29
'0:19.359',0.02
'0:19.363',-0.23
'0:19.367',-0.69
'0:19.371',-1.23
'0:19.375',-1.82
'0:19.379',-2.21
'0:19.383',-2.41
'0:19.387',-2.55
'0:19.391',-2.73
'0:19.395',-2.93
'0:19.398',-2.95
'0:19.402',-2.87
'0:19.406',-2.86
'0:19.410',-2.96
'0:19.414',-2.88
'0:19.418',-2.88
'0:19.422',-2.73
'0:19.426',-1.76
'0:19.430',0.01
'0:19.434',1.82
'0:19.438',1.49
'0:19.441',-0.61
'0:19.445',-2.37
'0:19.449',-3.54
'0:19.453',-4.3
'0:19.457',-4.53
'0:19.461',-4.15
'0:19.465',-3.39
'0:19.469',-2.8
'0:19.473',-2.48
'0:19.477',-2.33
'0:19.480',-2.13
'0:19.484',-1.57
'0:19.488',-1.01
'0:19.492',-0.87
'0:19.496',-1.1
'0:19.500',-1.27
'0:19.504',-1.2
'0:19.508',-0.68
'0:19.512',0.02
'0:19.516',0.67
'0:19.520',1.01
'0:19.523',0.92
'0:19.527',0.54
