'0:00.000',-2.31
'0:00.004',-2.42
'0:00.008',-2.48
'0:00.012',-2.65
'0:00.016',-3.31
'0:00.020',-3.87
'0:00.023',-3.93
'0:00.027',-3.71
'0:00.031',-3.63
'0:00.035',-3.53
'0:00.039',-3.48
'0:00.043',-3.36
'0:00.047',-3.05
'0:00.051',-3.29
'0:00.055',-4.23
'0:00.059',-4.78
'0:00.063',-4.98
'0:00.066',-5.04
'0:00.070',-4.85
'0:00.074',-4.49
'0:00.078',-4.56
'0:00.082',-4.94
'0:00.086',-5.11
'0:00.090',-4.88
'0:00.094',-4.58
'0:00.098',-3.97
'0:00.102',-3.66
'0:00.105',-3.47
'0:00.109',-3.31
'0:00.113',-2.48
'0:00.117',-0.99
'0:00.121',-0.68
'0:00.125',2.46
'0:00.129',5.38
'0:00.133',9.32
'0:00.137',13.32
'0:00.141',16.29
'0:00.145',16.04
'0:00.148',12.81
'0:00.152',7.54
'0:00.156',1.51
'0:00.160',-3.44
'0:00.164',-6.29
'0:00.168',-7.33
'0:00.172',-7.4
'0:00.176',-6.43
'0:00.180',-4.96
'0:00.184',-3.47
'0:00.188',-2.27
'0:00.191',-1.33
'0:00.195',-0.58
'0:00.199',0.18
'0:00.203',0.85
'0:00.207',1.37
'0:00.211',1.78
'0:00.215',2.2
'0:00.219',2.47
'0:00.223',2.65
'0:00.227',2.78
'0:00.230',2.64
'0:00.234',2.58
'0:00.238',2.65
'0:00.242',2.68
'0:00.246',2.42
'0:00.250',2.19
'0:00.254',2.53
'0:00.258',2.78
'0:00.262',2.76
'0:00.266',3.02
'0:00.270',3.47
'0:00.273',3.83
'0:00.277',4.36
'0:00.281',4.88
'0:00.285',5.17
'0:00.289',5.48
'0:00.293',5.71
'0:00.297',5.26
'0:00.301',4.51
'0:00.305',3.75
'0:00.309',3.19
'0:00.313',2.67
'0:00.316',1.99
'0:00.320',1.59
'0:00.324',1.35
'0:00.328',1.13
'0:00.332',1.03
'0:00.336',1.23
'0:00.340',1.34
'0:00.344',1.32
'0:00.348',1.39
'0:00.352',1.37
'0:00.355',1.49
'0:00.359',1.69
'0:00.363',1.73
'0:00.367',1.84
'0:00.371',2.07
'0:00.375',2.01
'0:00.379',1.75
'0:00.383',1.46
'0:00.387',1.16
'0:00.391',0.75
'0:00.395',0.4
'0:00.398',0.07
'0:00.402',-0.34
'0:00.406',-0.81
'0:00.410',-1.01
'0:00.414',-1.11
'0:00.418',-1.32
'0:00.422',-1.28
'0:00.426',-0.87
'0:00.430',-0.5
'0:00.434',-0.43
'0:00.438',-0.78
'0:00.441',-1.1
'0:00.445',-1.03
'0:00.449',-0.35
'0:00.453',1.2
'0:00.457',3.59
'0:00.461',6.87
'0:00.465',10.86
'0:00.469',15.06
'0:00.473',17.2
'0:00.477',15.84
'0:00.480',11.29
'0:00.484',4.5
'0:00.488',-2.8
'0:00.492',-8.83
'0:00.496',-12.01
'0:00.500',-12.33
'0:00.504',-10.94
'0:00.508',-9.24
'0:00.512',-8
'0:00.516',-7.17
'0:00.520',-5.89
'0:00.523',-4.22
'0:00.527',-2.31
'0:00.531',-0.75
'0:00.535',0.13
'0:00.539',0.79
'0:00.543',0.3
'0:00.547',-0.51
'0:00.551',-1.02
'0:00.555',-0.6
'0:00.559',-0.83
'0:00.563',-1.18
'0:00.566',-1.03
'0:00.570',0.28
'0:00.574',1.72
'0:00.578',2.45
'0:00.582',2.03
'0:00.586',0.63
'0:00.590',-0.45
'0:00.594',-0.28
'0:00.598',0.55
'0:00.602',1.21
'0:00.605',1.97
'0:00.609',3.14
'0:00.613',4.19
'0:00.617',4.64
'0:00.621',4.56
'0:00.625',4.25
'0:00.629',4.19
'0:00.633',4.1
'0:00.637',3.97
'0:00.641',3.75
'0:00.645',3.13
'0:00.648',2.21
'0:00.652',1.89
'0:00.656',2.6
'0:00.660',2.85
'0:00.664',1.37
'0:00.668',-0.2
'0:00.672',-1.07
'0:00.676',-1.03
'0:00.680',-0.09
'0:00.684',0.42
'0:00.688',0.93
'0:00.691',1.55
'0:00.695',1.38
'0:00.699',0.46
'0:00.703',-0.87
'0:00.707',-2.01
'0:00.711',-2.42
'0:00.715',-2.5
'0:00.719',-2.34
'0:00.723',-2.31
'0:00.727',-2.49
'0:00.730',-2.6
'0:00.734',-2.45
'0:00.738',-2.2
'0:00.742',-2.43
'0:00.746',-3.04
'0:00.750',-3.41
'0:00.754',-3.41
'0:00.758',-3.42
'0:00.762',-3.81
'0:00.766',-4.3
'0:00.770',-3.94
'0:00.773',-3.75
'0:00.777',-4.3
'0:00.781',-4.6
'0:00.785',-4.01
'0:00.789',-2.28
'0:00.793',0.89
'0:00.797',4.4
'0:00.801',7.61
'0:00.805',10.24
'0:00.809',10.13
'0:00.813',6.3
'0:00.816',0.72
'0:00.820',-4.97
'0:00.824',-10.53
'0:00.828',-13.97
'0:00.832',-15.11
'0:00.836',-13.83
'0:00.840',-11.84
'0:00.844',-10.82
'0:00.848',-10.51
'0:00.852',-10.25
'0:00.855',-9.51
'0:00.859',-8.26
'0:00.863',-6.97
'0:00.867',-4.96
'0:00.871',-3.96
'0:00.875',-4.96
'0:00.879',-6.12
'0:00.883',-6.24
'0:00.887',-5.83
'0:00.891',-5.09
'0:00.895',-4.25
'0:00.898',-3.82
'0:00.902',-3.32
'0:00.906',-2.66
'0:00.910',-2.23
'0:00.914',-2.08
'0:00.918',-1.87
'0:00.922',-1.24
'0:00.926',-0.3
'0:00.930',0.7
'0:00.934',1.72
'0:00.938',2.93
'0:00.941',3.71
'0:00.945',4.1
'0:00.949',4.7
'0:00.953',5.2
'0:00.957',5.49
'0:00.961',5.58
'0:00.965',5.53
'0:00.969',5.48
'0:00.973',5.42
'0:00.977',5.32
'0:00.980',5.41
'0:00.984',5.43
'0:00.988',5.51
'0:00.992',5.55
'0:00.996',5.77
'0:01.000',5.78
'0:01.004',5.57
'0:01.008',5.38
'0:01.012',5.27
'0:01.016',5.61
'0:01.020',5.99
'0:01.023',5.79
'0:01.027',5.87
'0:01.031',5.9
'0:01.035',5.97
'0:01.039',5.93
'0:01.043',5.68
'0:01.047',5.13
'0:01.051',4.49
'0:01.055',3.91
'0:01.059',3.16
'0:01.063',2.39
'0:01.066',1.73
'0:01.070',1.28
'0:01.074',0.78
'0:01.078',0.52
'0:01.082',0.47
'0:01.086',0.38
'0:01.090',0.16
'0:01.094',0.08
'0:01.098',-0.01
'0:01.102',-0.54
'0:01.105',-1.02
'0:01.109',-0.79
'0:01.113',-0.01
'0:01.117',1.38
'0:01.121',3.29
'0:01.125',5.72
'0:01.129',8.6
'0:01.133',11.59
'0:01.137',13.12
'0:01.141',11.52
'0:01.145',7.45
'0:01.148',1.81
'0:01.152',-3.86
'0:01.156',-8.43
'0:01.160',-11.17
'0:01.164',-12.03
'0:01.168',-11.54
'0:01.172',-10.54
'0:01.176',-8.95
'0:01.180',-6.93
'0:01.184',-5.28
'0:01.188',-4.26
'0:01.191',-3.75
'0:01.195',-3.68
'0:01.199',-3.58
'0:01.203',-3.15
'0:01.207',-2.49
'0:01.211',-2.03
'0:01.215',-1.88
'0:01.219',-1.69
'0:01.223',-1.58
'0:01.227',-1.53
'0:01.230',-1.36
'0:01.234',-1.11
'0:01.238',-0.77
'0:01.242',-0.52
'0:01.246',-0.28
'0:01.250',-0.08
'0:01.254',0.14
'0:01.258',0.47
'0:01.262',0.8
'0:01.266',0.96
'0:01.270',1.32
'0:01.273',2.1
'0:01.277',2.69
'0:01.281',3.01
'0:01.285',3.37
'0:01.289',3.56
'0:01.293',3.47
'0:01.297',3.54
'0:01.301',3.73
'0:01.305',3.4
'0:01.309',2.84
'0:01.313',2.28
'0:01.316',1.67
'0:01.320',1.24
'0:01.324',0.94
'0:01.328',0.83
'0:01.332',0.97
'0:01.336',1.32
'0:01.340',1.36
'0:01.344',0.99
'0:01.348',0.79
'0:01.352',0.77
'0:01.355',0.94
'0:01.359',0.85
'0:01.363',0.33
'0:01.367',-0.17
'0:01.371',-0.4
'0:01.375',-0.7
'0:01.379',-1.3
'0:01.383',-2.26
'0:01.387',-2.87
'0:01.391',-3.08
'0:01.395',-3.27
'0:01.398',-3.72
'0:01.402',-4.03
'0:01.406',-4.16
'0:01.410',-4.19
'0:01.414',-4.11
'0:01.418',-3.92
'0:01.422',-3.93
'0:01.426',-3.99
'0:01.430',-4.08
'0:01.434',-4.11
'0:01.438',-3.77
'0:01.441',-2.91
'0:01.445',-1.45
'0:01.449',0.63
'0:01.453',3.65
'0:01.457',7.57
'0:01.461',11.89
'0:01.465',15.21
'0:01.469',15.69
'0:01.473',12.7
'0:01.477',6.99
'0:01.480',0.01
'0:01.484',-5.83
'0:01.488',-8.55
'0:01.492',-9.35
'0:01.496',-10.2
'0:01.500',-10.76
'0:01.504',-9.5
'0:01.508',-7.53
'0:01.512',-6.81
'0:01.516',-6.17
'0:01.520',-4.8
'0:01.523',-3.57
'0:01.527',-2.67
'0:01.531',-1.83
'0:01.535',-1.86
'0:01.539',-2.61
'0:01.543',-3.46
'0:01.547',-2.98
'0:01.551',-1.83
'0:01.555',-1.04
'0:01.559',-0.83
'0:01.563',-0.54
'0:01.566',-0.05
'0:01.570',0.09
'0:01.574',0.42
'0:01.578',0.35
'0:01.582',-0.21
'0:01.586',0.33
'0:01.590',1.17
'0:01.594',2.26
'0:01.598',3.02
'0:01.602',2.83
'0:01.605',3.51
'0:01.609',4.66
'0:01.613',5.17
'0:01.617',4.81
'0:01.621',4.44
'0:01.625',4.29
'0:01.629',4.36
'0:01.633',3.69
'0:01.637',2.64
'0:01.641',2.88
'0:01.645',2.84
'0:01.648',2.51
'0:01.652',2.35
'0:01.656',1.62
'0:01.660',0.65
'0:01.664',0.46
'0:01.668',0.8
'0:01.672',1.68
'0:01.676',2.37
'0:01.680',2.63
'0:01.684',2.4
'0:01.688',2.43
'0:01.691',1.99
'0:01.695',0.91
'0:01.699',-0.24
'0:01.703',-1.59
'0:01.707',-3.07
'0:01.711',-3.76
'0:01.715',-3.58
'0:01.719',-3.69
'0:01.723',-3.84
'0:01.727',-4.39
'0:01.730',-5.17
'0:01.734',-5.85
'0:01.738',-5.99
'0:01.742',-6.01
'0:01.746',-6.27
'0:01.750',-6.13
'0:01.754',-5.69
'0:01.758',-5.67
'0:01.762',-5.25
'0:01.766',-4.92
'0:01.770',-4.85
'0:01.773',-4.27
'0:01.777',-3.23
'0:01.781',-1.06
'0:01.785',2.54
'0:01.789',6.23
'0:01.793',9.68
'0:01.797',11.95
'0:01.801',11.35
'0:01.805',7.71
'0:01.809',2.11
'0:01.813',-3.74
'0:01.816',-8.07
'0:01.820',-10.28
'0:01.824',-11.69
'0:01.828',-11.76
'0:01.832',-10.17
'0:01.836',-7.52
'0:01.840',-4.98
'0:01.844',-3.27
'0:01.848',-2.65
'0:01.852',-2.42
'0:01.855',-1.83
'0:01.859',-0.92
'0:01.863',0.07
'0:01.867',0.99
'0:01.871',1.53
'0:01.875',2.35
'0:01.879',3.23
'0:01.883',3.86
'0:01.887',3.82
'0:01.891',3.51
'0:01.895',3.58
'0:01.898',3.91
'0:01.902',4.25
'0:01.906',4.63
'0:01.910',4.97
'0:01.914',5.34
'0:01.918',6.13
'0:01.922',7.03
'0:01.926',7.6
'0:01.930',7.94
'0:01.934',8.5
'0:01.938',8.56
'0:01.941',8.58
'0:01.945',8.46
'0:01.949',8.51
'0:01.953',8.86
'0:01.957',8.94
'0:01.961',8.43
'0:01.965',7.31
'0:01.969',5.85
'0:01.973',5.19
'0:01.977',4.71
'0:01.980',4.26
'0:01.984',3.62
'0:01.988',3.16
'0:01.992',3.01
'0:01.996',2.81
'0:02.000',2.62
'0:02.004',2.28
'0:02.008',1.94
'0:02.012',1.72
'0:02.016',1.43
'0:02.020',1.12
'0:02.023',0.73
'0:02.027',0.4
'0:02.031',0.03
'0:02.035',-0.33
'0:02.039',-0.52
'0:02.043',-0.83
'0:02.047',-1.52
'0:02.051',-2.24
'0:02.055',-2.8
'0:02.059',-3.38
'0:02.063',-3.94
'0:02.066',-4.46
'0:02.070',-4.72
'0:02.074',-4.57
'0:02.078',-4.34
'0:02.082',-4.15
'0:02.086',-4.06
'0:02.090',-4.19
'0:02.094',-4.61
'0:02.098',-5.17
'0:02.102',-4.97
'0:02.105',-4.14
'0:02.109',-2.58
'0:02.113',-0.16
'0:02.117',3.04
'0:02.121',6.48
'0:02.125',9.95
'0:02.129',12.03
'0:02.133',10.71
'0:02.137',6.68
'0:02.141',0.94
'0:02.145',-5.26
'0:02.148',-10.1
'0:02.152',-12.67
'0:02.156',-13.39
'0:02.160',-12.82
'0:02.164',-11.37
'0:02.168',-9.56
'0:02.172',-8.03
'0:02.176',-6.54
'0:02.180',-5.22
'0:02.184',-4.24
'0:02.188',-3.54
'0:02.191',-2.86
'0:02.195',-2.17
'0:02.199',-1.67
'0:02.203',-1.58
'0:02.207',-1.6
'0:02.211',-1.38
'0:02.215',-1.1
'0:02.219',-0.81
'0:02.223',-0.4
'0:02.227',-0.14
'0:02.230',-0.09
'0:02.234',0.03
'0:02.238',0.16
'0:02.242',0.5
'0:02.246',0.88
'0:02.250',1.05
'0:02.254',1.33
'0:02.258',1.86
'0:02.262',2.42
'0:02.266',2.91
'0:02.270',3.19
'0:02.273',3.31
'0:02.277',3.48
'0:02.281',3.7
'0:02.285',3.86
'0:02.289',3.63
'0:02.293',3.24
'0:02.297',2.66
'0:02.301',2.19
'0:02.305',1.63
'0:02.309',0.91
'0:02.313',0.2
'0:02.316',-0.09
'0:02.320',-0.19
'0:02.324',-0.18
'0:02.328',-0.04
'0:02.332',-0.09
'0:02.336',0.07
'0:02.340',0.17
'0:02.344',0.26
'0:02.348',0.36
'0:02.352',0.62
'0:02.355',0.55
'0:02.359',-0.13
'0:02.363',-1.27
'0:02.367',-2.14
'0:02.371',-2.45
'0:02.375',-2.55
'0:02.379',-2.79
'0:02.383',-3.11
'0:02.387',-3.22
'0:02.391',-3.43
'0:02.395',-3.95
'0:02.398',-4.18
'0:02.402',-4.61
'0:02.406',-4.97
'0:02.410',-4.97
'0:02.414',-4.76
'0:02.418',-4.45
'0:02.422',-4.22
'0:02.426',-4.09
'0:02.430',-4.03
'0:02.434',-3.56
'0:02.438',-2.35
'0:02.441',-0.51
'0:02.445',1.83
'0:02.449',4.5
'0:02.453',8.07
'0:02.457',11.91
'0:02.461',13.75
'0:02.465',12.5
'0:02.469',7.94
'0:02.473',0.8
'0:02.477',-6.23
'0:02.480',-10.44
'0:02.484',-11.95
'0:02.488',-12.34
'0:02.492',-12.08
'0:02.496',-10.96
'0:02.500',-9.87
'0:02.504',-8.61
'0:02.508',-7.45
'0:02.512',-6.21
'0:02.516',-5.14
'0:02.520',-4.16
'0:02.523',-3.25
'0:02.527',-2.71
'0:02.531',-2.37
'0:02.535',-2.15
'0:02.539',-1.75
'0:02.543',-1.16
'0:02.547',-0.76
'0:02.551',-0.49
'0:02.555',0
'0:02.559',0.8
'0:02.563',1.19
'0:02.566',1.39
'0:02.570',1.47
'0:02.574',1.58
'0:02.578',1.93
'0:02.582',2.63
'0:02.586',3.74
'0:02.590',4.62
'0:02.594',4.59
'0:02.598',4.69
'0:02.602',5.69
'0:02.605',6.66
'0:02.609',6.74
'0:02.613',6.08
'0:02.617',5.24
'0:02.621',4.19
'0:02.625',3.22
'0:02.629',2.53
'0:02.633',1.9
'0:02.637',1.55
'0:02.641',1.33
'0:02.645',1.35
'0:02.648',1.55
'0:02.652',1.98
'0:02.656',2.19
'0:02.660',2.05
'0:02.664',1.81
'0:02.668',1.91
'0:02.672',2.19
'0:02.676',2.29
'0:02.680',2.28
'0:02.684',2.17
'0:02.688',2.12
'0:02.691',2.24
'0:02.695',2.44
'0:02.699',2.21
'0:02.703',1.73
'0:02.707',0.89
'0:02.711',-0.06
'0:02.715',-0.69
'0:02.719',-1.09
'0:02.723',-1.19
'0:02.727',-1.21
'0:02.730',-1.43
'0:02.734',-1.32
'0:02.738',-0.92
'0:02.742',-0.63
'0:02.746',-0.65
'0:02.750',-1.06
'0:02.754',-1.27
'0:02.758',-1.24
'0:02.762',-1.4
'0:02.766',-1.51
'0:02.770',-0.96
'0:02.773',1.04
'0:02.777',4.23
'0:02.781',7.97
'0:02.785',11.96
'0:02.789',15.41
'0:02.793',15.99
'0:02.797',13.42
'0:02.801',8.63
'0:02.805',2.31
'0:02.809',-4.3
'0:02.813',-9.1
'0:02.816',-10.81
'0:02.820',-11.05
'0:02.824',-10.76
'0:02.828',-9.97
'0:02.832',-8.51
'0:02.836',-6.65
'0:02.840',-5.2
'0:02.844',-3.79
'0:02.848',-2.47
'0:02.852',-1.79
'0:02.855',-1.52
'0:02.859',-1.04
'0:02.863',-0.34
'0:02.867',0.04
'0:02.871',-0.22
'0:02.875',-0.55
'0:02.879',-0.15
'0:02.883',0.47
'0:02.887',0.97
'0:02.891',1.02
'0:02.895',1.03
'0:02.898',1.2
'0:02.902',1.03
'0:02.906',0.76
'0:02.910',0.92
'0:02.914',1.29
'0:02.918',1.86
'0:02.922',2.71
'0:02.926',3.31
'0:02.930',3.75
'0:02.934',3.95
'0:02.938',4.01
'0:02.941',4.35
'0:02.945',4.38
'0:02.949',3.82
'0:02.953',3.52
'0:02.957',3.54
'0:02.961',3.19
'0:02.965',2.61
'0:02.969',2.35
'0:02.973',1.73
'0:02.977',0.82
'0:02.980',0.45
'0:02.984',0.84
'0:02.988',1.54
'0:02.992',1.73
'0:02.996',1.26
'0:03.000',0.46
'0:03.004',0.2
'0:03.008',0.17
'0:03.012',0.04
'0:03.016',0.14
'0:03.020',0.49
'0:03.023',0.66
'0:03.027',0.66
'0:03.031',0.24
'0:03.035',-0.21
'0:03.039',-0.5
'0:03.043',-1.43
'0:03.047',-2.53
'0:03.051',-3.18
'0:03.055',-3.29
'0:03.059',-3.27
'0:03.063',-3.11
'0:03.066',-2.74
'0:03.070',-2.55
'0:03.074',-3.01
'0:03.078',-3.55
'0:03.082',-3.77
'0:03.086',-3.75
'0:03.090',-3.35
'0:03.094',-3.19
'0:03.098',-3.15
'0:03.102',-2.5
'0:03.105',-0.37
'0:03.109',3.01
'0:03.113',6.69
'0:03.117',10.27
'0:03.121',13.5
'0:03.125',14.41
'0:03.129',11.52
'0:03.133',5.73
'0:03.137',-1.06
'0:03.141',-7.07
'0:03.145',-10.8
'0:03.148',-11.96
'0:03.152',-11.45
'0:03.156',-10.07
'0:03.160',-8.52
'0:03.164',-7.19
'0:03.168',-6.02
'0:03.172',-4.89
'0:03.176',-3.86
'0:03.180',-3.04
'0:03.184',-2.35
'0:03.188',-1.81
'0:03.191',-1.35
'0:03.195',-0.88
'0:03.199',-0.59
'0:03.203',-0.5
'0:03.207',-0.3
'0:03.211',-0.02
'0:03.215',0.09
'0:03.219',0.25
'0:03.223',0.52
'0:03.227',0.78
'0:03.230',1.14
'0:03.234',1.45
'0:03.238',1.86
'0:03.242',2.43
'0:03.246',2.8
'0:03.250',3.16
'0:03.254',3.78
'0:03.258',4.16
'0:03.262',4.54
'0:03.266',5.05
'0:03.270',5.39
'0:03.273',5.63
'0:03.277',5.64
'0:03.281',5.2
'0:03.285',5.07
'0:03.289',4.84
'0:03.293',4.32
'0:03.297',3.58
'0:03.301',2.63
'0:03.305',2
'0:03.309',1.7
'0:03.313',1.43
'0:03.316',1.2
'0:03.320',1.28
'0:03.324',1.27
'0:03.328',0.99
'0:03.332',0.57
'0:03.336',0.04
'0:03.340',-0.19
'0:03.344',-0.09
'0:03.348',-0.06
'0:03.352',-0.25
'0:03.355',-0.54
'0:03.359',-0.72
'0:03.363',-0.91
'0:03.367',-1.44
'0:03.371',-2.06
'0:03.375',-2.85
'0:03.379',-3.69
'0:03.383',-4.32
'0:03.387',-4.84
'0:03.391',-5.08
'0:03.395',-5.04
'0:03.398',-4.97
'0:03.402',-4.74
'0:03.406',-4.58
'0:03.410',-4.6
'0:03.414',-4.68
'0:03.418',-4.8
'0:03.422',-4.97
'0:03.426',-4.9
'0:03.430',-4.19
'0:03.434',-2.84
'0:03.438',-0.8
'0:03.441',2.18
'0:03.445',5.83
'0:03.449',9.31
'0:03.453',12.47
'0:03.457',13.27
'0:03.461',10.39
'0:03.465',5.28
'0:03.469',-0.89
'0:03.473',-7.65
'0:03.477',-13.01
'0:03.480',-15.08
'0:03.484',-14.46
'0:03.488',-12.32
'0:03.492',-9.66
'0:03.496',-7.93
'0:03.500',-6.69
'0:03.504',-5.52
'0:03.508',-4.99
'0:03.512',-4.67
'0:03.516',-4.19
'0:03.520',-3.9
'0:03.523',-4.11
'0:03.527',-4.64
'0:03.531',-4.58
'0:03.535',-3.67
'0:03.539',-3.14
'0:03.543',-3.47
'0:03.547',-3.67
'0:03.551',-3.32
'0:03.555',-2.95
'0:03.559',-3.25
'0:03.563',-3.85
'0:03.566',-4.75
'0:03.570',-5.28
'0:03.574',-4.85
'0:03.578',-3.99
'0:03.582',-2.99
'0:03.586',-1.63
'0:03.590',-1.14
'0:03.594',-2.19
'0:03.598',-3.03
'0:03.602',-3.15
'0:03.605',-2.95
'0:03.609',-2.54
'0:03.613',-2.32
'0:03.617',-2.34
'0:03.621',-3.09
'0:03.625',-3.96
'0:03.629',-4.07
'0:03.633',-3.25
'0:03.637',-2.81
'0:03.641',-3.28
'0:03.645',-4.7
'0:03.648',-5.85
'0:03.652',-5.69
'0:03.656',-4.71
'0:03.660',-4.37
'0:03.664',-4.75
'0:03.668',-5.04
'0:03.672',-5.35
'0:03.676',-5.15
'0:03.680',-4.47
'0:03.684',-4.19
'0:03.688',-3.88
'0:03.691',-3.5
'0:03.695',-3.5
'0:03.699',-4.2
'0:03.703',-5.43
'0:03.707',-6.41
'0:03.711',-6.77
'0:03.715',-6.6
'0:03.719',-6.62
'0:03.723',-6.76
'0:03.727',-6.63
'0:03.730',-6.46
'0:03.734',-6.11
'0:03.738',-5.6
'0:03.742',-5.04
'0:03.746',-4.44
'0:03.750',-4.5
'0:03.754',-4.59
'0:03.758',-3.83
'0:03.762',-2.52
'0:03.766',-0.76
'0:03.770',1.52
'0:03.773',4.68
'0:03.777',9.11
'0:03.781',13.96
'0:03.785',17.81
'0:03.789',18.76
'0:03.793',15.84
'0:03.797',9.63
'0:03.801',2.54
'0:03.805',-2.61
'0:03.809',-5.56
'0:03.813',-6.5
'0:03.816',-6.17
'0:03.820',-4.77
'0:03.824',-2.6
'0:03.828',-0.51
'0:03.832',1.46
'0:03.836',3.58
'0:03.840',5.51
'0:03.844',6.61
'0:03.848',7.57
'0:03.852',8.5
'0:03.855',9.13
'0:03.859',9.47
'0:03.863',9.65
'0:03.867',9.82
'0:03.871',9.86
'0:03.875',9.78
'0:03.879',9.87
'0:03.883',10.13
'0:03.887',10.33
'0:03.891',10.56
'0:03.895',10.53
'0:03.898',10.43
'0:03.902',10.09
'0:03.906',9.73
'0:03.910',9.56
'0:03.914',9.74
'0:03.918',10.14
'0:03.922',10.44
'0:03.926',10.67
'0:03.930',10.98
'0:03.934',11.46
'0:03.938',11.57
'0:03.941',10.74
'0:03.945',9.8
'0:03.949',9.36
'0:03.953',8.81
'0:03.957',7.62
'0:03.961',6.35
'0:03.965',6.11
'0:03.969',5.86
'0:03.973',5.1
'0:03.977',4.42
'0:03.980',4.29
'0:03.984',4.32
'0:03.988',4.19
'0:03.992',3.79
'0:03.996',3.47
'0:04.000',3.66
'0:04.004',3.89
'0:04.008',4.14
'0:04.012',4.46
'0:04.016',4.32
'0:04.020',4.15
'0:04.023',3.94
'0:04.027',3.66
'0:04.031',3.2
'0:04.035',2.45
'0:04.039',1.52
'0:04.043',0.5
'0:04.047',-0.42
'0:04.051',-1.04
'0:04.055',-1.7
'0:04.059',-2.15
'0:04.063',-1.97
'0:04.066',-1.49
'0:04.070',-1.29
'0:04.074',-1.53
'0:04.078',-1.87
'0:04.082',-2.1
'0:04.086',-2.29
'0:04.090',-2.53
'0:04.094',-2.14
'0:04.098',-0.83
'0:04.102',1.13
'0:04.105',4.23
'0:04.109',7.9
'0:04.113',11.34
'0:04.117',14.03
'0:04.121',14.3
'0:04.125',11.02
'0:04.129',4.89
'0:04.133',-2.05
'0:04.137',-7.65
'0:04.141',-10.78
'0:04.145',-11.9
'0:04.148',-11.55
'0:04.152',-10.41
'0:04.156',-8.84
'0:04.160',-7.29
'0:04.164',-5.96
'0:04.168',-4.9
'0:04.172',-4.11
'0:04.176',-3.51
'0:04.180',-2.93
'0:04.184',-2.24
'0:04.188',-1.56
'0:04.191',-0.71
'0:04.195',-0.24
'0:04.199',-0.41
'0:04.203',-0.85
'0:04.207',-1.04
'0:04.211',-0.81
'0:04.215',-0.39
'0:04.219',-0.03
'0:04.223',0.21
'0:04.227',0.64
'0:04.230',1.34
'0:04.234',1.85
'0:04.238',2.41
'0:04.242',2.8
'0:04.246',3.08
'0:04.250',3.6
'0:04.254',3.96
'0:04.258',4.14
'0:04.262',4.34
'0:04.266',4.59
'0:04.270',4.68
'0:04.273',4.3
'0:04.277',3.64
'0:04.281',2.94
'0:04.285',2.4
'0:04.289',1.98
'0:04.293',1.62
'0:04.297',1.25
'0:04.301',0.81
'0:04.305',0.1
'0:04.309',-0.43
'0:04.313',-0.58
'0:04.316',-0.46
'0:04.320',-0.24
'0:04.324',-0.19
'0:04.328',-0.45
'0:04.332',-0.6
'0:04.336',-0.62
'0:04.340',-0.73
'0:04.344',-0.99
'0:04.348',-1.46
'0:04.352',-1.82
'0:04.355',-1.83
'0:04.359',-1.66
'0:04.363',-1.71
'0:04.367',-2.36
'0:04.371',-3.38
'0:04.375',-4.04
'0:04.379',-4.29
'0:04.383',-4.6
'0:04.387',-4.9
'0:04.391',-5
'0:04.395',-4.99
'0:04.398',-5.06
'0:04.402',-5.29
'0:04.406',-5.36
'0:04.410',-5.05
'0:04.414',-5.02
'0:04.418',-5.38
'0:04.422',-5.26
'0:04.426',-3.96
'0:04.430',-2.01
'0:04.434',0.22
'0:04.438',3.01
'0:04.441',6.42
'0:04.445',10.15
'0:04.449',13.06
'0:04.453',12.89
'0:04.457',9.2
'0:04.461',2.47
'0:04.465',-5.21
'0:04.469',-11.52
'0:04.473',-15.25
'0:04.477',-16.55
'0:04.480',-15.93
'0:04.484',-14.6
'0:04.488',-13.16
'0:04.492',-11.83
'0:04.496',-10.04
'0:04.500',-7.92
'0:04.504',-6.29
'0:04.508',-5.8
'0:04.512',-5.67
'0:04.516',-5.18
'0:04.520',-4.31
'0:04.523',-3.65
'0:04.527',-3.85
'0:04.531',-4.43
'0:04.535',-4.6
'0:04.539',-4.38
'0:04.543',-3.85
'0:04.547',-3.38
'0:04.551',-3.02
'0:04.555',-2.65
'0:04.559',-2.41
'0:04.563',-2.17
'0:04.566',-2.02
'0:04.570',-2.16
'0:04.574',-2.15
'0:04.578',-1.75
'0:04.582',-0.78
'0:04.586',0.7
'0:04.590',1.99
'0:04.594',2.49
'0:04.598',2.15
'0:04.602',1.91
'0:04.605',1.98
'0:04.609',2.19
'0:04.613',2.31
'0:04.617',2
'0:04.621',1.08
'0:04.625',0.3
'0:04.629',0.22
'0:04.633',0.02
'0:04.637',-0.4
'0:04.641',-0.58
'0:04.645',-0.62
'0:04.648',-0.26
'0:04.652',0.1
'0:04.656',0.49
'0:04.660',0.98
'0:04.664',1.46
'0:04.668',1.68
'0:04.672',1.42
'0:04.676',0.86
'0:04.680',0.85
'0:04.684',1.37
'0:04.688',1.9
'0:04.691',1.97
'0:04.695',2
'0:04.699',1.78
'0:04.703',1.48
'0:04.707',0.9
'0:04.711',-0.34
'0:04.715',-1.5
'0:04.719',-1.89
'0:04.723',-1.68
'0:04.727',-1.46
'0:04.730',-1.31
'0:04.734',-1.09
'0:04.738',-1.02
'0:04.742',-0.82
'0:04.746',-0.94
'0:04.750',-1.57
'0:04.754',-1.6
'0:04.758',-0.89
'0:04.762',0.44
'0:04.766',2.62
'0:04.770',5.93
'0:04.773',10.26
'0:04.777',14.4
'0:04.781',16.65
'0:04.785',16.02
'0:04.789',11.94
'0:04.793',5.14
'0:04.797',-1.75
'0:04.801',-6.77
'0:04.805',-9.45
'0:04.809',-10.39
'0:04.813',-10.02
'0:04.816',-8.62
'0:04.820',-6.99
'0:04.824',-5.63
'0:04.828',-4.38
'0:04.832',-3.46
'0:04.836',-2.95
'0:04.840',-2.28
'0:04.844',-1.24
'0:04.848',-0.48
'0:04.852',-0.06
'0:04.855',0.4
'0:04.859',1.1
'0:04.863',1.65
'0:04.867',1.54
'0:04.871',1.11
'0:04.875',0.93
'0:04.879',1.25
'0:04.883',1.88
'0:04.887',2.24
'0:04.891',2.37
'0:04.895',2.44
'0:04.898',2.44
'0:04.902',2.54
'0:04.906',2.71
'0:04.910',3.18
'0:04.914',3.93
'0:04.918',4.63
'0:04.922',5.35
'0:04.926',6.15
'0:04.930',6.4
'0:04.934',6.28
'0:04.938',5.96
'0:04.941',5.61
'0:04.945',5.13
'0:04.949',4.6
'0:04.953',3.79
'0:04.957',3.29
'0:04.961',3.06
'0:04.965',3.15
'0:04.969',3.32
'0:04.973',3.09
'0:04.977',2.63
'0:04.980',2.75
'0:04.984',2.88
'0:04.988',2.6
'0:04.992',2.37
'0:04.996',2.34
'0:05.000',1.94
'0:05.004',0.87
'0:05.008',0.67
'0:05.012',1.46
'0:05.016',1.91
'0:05.020',1.73
'0:05.023',1.21
'0:05.027',0.66
'0:05.031',-0.15
'0:05.035',-1.07
'0:05.039',-1.87
'0:05.043',-2.36
'0:05.047',-2.9
'0:05.051',-3.33
'0:05.055',-3.36
'0:05.059',-3.15
'0:05.063',-3.02
'0:05.066',-3.12
'0:05.070',-3.18
'0:05.074',-3.24
'0:05.078',-3.48
'0:05.082',-3.5
'0:05.086',-2.94
'0:05.090',-1.66
'0:05.094',0.02
'0:05.098',2.41
'0:05.102',5.93
'0:05.105',10.08
'0:05.109',13.72
'0:05.113',15.06
'0:05.117',12.81
'0:05.121',7.77
'0:05.125',1.45
'0:05.129',-4.19
'0:05.133',-7.96
'0:05.137',-9.84
'0:05.141',-10.71
'0:05.145',-10.29
'0:05.148',-9.02
'0:05.152',-7.56
'0:05.156',-6.13
'0:05.160',-4.77
'0:05.164',-2.67
'0:05.168',-2.14
'0:05.172',-3.64
'0:05.176',-4.74
'0:05.180',-4.01
'0:05.184',-3.07
'0:05.188',-2.47
'0:05.191',-1.86
'0:05.195',-1.19
'0:05.199',-0.73
'0:05.203',-0.48
'0:05.207',-0.11
'0:05.211',0.3
'0:05.215',0.63
'0:05.219',0.9
'0:05.223',0.98
'0:05.227',0.78
'0:05.230',0.66
'0:05.234',0.73
'0:05.238',0.93
'0:05.242',1.42
'0:05.246',2.12
'0:05.250',2.76
'0:05.254',3.2
'0:05.258',3.52
'0:05.262',3.63
'0:05.266',3.51
'0:05.270',3.09
'0:05.273',2.41
'0:05.277',1.65
'0:05.281',1.14
'0:05.285',0.82
'0:05.289',0.54
'0:05.293',0.18
'0:05.297',-0.07
'0:05.301',-0.23
'0:05.305',-0.07
'0:05.309',0.09
'0:05.313',0.01
'0:05.316',0.07
'0:05.320',-0.14
'0:05.324',-0.74
'0:05.328',-0.64
'0:05.332',0.1
'0:05.336',-0.02
'0:05.340',-0.83
'0:05.344',-0.84
'0:05.348',-0.12
'0:05.352',0.16
'0:05.355',-0.87
'0:05.359',-2.38
'0:05.363',-3.61
'0:05.367',-4.49
'0:05.371',-4.78
'0:05.375',-4.83
'0:05.379',-5.06
'0:05.383',-5.28
'0:05.387',-5.16
'0:05.391',-4.77
'0:05.395',-4.38
'0:05.398',-4.21
'0:05.402',-4.09
'0:05.406',-3.92
'0:05.410',-4.12
'0:05.414',-4.37
'0:05.418',-4.37
'0:05.422',-4.02
'0:05.426',-2.57
'0:05.430',-0.04
'0:05.434',3.41
'0:05.438',7.75
'0:05.441',11.83
'0:05.445',14.17
'0:05.449',12.54
'0:05.453',7.6
'0:05.457',1.22
'0:05.461',-4.88
'0:05.465',-9.39
'0:05.469',-11.61
'0:05.473',-11.93
'0:05.477',-11.22
'0:05.480',-9.95
'0:05.484',-8.46
'0:05.488',-6.71
'0:05.492',-5.14
'0:05.496',-3.81
'0:05.500',-2.79
'0:05.504',-1.89
'0:05.508',-1.36
'0:05.512',-1.16
'0:05.516',-0.94
'0:05.520',-0.52
'0:05.523',0.03
'0:05.527',0.42
'0:05.531',0.77
'0:05.535',0.76
'0:05.539',0.86
'0:05.543',1.38
'0:05.547',1.63
'0:05.551',1.58
'0:05.555',1.17
'0:05.559',1.22
'0:05.563',1.54
'0:05.566',2.13
'0:05.570',2.94
'0:05.574',4.01
'0:05.578',4.71
'0:05.582',4.77
'0:05.586',4.28
'0:05.590',3.86
'0:05.594',4.19
'0:05.598',4.57
'0:05.602',4.78
'0:05.605',4.46
'0:05.609',4.21
'0:05.613',3.95
'0:05.617',3.43
'0:05.621',2.48
'0:05.625',2.27
'0:05.629',2.42
'0:05.633',2.16
'0:05.637',1.2
'0:05.641',0.52
'0:05.645',0.5
'0:05.648',0.59
'0:05.652',0.74
'0:05.656',1.08
'0:05.660',1.34
'0:05.664',1.28
'0:05.668',0.6
'0:05.672',0.34
'0:05.676',0.34
'0:05.680',0.1
'0:05.684',-0.55
'0:05.688',-1.28
'0:05.691',-2.01
'0:05.695',-2.44
'0:05.699',-2.9
'0:05.703',-3.41
'0:05.707',-3.81
'0:05.711',-4.05
'0:05.715',-4.19
'0:05.719',-4.36
'0:05.723',-4.55
'0:05.727',-4.65
'0:05.730',-4.64
'0:05.734',-4.56
'0:05.738',-4.53
'0:05.742',-4.61
'0:05.746',-4.92
'0:05.750',-4.93
'0:05.754',-4.01
'0:05.758',-2.08
'0:05.762',0.83
'0:05.766',4.52
'0:05.770',8.56
'0:05.773',12.03
'0:05.777',13.44
'0:05.781',11.79
'0:05.785',7.06
'0:05.789',0.31
'0:05.793',-6.48
'0:05.797',-11.07
'0:05.801',-13.13
'0:05.805',-13.21
'0:05.809',-12.21
'0:05.813',-10.84
'0:05.816',-9.34
'0:05.820',-7.82
'0:05.824',-6.48
'0:05.828',-5.22
'0:05.832',-4.32
'0:05.836',-3.64
'0:05.840',-2.92
'0:05.844',-2.28
'0:05.848',-1.72
'0:05.852',-0.94
'0:05.855',-0.26
'0:05.859',-0.1
'0:05.863',-0.1
'0:05.867',0.22
'0:05.871',0.62
'0:05.875',1
'0:05.879',1.44
'0:05.883',1.65
'0:05.887',1.93
'0:05.891',2.62
'0:05.895',3.35
'0:05.898',3.85
'0:05.902',4.34
'0:05.906',4.76
'0:05.910',5.2
'0:05.914',5.61
'0:05.918',5.85
'0:05.922',5.74
'0:05.926',5.4
'0:05.930',5.19
'0:05.934',5.26
'0:05.938',5.48
'0:05.941',5.61
'0:05.945',5.45
'0:05.949',5
'0:05.953',4.39
'0:05.957',3.5
'0:05.961',3
'0:05.965',2.57
'0:05.969',2.24
'0:05.973',2.32
'0:05.977',2.82
'0:05.980',3.14
'0:05.984',3.2
'0:05.988',3.47
'0:05.992',3.53
'0:05.996',3.31
'0:06.000',3.1
'0:06.004',2.5
'0:06.008',1.94
'0:06.012',1.72
'0:06.016',1.24
'0:06.020',0.71
'0:06.023',0.01
'0:06.027',-1.2
'0:06.031',-2.08
'0:06.035',-2.2
'0:06.039',-1.72
'0:06.043',-1.51
'0:06.047',-1.85
'0:06.051',-2.21
'0:06.055',-1.99
'0:06.059',-1.34
'0:06.063',-1.09
'0:06.066',-1.37
'0:06.070',-1.73
'0:06.074',-2.22
'0:06.078',-2.43
'0:06.082',-2.22
'0:06.086',-1.34
'0:06.090',0.43
'0:06.094',3.16
'0:06.098',6.99
'0:06.102',11.06
'0:06.105',14.43
'0:06.109',14.82
'0:06.113',11.56
'0:06.117',6
'0:06.121',0.31
'0:06.125',-4.74
'0:06.129',-8.87
'0:06.133',-11.76
'0:06.137',-12.68
'0:06.141',-11.89
'0:06.145',-10.2
'0:06.148',-8.12
'0:06.152',-5.31
'0:06.156',-2.9
'0:06.160',-1.54
'0:06.164',-1.17
'0:06.168',-1.71
'0:06.172',-2.2
'0:06.176',-2.28
'0:06.180',-1.78
'0:06.184',-1.25
'0:06.188',-0.68
'0:06.191',-0.23
'0:06.195',0.23
'0:06.199',0.37
'0:06.203',0.6
'0:06.207',1.3
'0:06.211',1.64
'0:06.215',1.61
'0:06.219',1.59
'0:06.223',1.65
'0:06.227',1.8
'0:06.230',1.99
'0:06.234',2.82
'0:06.238',3.61
'0:06.242',4.04
'0:06.246',4.55
'0:06.250',4.9
'0:06.254',5
'0:06.258',5.19
'0:06.262',5.11
'0:06.266',4.57
'0:06.270',4.01
'0:06.273',3.63
'0:06.277',3.36
'0:06.281',2.79
'0:06.285',2
'0:06.289',1.44
'0:06.293',1.37
'0:06.297',1.34
'0:06.301',1.38
'0:06.305',1.19
'0:06.309',0.93
'0:06.313',0.7
'0:06.316',0.31
'0:06.320',0
'0:06.324',0.01
'0:06.328',0.31
'0:06.332',0.36
'0:06.336',-0.14
'0:06.340',-0.7
'0:06.344',-1.1
'0:06.348',-1.48
'0:06.352',-1.76
'0:06.355',-2.05
'0:06.359',-2.59
'0:06.363',-3.12
'0:06.367',-3.42
'0:06.371',-3.76
'0:06.375',-4.02
'0:06.379',-3.99
'0:06.383',-3.89
'0:06.387',-3.64
'0:06.391',-3.3
'0:06.395',-3.06
'0:06.398',-2.9
'0:06.402',-3
'0:06.406',-3.38
'0:06.410',-3.27
'0:06.414',-2.27
'0:06.418',-1.17
'0:06.422',0.13
'0:06.426',2.31
'0:06.430',5.56
'0:06.434',9.13
'0:06.438',12.51
'0:06.441',13.57
'0:06.445',11.11
'0:06.449',5.87
'0:06.453',-0.29
'0:06.457',-6.57
'0:06.461',-11.22
'0:06.465',-13.23
'0:06.469',-13.24
'0:06.473',-12.2
'0:06.477',-10.42
'0:06.480',-8.48
'0:06.484',-6.93
'0:06.488',-5.93
'0:06.492',-5.03
'0:06.496',-4.34
'0:06.500',-3.61
'0:06.504',-2.87
'0:06.508',-2.38
'0:06.512',-1.86
'0:06.516',-1.11
'0:06.520',-0.3
'0:06.523',0.02
'0:06.527',-0.32
'0:06.531',-0.26
'0:06.535',-0.25
'0:06.539',-0.04
'0:06.543',0.23
'0:06.547',0.7
'0:06.551',0.95
'0:06.555',1.01
'0:06.559',1.39
'0:06.563',1.68
'0:06.566',2.15
'0:06.570',2.84
'0:06.574',3.51
'0:06.578',4.33
'0:06.582',4.96
'0:06.586',5.28
'0:06.590',5.03
'0:06.594',4.27
'0:06.598',3.79
'0:06.602',3.49
'0:06.605',3.34
'0:06.609',3.01
'0:06.613',2.26
'0:06.617',1.43
'0:06.621',0.66
'0:06.625',0.29
'0:06.629',0.09
'0:06.633',-0.27
'0:06.637',-0.39
'0:06.641',-0.35
'0:06.645',-0.51
'0:06.648',-0.56
'0:06.652',-0.49
'0:06.656',-0.54
'0:06.660',-0.68
'0:06.664',-0.8
'0:06.668',-1.12
'0:06.672',-1.41
'0:06.676',-1.3
'0:06.680',-1.1
'0:06.684',-1.59
'0:06.688',-2.3
'0:06.691',-3
'0:06.695',-3.79
'0:06.699',-4.46
'0:06.703',-4.75
'0:06.707',-4.87
'0:06.711',-5.17
'0:06.715',-5.44
'0:06.719',-5.25
'0:06.723',-4.99
'0:06.727',-4.94
'0:06.730',-4.99
'0:06.734',-5.29
'0:06.738',-5.65
'0:06.742',-5.82
'0:06.746',-5.32
'0:06.750',-3.93
'0:06.754',-1.36
'0:06.758',2.21
'0:06.762',6.38
'0:06.766',10.88
'0:06.770',14.1
'0:06.773',14.27
'0:06.777',10.93
'0:06.781',4.75
'0:06.785',-2.51
'0:06.789',-8.41
'0:06.793',-11.84
'0:06.797',-13.08
'0:06.801',-12.99
'0:06.805',-11.93
'0:06.809',-10.23
'0:06.813',-8.32
'0:06.816',-6.77
'0:06.820',-5.47
'0:06.824',-4.31
'0:06.828',-3.42
'0:06.832',-2.84
'0:06.836',-2.3
'0:06.840',-1.6
'0:06.844',-1.14
'0:06.848',-0.89
'0:06.852',-0.61
'0:06.855',-0.28
'0:06.859',0.04
'0:06.863',0.33
'0:06.867',0.37
'0:06.871',0.49
'0:06.875',0.84
'0:06.879',1.43
'0:06.883',1.96
'0:06.887',2.15
'0:06.891',2.37
'0:06.895',2.75
'0:06.898',2.87
'0:06.902',2.86
'0:06.906',3.25
'0:06.910',3.99
'0:06.914',4.67
'0:06.918',5.13
'0:06.922',5.54
'0:06.926',5.77
'0:06.930',5.65
'0:06.934',5.11
'0:06.938',4.3
'0:06.941',3.45
'0:06.945',3
'0:06.949',2.7
'0:06.953',2.43
'0:06.957',1.94
'0:06.961',1.91
'0:06.965',2.86
'0:06.969',3.89
'0:06.973',4.53
'0:06.977',4.41
'0:06.980',3.99
'0:06.984',2.98
'0:06.988',1.77
'0:06.992',1.12
'0:06.996',1.09
'0:07.000',0.63
'0:07.004',0.05
'0:07.008',-0.09
'0:07.012',0.46
'0:07.016',1.32
'0:07.020',1.58
'0:07.023',1.05
'0:07.027',0.17
'0:07.031',-0.26
'0:07.035',-0.34
'0:07.039',-0.5
'0:07.043',-1.29
'0:07.047',-2.09
'0:07.051',-2.9
'0:07.055',-2.91
'0:07.059',-2.21
'0:07.063',-1.65
'0:07.066',-1.5
'0:07.070',-1.26
'0:07.074',-0.92
'0:07.078',0.02
'0:07.082',1.97
'0:07.086',4.19
'0:07.090',6.72
'0:07.094',9.57
'0:07.098',12.38
'0:07.102',14.42
'0:07.105',13.43
'0:07.109',8.96
'0:07.113',2.98
'0:07.117',-2.93
'0:07.121',-7.6
'0:07.125',-9.95
'0:07.129',-10.31
'0:07.133',-9.45
'0:07.137',-8.31
'0:07.141',-7.24
'0:07.145',-5.8
'0:07.148',-4.39
'0:07.152',-3.59
'0:07.156',-3.01
'0:07.160',-2.5
'0:07.164',-1.78
'0:07.168',-0.71
'0:07.172',0.24
'0:07.176',1.2
'0:07.180',1.35
'0:07.184',0.35
'0:07.188',-0.18
'0:07.191',0.07
'0:07.195',0.37
'0:07.199',0.89
'0:07.203',1.62
'0:07.207',1.85
'0:07.211',1.6
'0:07.215',1.49
'0:07.219',1.56
'0:07.223',1.52
'0:07.227',1.4
'0:07.230',1.97
'0:07.234',3.01
'0:07.238',3.49
'0:07.242',3.65
'0:07.246',3.96
'0:07.250',4.57
'0:07.254',4.83
'0:07.258',4.42
'0:07.262',3.64
'0:07.266',3.13
'0:07.270',3.12
'0:07.273',2.89
'0:07.277',1.94
'0:07.281',1.09
'0:07.285',1
'0:07.289',1.3
'0:07.293',1.17
'0:07.297',0.91
'0:07.301',0.88
'0:07.305',0.35
'0:07.309',-0.5
'0:07.313',-1.18
'0:07.316',-1.47
'0:07.320',-1.26
'0:07.324',-1.09
'0:07.328',-1.01
'0:07.332',-1.49
'0:07.336',-2.26
'0:07.340',-3.12
'0:07.344',-3.58
'0:07.348',-3.83
'0:07.352',-4.05
'0:07.355',-4.35
'0:07.359',-4.73
'0:07.363',-5.33
'0:07.367',-6.08
'0:07.371',-6.75
'0:07.375',-7.2
'0:07.379',-7.21
'0:07.383',-6.94
'0:07.387',-6.87
'0:07.391',-6.89
'0:07.395',-6.67
'0:07.398',-6.32
'0:07.402',-6.21
'0:07.406',-5.99
'0:07.410',-5.02
'0:07.414',-3.81
'0:07.418',-2.27
'0:07.422',0.46
'0:07.426',4.49
'0:07.430',8.89
'0:07.434',12.1
'0:07.438',11.34
'0:07.441',6.54
'0:07.445',0.13
'0:07.449',-5.59
'0:07.453',-9.96
'0:07.457',-12.13
'0:07.461',-12.56
'0:07.465',-11.71
'0:07.469',-9.9
'0:07.473',-7.7
'0:07.477',-5.56
'0:07.480',-3.9
'0:07.484',-2.85
'0:07.488',-1.73
'0:07.492',-0.61
'0:07.496',0.17
'0:07.500',0.9
'0:07.504',1.6
'0:07.508',2.24
'0:07.512',2.86
'0:07.516',2.97
'0:07.520',2.89
'0:07.523',3.07
'0:07.527',3.79
'0:07.531',4.52
'0:07.535',4.7
'0:07.539',4.46
'0:07.543',4.47
'0:07.547',4.72
'0:07.551',5.1
'0:07.555',5.73
'0:07.559',6.4
'0:07.563',6.78
'0:07.566',6.95
'0:07.570',7.06
'0:07.574',7.25
'0:07.578',7.6
'0:07.582',8.09
'0:07.586',8.25
'0:07.590',8.06
'0:07.594',7.57
'0:07.598',6.88
'0:07.602',6.25
'0:07.605',5.66
'0:07.609',5.06
'0:07.613',4.61
'0:07.617',4.28
'0:07.621',3.65
'0:07.625',3.11
'0:07.629',2.58
'0:07.633',2.41
'0:07.637',2.53
'0:07.641',2.5
'0:07.645',2.46
'0:07.648',2.52
'0:07.652',2.66
'0:07.656',2.45
'0:07.660',1.91
'0:07.664',1.14
'0:07.668',0.85
'0:07.672',0.77
'0:07.676',0.61
'0:07.680',0.16
'0:07.684',-0.54
'0:07.688',-1.17
'0:07.691',-1.9
'0:07.695',-2.52
'0:07.699',-3.01
'0:07.703',-3.37
'0:07.707',-3.6
'0:07.711',-3.73
'0:07.715',-3.78
'0:07.719',-3.59
'0:07.723',-3.28
'0:07.727',-3.31
'0:07.730',-3.41
'0:07.734',-3.47
'0:07.738',-3.16
'0:07.742',-2.62
'0:07.746',-1.9
'0:07.750',-0.27
'0:07.754',2.71
'0:07.758',6.56
'0:07.762',10.55
'0:07.766',13.57
'0:07.770',13.62
'0:07.773',10.34
'0:07.777',4.79
'0:07.781',-1.7
'0:07.785',-7.72
'0:07.789',-11.59
'0:07.793',-13.21
'0:07.797',-13.28
'0:07.801',-12.33
'0:07.805',-10.88
'0:07.809',-9.31
'0:07.813',-7.8
'0:07.816',-6.55
'0:07.820',-5.49
'0:07.824',-4.44
'0:07.828',-3.89
'0:07.832',-3.63
'0:07.836',-3.25
'0:07.840',-2.89
'0:07.844',-2.56
'0:07.848',-2.31
'0:07.852',-2.15
'0:07.855',-1.91
'0:07.859',-1.92
'0:07.863',-1.65
'0:07.867',-1.68
'0:07.871',-1.63
'0:07.875',-1.45
'0:07.879',-1.09
'0:07.883',-0.85
'0:07.887',-0.53
'0:07.891',-0.53
'0:07.895',1.12
'0:07.898',1.89
'0:07.902',2.22
'0:07.906',2.4
'0:07.910',2.79
'0:07.914',3.1
'0:07.918',3.05
'0:07.922',2.85
'0:07.926',2.51
'0:07.930',1.91
'0:07.934',1.1
'0:07.938',0.59
'0:07.941',0.54
'0:07.945',0.42
'0:07.949',-0.3
'0:07.953',-0.64
'0:07.957',-0.59
'0:07.961',-0.62
'0:07.965',-0.45
'0:07.969',0.27
'0:07.973',0.43
'0:07.977',0.81
'0:07.980',0.56
'0:07.984',0.88
'0:07.988',2.28
'0:07.992',3.84
'0:07.996',4.01
'0:08.000',2.38
'0:08.004',0.63
'0:08.008',-0.39
'0:08.012',-0.97
'0:08.016',-1.65
'0:08.020',-3.04
'0:08.023',-3.78
'0:08.027',-3.74
'0:08.031',-2.8
'0:08.035',-1.72
'0:08.039',-1.46
'0:08.043',-1.56
'0:08.047',-1.84
'0:08.051',-2.23
'0:08.055',-2.13
'0:08.059',-1.7
'0:08.063',-1.68
'0:08.066',-1.8
'0:08.070',-1.64
'0:08.074',-0.63
'0:08.078',1.67
'0:08.082',4.26
'0:08.086',7.2
'0:08.090',10.23
'0:08.094',13.26
'0:08.098',14.88
'0:08.102',13.02
'0:08.105',8.25
'0:08.109',2.67
'0:08.113',-2.93
'0:08.117',-6.8
'0:08.121',-9.19
'0:08.125',-10.23
'0:08.129',-9.86
'0:08.133',-8.71
'0:08.137',-7.59
'0:08.141',-7.45
'0:08.145',-7.24
'0:08.148',-6.17
'0:08.152',-4.22
'0:08.156',-2.92
'0:08.160',-2.85
'0:08.164',-2.65
'0:08.168',-2.57
'0:08.172',-2.65
'0:08.176',-2.37
'0:08.180',-1.83
'0:08.184',-2.11
'0:08.188',-2.61
'0:08.191',-2.61
'0:08.195',-2.07
'0:08.199',-1.52
'0:08.203',-1.35
'0:08.207',-1.33
'0:08.211',-0.67
'0:08.215',0.21
'0:08.219',0.99
'0:08.223',1.98
'0:08.227',3.02
'0:08.230',2.68
'0:08.234',1.67
'0:08.238',1.37
'0:08.242',1.72
'0:08.246',2.49
'0:08.250',3.31
'0:08.254',3.32
'0:08.258',2.03
'0:08.262',0.56
'0:08.266',0.15
'0:08.270',-0.05
'0:08.273',-0.47
'0:08.277',-1.08
'0:08.281',-1.13
'0:08.285',-0.65
'0:08.289',-0.46
'0:08.293',-0.67
'0:08.297',-0.42
'0:08.301',0.11
'0:08.305',-0.19
'0:08.309',-0.41
'0:08.313',-0.62
'0:08.316',-0.19
'0:08.320',-0.16
'0:08.324',-0.17
'0:08.328',-0.71
'0:08.332',-1.31
'0:08.336',-1.23
'0:08.340',-1.05
'0:08.344',-0.64
'0:08.348',-0.54
'0:08.352',-0.85
'0:08.355',-1.26
'0:08.359',-1.55
'0:08.363',-1.44
'0:08.367',-1.53
'0:08.371',-1.65
'0:08.375',-1.68
'0:08.379',-1.58
'0:08.383',-1.36
'0:08.387',-1.04
'0:08.391',-0.45
'0:08.395',-0.17
'0:08.398',-0.36
'0:08.402',-0.25
'0:08.406',0.42
'0:08.410',1.9
'0:08.414',4.1
'0:08.418',7.18
'0:08.422',10.8
'0:08.426',14.29
'0:08.430',16.84
'0:08.434',16.45
'0:08.438',12.58
'0:08.441',6.74
'0:08.445',0.99
'0:08.449',-3.55
'0:08.453',-6.15
'0:08.457',-6.76
'0:08.461',-6.09
'0:08.465',-4.81
'0:08.469',-3.42
'0:08.473',-2
'0:08.477',-0.57
'0:08.480',0.61
'0:08.484',1.38
'0:08.488',2
'0:08.492',2.52
'0:08.496',2.88
'0:08.500',3.13
'0:08.504',3.64
'0:08.508',3.77
'0:08.512',3.4
'0:08.516',3.05
'0:08.520',3.02
'0:08.523',3.03
'0:08.527',3.13
'0:08.531',3.32
'0:08.535',3.54
'0:08.539',3.87
'0:08.543',4.08
'0:08.547',4.05
'0:08.551',4.17
'0:08.555',4.49
'0:08.559',4.85
'0:08.563',5.31
'0:08.566',5.76
'0:08.570',5.95
'0:08.574',5.93
'0:08.578',6.08
'0:08.582',6.22
'0:08.586',6.01
'0:08.590',5.36
'0:08.594',4.54
'0:08.598',3.95
'0:08.602',3.8
'0:08.605',3.49
'0:08.609',2.93
'0:08.613',2.22
'0:08.617',1.45
'0:08.621',1.05
'0:08.625',0.85
'0:08.629',0.68
'0:08.633',0.55
'0:08.637',0.51
'0:08.641',0.47
'0:08.645',0.41
'0:08.648',0.69
'0:08.652',0.67
'0:08.656',0.13
'0:08.660',-0.4
'0:08.664',-0.81
'0:08.668',-1.15
'0:08.672',-1.37
'0:08.676',-1.7
'0:08.680',-2.36
'0:08.684',-3.14
'0:08.688',-3.62
'0:08.691',-3.83
'0:08.695',-4.21
'0:08.699',-4.71
'0:08.703',-4.95
'0:08.707',-4.87
'0:08.711',-4.71
'0:08.715',-4.7
'0:08.719',-4.78
'0:08.723',-4.64
'0:08.727',-4.54
'0:08.730',-4.86
'0:08.734',-5.01
'0:08.738',-4.5
'0:08.742',-3.15
'0:08.746',-0.61
'0:08.750',2.77
'0:08.754',6.57
'0:08.758',10.24
'0:08.762',13.03
'0:08.766',12.92
'0:08.770',9.46
'0:08.773',3.22
'0:08.777',-4.38
'0:08.781',-10.74
'0:08.785',-14.23
'0:08.789',-14.96
'0:08.793',-14.14
'0:08.797',-12.66
'0:08.801',-10.84
'0:08.805',-9.42
'0:08.809',-8.48
'0:08.813',-7.57
'0:08.816',-6.79
'0:08.820',-6.16
'0:08.824',-5.63
'0:08.828',-4.83
'0:08.832',-3.7
'0:08.836',-2.65
'0:08.840',-2.17
'0:08.844',-2.4
'0:08.848',-2.93
'0:08.852',-3.26
'0:08.855',-2.99
'0:08.859',-1.92
'0:08.863',-1.08
'0:08.867',-1.31
'0:08.871',-2.07
'0:08.875',-2.79
'0:08.879',-3.07
'0:08.883',-2.42
'0:08.887',-0.91
'0:08.891',0.72
'0:08.895',1.78
'0:08.898',2.12
'0:08.902',2.21
'0:08.906',2.26
'0:08.910',2.61
'0:08.914',3.18
'0:08.918',3.11
'0:08.922',2.49
'0:08.926',2.23
'0:08.930',2.38
'0:08.934',1.9
'0:08.938',0.63
'0:08.941',-0.66
'0:08.945',-0.89
'0:08.949',-0.89
'0:08.953',-1.11
'0:08.957',-0.64
'0:08.961',0.19
'0:08.965',1.23
'0:08.969',1.94
'0:08.973',1.97
'0:08.977',1.82
'0:08.980',2.33
'0:08.984',3.12
'0:08.988',3.37
'0:08.992',4.02
'0:08.996',4.39
'0:09.000',3.44
'0:09.004',2.06
'0:09.008',1.03
'0:09.012',-0.05
'0:09.016',-0.7
'0:09.020',-1.16
'0:09.023',-1.86
'0:09.027',-2.96
'0:09.031',-3.44
'0:09.035',-2.66
'0:09.039',-2.07
'0:09.043',-2.5
'0:09.047',-2.73
'0:09.051',-2.57
'0:09.055',-2.56
'0:09.059',-2.84
'0:09.063',-3.71
'0:09.066',-4.62
'0:09.070',-4.44
'0:09.074',-2.95
'0:09.078',-0.76
'0:09.082',1.52
'0:09.086',4.98
'0:09.090',9.23
'0:09.094',13.54
'0:09.098',14.94
'0:09.102',12.37
'0:09.105',6.77
'0:09.109',0.22
'0:09.113',-5.89
'0:09.117',-10.41
'0:09.121',-12.75
'0:09.125',-12.99
'0:09.129',-11.27
'0:09.133',-9.23
'0:09.137',-7.05
'0:09.141',-4.72
'0:09.145',-3.12
'0:09.148',-2.91
'0:09.152',-3.3
'0:09.156',-3.41
'0:09.160',-2.73
'0:09.164',-1.07
'0:09.168',-0.06
'0:09.172',0.08
'0:09.176',0.47
'0:09.180',0.76
'0:09.184',1.63
'0:09.188',2.86
'0:09.191',3.53
'0:09.195',3.71
'0:09.199',3.58
'0:09.203',3.49
'0:09.207',3.65
'0:09.211',3.79
'0:09.215',4.01
'0:09.219',4.65
'0:09.223',5.58
'0:09.227',6.17
'0:09.230',6.93
'0:09.234',7.44
'0:09.238',7.74
'0:09.242',8
'0:09.246',7.93
'0:09.250',7.56
'0:09.254',7.19
'0:09.258',6.43
'0:09.262',4.89
'0:09.266',3.14
'0:09.270',2.61
'0:09.273',3.37
'0:09.277',3.74
'0:09.281',3.52
'0:09.285',3.2
'0:09.289',2.98
'0:09.293',2.56
'0:09.297',1.99
'0:09.301',0.92
'0:09.305',0.74
'0:09.309',1.01
'0:09.313',1.36
'0:09.316',1.46
'0:09.320',1.11
'0:09.324',1.11
'0:09.328',1.06
'0:09.332',0.64
'0:09.336',-0.24
'0:09.340',-0.87
'0:09.344',-0.56
'0:09.348',-0.63
'0:09.352',-1.49
'0:09.355',-2.35
'0:09.359',-2.89
'0:09.363',-3.07
'0:09.367',-3.11
'0:09.371',-2.93
'0:09.375',-2.93
'0:09.379',-3.12
'0:09.383',-3.18
'0:09.387',-2.82
'0:09.391',-2.32
'0:09.395',-1.86
'0:09.398',-1.7
'0:09.402',-1.43
'0:09.406',-0.61
'0:09.410',0.95
'0:09.414',3.54
'0:09.418',6.9
'0:09.422',10.18
'0:09.426',12.59
'0:09.430',11.95
'0:09.434',7.84
'0:09.438',1.71
'0:09.441',-4.4
'0:09.445',-9.04
'0:09.449',-11.51
'0:09.453',-12.07
'0:09.457',-11.36
'0:09.461',-10.13
'0:09.465',-8.66
'0:09.469',-7.21
'0:09.473',-5.87
'0:09.477',-4.97
'0:09.480',-4.21
'0:09.484',-3.51
'0:09.488',-2.85
'0:09.492',-2.28
'0:09.496',-1.88
'0:09.500',-1.58
'0:09.504',-1.25
'0:09.508',-0.72
'0:09.512',-0.43
'0:09.516',-0.36
'0:09.520',-0.31
'0:09.523',-0.03
'0:09.527',0.36
'0:09.531',0.67
'0:09.535',0.91
'0:09.539',1.37
'0:09.543',2.06
'0:09.547',2.74
'0:09.551',3.19
'0:09.555',3.53
'0:09.559',3.97
'0:09.563',4.52
'0:09.566',4.99
'0:09.570',5.22
'0:09.574',5.44
'0:09.578',5.58
'0:09.582',5.36
'0:09.586',4.83
'0:09.590',4.2
'0:09.594',3.61
'0:09.598',3.05
'0:09.602',2.43
'0:09.605',1.57
'0:09.609',0.99
'0:09.613',0.77
'0:09.617',0.56
'0:09.621',0.36
'0:09.625',0.26
'0:09.629',0.52
'0:09.633',0.86
'0:09.637',0.94
'0:09.641',0.72
'0:09.645',0.3
'0:09.648',-0.2
'0:09.652',-0.75
'0:09.656',-1.35
'0:09.660',-1.85
'0:09.664',-2.1
'0:09.668',-2.16
'0:09.672',-2.39
'0:09.676',-2.95
'0:09.680',-3.5
'0:09.684',-3.8
'0:09.688',-4.27
'0:09.691',-4.63
'0:09.695',-4.87
'0:09.699',-5.22
'0:09.703',-5.32
'0:09.707',-5.21
'0:09.711',-5.27
'0:09.715',-5.18
'0:09.719',-4.99
'0:09.723',-4.91
'0:09.727',-4.97
'0:09.730',-4.83
'0:09.734',-4.06
'0:09.738',-3.03
'0:09.742',-1.48
'0:09.746',1.32
'0:09.750',4.82
'0:09.754',8.59
'0:09.758',12.09
'0:09.762',13.29
'0:09.766',10.72
'0:09.770',5.11
'0:09.773',-2.04
'0:09.777',-8.39
'0:09.781',-12.18
'0:09.785',-13.19
'0:09.789',-12.09
'0:09.793',-10.48
'0:09.797',-9.4
'0:09.801',-8.43
'0:09.805',-7.18
'0:09.809',-6.19
'0:09.813',-5.84
'0:09.816',-5.34
'0:09.820',-4.79
'0:09.824',-4.5
'0:09.828',-4.35
'0:09.832',-4.19
'0:09.836',-3.81
'0:09.840',-3.39
'0:09.844',-2.92
'0:09.848',-2.12
'0:09.852',-1.18
'0:09.855',-0.31
'0:09.859',0.21
'0:09.863',0.45
'0:09.867',0.54
'0:09.871',0.49
'0:09.875',0.16
'0:09.879',0.05
'0:09.883',0.93
'0:09.887',2.29
'0:09.891',3.27
'0:09.895',3.85
'0:09.898',3.85
'0:09.902',3.12
'0:09.906',2.58
'0:09.910',2.96
'0:09.914',3.79
'0:09.918',3.69
'0:09.922',2.82
'0:09.926',1.85
'0:09.930',1.28
'0:09.934',0.86
'0:09.938',0.48
'0:09.941',0.05
'0:09.945',-0.15
'0:09.949',-0.25
'0:09.953',0.05
'0:09.957',0.55
'0:09.961',0.88
'0:09.965',1.14
'0:09.969',0.68
'0:09.973',0.13
'0:09.977',-0.05
'0:09.980',-0.27
'0:09.984',-0.15
'0:09.988',0.86
'0:09.992',1.48
'0:09.996',0.9
'0:10.000',-1.16
'0:10.004',-3.23
'0:10.008',-3.99
'0:10.012',-3.76
'0:10.016',-3.5
'0:10.020',-3.47
'0:10.023',-3.65
'0:10.027',-3.51
'0:10.031',-3.11
'0:10.035',-3.34
'0:10.039',-4.07
'0:10.043',-4.57
'0:10.047',-4.28
'0:10.051',-3.84
'0:10.055',-3.73
'0:10.059',-3.61
'0:10.063',-2.93
'0:10.066',-2.09
'0:10.070',-1.04
'0:10.074',0.57
'0:10.078',2.86
'0:10.082',5.96
'0:10.086',9.54
'0:10.090',12.85
'0:10.094',15.07
'0:10.098',14.16
'0:10.102',9.41
'0:10.105',2.79
'0:10.109',-3.57
'0:10.113',-8.01
'0:10.117',-10.02
'0:10.121',-10.77
'0:10.125',-10.4
'0:10.129',-9.08
'0:10.133',-7.05
'0:10.137',-4.97
'0:10.141',-3.31
'0:10.145',-1.9
'0:10.148',-1.08
'0:10.152',-0.19
'0:10.156',0.87
'0:10.160',1.61
'0:10.164',1.99
'0:10.168',2.2
'0:10.172',2.26
'0:10.176',1.93
'0:10.180',1.75
'0:10.184',2.36
'0:10.188',2.72
'0:10.191',2.96
'0:10.195',3.29
'0:10.199',3.59
'0:10.203',3.79
'0:10.207',4.06
'0:10.211',4.22
'0:10.215',4.15
'0:10.219',4.43
'0:10.223',4.99
'0:10.227',5.7
'0:10.230',6.31
'0:10.234',6.87
'0:10.238',7.11
'0:10.242',6.79
'0:10.246',6.43
'0:10.250',6.34
'0:10.254',6.44
'0:10.258',6.33
'0:10.262',5.8
'0:10.266',4.84
'0:10.270',4.03
'0:10.273',3.49
'0:10.277',2.96
'0:10.281',2.65
'0:10.285',2.45
'0:10.289',1.97
'0:10.293',2.26
'0:10.297',2.85
'0:10.301',3.11
'0:10.305',2.64
'0:10.309',2.38
'0:10.313',2.38
'0:10.316',1.98
'0:10.320',1.45
'0:10.324',1.19
'0:10.328',0.93
'0:10.332',0.62
'0:10.336',0.15
'0:10.340',-0.41
'0:10.344',-1.17
'0:10.348',-1.81
'0:10.352',-1.88
'0:10.355',-2.24
'0:10.359',-2.56
'0:10.363',-2.78
'0:10.367',-2.93
'0:10.371',-3.02
'0:10.375',-3.14
'0:10.379',-2.87
'0:10.383',-2.72
'0:10.387',-2.71
'0:10.391',-3.01
'0:10.395',-3.51
'0:10.398',-3.59
'0:10.402',-2.58
'0:10.406',-0.65
'0:10.410',2.41
'0:10.414',6.07
'0:10.418',9.96
'0:10.422',13.55
'0:10.426',15.27
'0:10.430',13.29
'0:10.434',7.87
'0:10.438',1.13
'0:10.441',-5.38
'0:10.445',-10.13
'0:10.449',-12.21
'0:10.453',-12.25
'0:10.457',-11.21
'0:10.461',-9.63
'0:10.465',-8.05
'0:10.469',-6.59
'0:10.473',-5.14
'0:10.477',-3.9
'0:10.480',-2.92
'0:10.484',-2.29
'0:10.488',-1.75
'0:10.492',-1.43
'0:10.496',-1.07
'0:10.500',-0.71
'0:10.504',-0.32
'0:10.508',0.07
'0:10.512',0.39
'0:10.516',0.57
'0:10.520',0.78
'0:10.523',1.08
'0:10.527',1.22
'0:10.531',1.09
'0:10.535',0.98
'0:10.539',1.13
'0:10.543',1.44
'0:10.547',2.01
'0:10.551',2.84
'0:10.555',3.58
'0:10.559',4.22
'0:10.563',5.03
'0:10.566',5.57
'0:10.570',5.42
'0:10.574',4.83
'0:10.578',4.35
'0:10.582',4.23
'0:10.586',4.27
'0:10.590',3.92
'0:10.594',3.08
'0:10.598',2.32
'0:10.602',2.22
'0:10.605',2.13
'0:10.609',1.53
'0:10.613',0.9
'0:10.617',0.54
'0:10.621',0.61
'0:10.625',0.78
'0:10.629',0.7
'0:10.633',0.11
'0:10.637',-1.15
'0:10.641',-2
'0:10.645',-2.03
'0:10.648',-2.06
'0:10.652',-2.36
'0:10.656',-2.6
'0:10.660',-2.66
'0:10.664',-2.77
'0:10.668',-2.99
'0:10.672',-3.35
'0:10.676',-3.68
'0:10.680',-4.19
'0:10.684',-4.46
'0:10.688',-4.44
'0:10.691',-4.84
'0:10.695',-5.41
'0:10.699',-5.83
'0:10.703',-6.01
'0:10.707',-5.64
'0:10.711',-5.46
'0:10.715',-5.76
'0:10.719',-6.15
'0:10.723',-6.27
'0:10.727',-6.5
'0:10.730',-6.41
'0:10.734',-5.32
'0:10.738',-2.94
'0:10.742',-0.32
'0:10.746',1.45
'0:10.750',3.33
'0:10.754',6.28
'0:10.758',9.42
'0:10.762',10.23
'0:10.766',7.47
'0:10.770',2.05
'0:10.773',-4.39
'0:10.777',-10.32
'0:10.781',-14.04
'0:10.785',-15.46
'0:10.789',-15.16
'0:10.793',-13.78
'0:10.797',-12.09
'0:10.801',-10.45
'0:10.805',-8.81
'0:10.809',-7.2
'0:10.813',-5.62
'0:10.816',-4.45
'0:10.820',-3.88
'0:10.824',-3.34
'0:10.828',-2.61
'0:10.832',-2.28
'0:10.836',-2.2
'0:10.840',-2.16
'0:10.844',-2.18
'0:10.848',-1.81
'0:10.852',-1.56
'0:10.855',-1.42
'0:10.859',-0.74
'0:10.863',-0.15
'0:10.867',0.15
'0:10.871',0.3
'0:10.875',0.4
'0:10.879',0.77
'0:10.883',1.33
'0:10.887',1.71
'0:10.891',1.96
'0:10.895',2.18
'0:10.898',2.27
'0:10.902',2.3
'0:10.906',2.67
'0:10.910',3.27
'0:10.914',3.84
'0:10.918',4.22
'0:10.922',4.36
'0:10.926',4.2
'0:10.930',3.65
'0:10.934',2.86
'0:10.938',2.34
'0:10.941',1.76
'0:10.945',1.6
'0:10.949',1.33
'0:10.953',1.12
'0:10.957',1.42
'0:10.961',1.54
'0:10.965',1.42
'0:10.969',1.25
'0:10.973',1.43
'0:10.977',1.42
'0:10.980',1.5
'0:10.984',1.59
'0:10.988',1.56
'0:10.992',1.77
'0:10.996',2.02
'0:11.000',2.34
'0:11.004',2.2
'0:11.008',1.2
'0:11.012',0.01
'0:11.016',-0.88
'0:11.020',-1.26
'0:11.023',-1.31
'0:11.027',-1.3
'0:11.031',-1.38
'0:11.035',-1.36
'0:11.039',-1.34
'0:11.043',-1.42
'0:11.047',-1.53
'0:11.051',-1.49
'0:11.055',-1.7
'0:11.059',-1.85
'0:11.063',-1.71
'0:11.066',-1.07
'0:11.070',0.19
'0:11.074',2.27
'0:11.078',5.17
'0:11.082',8.75
'0:11.086',12.44
'0:11.090',15.36
'0:11.094',16.09
'0:11.098',13.88
'0:11.102',8.61
'0:11.105',1.22
'0:11.109',-5.19
'0:11.113',-8.88
'0:11.117',-10.58
'0:11.121',-10.89
'0:11.125',-10.21
'0:11.129',-8.62
'0:11.133',-6.51
'0:11.137',-4.64
'0:11.141',-3.16
'0:11.145',-1.92
'0:11.148',-1.02
'0:11.152',-0.73
'0:11.156',-0.68
'0:11.160',-0.36
'0:11.164',0.15
'0:11.168',0.64
'0:11.172',1.21
'0:11.176',1.38
'0:11.180',1.25
'0:11.184',1.21
'0:11.188',1.21
'0:11.191',1.48
'0:11.195',1.95
'0:11.199',2.41
'0:11.203',2.72
'0:11.207',2.9
'0:11.211',3.32
'0:11.215',3.88
'0:11.219',4.35
'0:11.223',5.02
'0:11.227',5.81
'0:11.230',6.33
'0:11.234',6.56
'0:11.238',6.73
'0:11.242',6.71
'0:11.246',6.45
'0:11.250',6.26
'0:11.254',5.85
'0:11.258',5.24
'0:11.262',4.74
'0:11.266',4.28
'0:11.270',3.86
'0:11.273',3.71
'0:11.277',3.47
'0:11.281',2.95
'0:11.285',2.61
'0:11.289',2.95
'0:11.293',3.43
'0:11.297',3.52
'0:11.301',3.34
'0:11.305',2.96
'0:11.309',2.7
'0:11.313',2.72
'0:11.316',2.61
'0:11.320',1.6
'0:11.324',0.85
'0:11.328',0.85
'0:11.332',1.01
'0:11.336',0.9
'0:11.340',0.86
'0:11.344',0.36
'0:11.348',-0.74
'0:11.352',-1.42
'0:11.355',-1.88
'0:11.359',-1.99
'0:11.363',-1.84
'0:11.367',-1.49
'0:11.371',-1.49
'0:11.375',-1.68
'0:11.379',-2.06
'0:11.383',-2.58
'0:11.387',-3.09
'0:11.391',-2.8
'0:11.395',-1.53
'0:11.398',-0.63
'0:11.402',-0.23
'0:11.406',0.6
'0:11.410',2.94
'0:11.414',6.2
'0:11.418',8.38
'0:11.422',10.6
'0:11.426',11.64
'0:11.430',9.93
'0:11.434',5.42
'0:11.438',-1.03
'0:11.441',-6.96
'0:11.445',-10.76
'0:11.449',-12.22
'0:11.453',-12.24
'0:11.457',-11.51
'0:11.461',-10.15
'0:11.465',-7.7
'0:11.469',-5.74
'0:11.473',-5.5
'0:11.477',-5.79
'0:11.480',-6.12
'0:11.484',-5.97
'0:11.488',-5.55
'0:11.492',-4.99
'0:11.496',-4.1
'0:11.500',-3.02
'0:11.504',-2.28
'0:11.508',-2.46
'0:11.512',-2.92
'0:11.516',-3.02
'0:11.520',-2.78
'0:11.523',-2.21
'0:11.527',-1.42
'0:11.531',-0.55
'0:11.535',0.01
'0:11.539',0.04
'0:11.543',0.44
'0:11.547',1.29
'0:11.551',2.76
'0:11.555',4.08
'0:11.559',4.21
'0:11.563',3.09
'0:11.566',2.55
'0:11.570',2.78
'0:11.574',3.11
'0:11.578',3.9
'0:11.582',5.26
'0:11.586',5.58
'0:11.590',4.03
'0:11.594',2.15
'0:11.598',0.24
'0:11.602',-0.61
'0:11.605',-0.28
'0:11.609',0.55
'0:11.613',0.19
'0:11.617',-0.88
'0:11.621',-1.26
'0:11.625',-1.16
'0:11.629',-1.05
'0:11.633',-0.91
'0:11.637',-0.75
'0:11.641',-0.45
'0:11.645',-0.31
'0:11.648',-0.61
'0:11.652',-1.21
'0:11.656',-1.73
'0:11.660',-1.93
'0:11.664',-2.03
'0:11.668',-2.2
'0:11.672',-2.55
'0:11.676',-3.62
'0:11.680',-5.07
'0:11.684',-6.03
'0:11.688',-5.97
'0:11.691',-5.56
'0:11.695',-5.58
'0:11.699',-6.11
'0:11.703',-6.51
'0:11.707',-6.41
'0:11.711',-5.94
'0:11.715',-5.27
'0:11.719',-4.69
'0:11.723',-4.67
'0:11.727',-5.19
'0:11.730',-5.21
'0:11.734',-4.56
'0:11.738',-2.95
'0:11.742',-0.26
'0:11.746',3.14
'0:11.750',6.57
'0:11.754',10.04
'0:11.758',13.18
'0:11.762',13.21
'0:11.766',9.21
'0:11.770',2.66
'0:11.773',-3.85
'0:11.777',-8.61
'0:11.781',-10.82
'0:11.785',-11.03
'0:11.789',-9.9
'0:11.793',-8.47
'0:11.797',-7.17
'0:11.801',-5.51
'0:11.805',-3.97
'0:11.809',-2.68
'0:11.813',-1.62
'0:11.816',-0.79
'0:11.820',-0.11
'0:11.824',0.54
'0:11.828',0.95
'0:11.832',1.42
'0:11.836',2.25
'0:11.840',2.94
'0:11.844',3.25
'0:11.848',3.59
'0:11.852',3.68
'0:11.855',3.39
'0:11.859',3.3
'0:11.863',3.58
'0:11.867',3.99
'0:11.871',4.3
'0:11.875',4.55
'0:11.879',5.01
'0:11.883',5.55
'0:11.887',5.83
'0:11.891',6.1
'0:11.895',6.38
'0:11.898',6.77
'0:11.902',6.87
'0:11.906',6.64
'0:11.910',6.38
'0:11.914',6.03
'0:11.918',5.54
'0:11.922',5.02
'0:11.926',4.33
'0:11.930',3.65
'0:11.934',2.93
'0:11.938',2.42
'0:11.941',2.06
'0:11.945',2.04
'0:11.949',2.27
'0:11.953',1.97
'0:11.957',1.34
'0:11.961',0.86
'0:11.965',0.4
'0:11.969',0.08
'0:11.973',0.34
'0:11.977',1.1
'0:11.980',1.34
'0:11.984',0.91
'0:11.988',0.58
'0:11.992',0.22
'0:11.996',-0.36
'0:12.000',-0.78
'0:12.004',-0.98
'0:12.008',-1.53
'0:12.012',-2.53
'0:12.016',-3.38
'0:12.020',-3.85
'0:12.023',-4.04
'0:12.027',-3.91
'0:12.031',-3.69
'0:12.035',-3.64
'0:12.039',-3.81
'0:12.043',-4.03
'0:12.047',-4.03
'0:12.051',-3.92
'0:12.055',-3.99
'0:12.059',-3.97
'0:12.063',-3.75
'0:12.066',-3.15
'0:12.070',-1.77
'0:12.074',0.69
'0:12.078',4.13
'0:12.082',8.13
'0:12.086',12.21
'0:12.090',14.74
'0:12.094',14.25
'0:12.098',10.58
'0:12.102',4.23
'0:12.105',-2.89
'0:12.109',-8.7
'0:12.113',-12.16
'0:12.117',-13.25
'0:12.121',-13.11
'0:12.125',-12.15
'0:12.129',-10.67
'0:12.133',-8.94
'0:12.137',-7.34
'0:12.141',-5.88
'0:12.145',-4.62
'0:12.148',-3.74
'0:12.152',-3.17
'0:12.156',-2.78
'0:12.160',-2.41
'0:12.164',-2.13
'0:12.168',-1.68
'0:12.172',-1.16
'0:12.176',-0.71
'0:12.180',-0.43
'0:12.184',-0.2
'0:12.188',-0.14
'0:12.191',0.07
'0:12.195',0.59
'0:12.199',0.97
'0:12.203',1.42
'0:12.207',1.59
'0:12.211',0.89
'0:12.215',0.89
'0:12.219',2.77
'0:12.223',4.53
'0:12.227',5.13
'0:12.230',5.13
'0:12.234',5.22
'0:12.238',4.92
'0:12.242',4.49
'0:12.246',4.63
'0:12.250',5.32
'0:12.254',5.15
'0:12.258',4.48
'0:12.262',3.64
'0:12.266',3.02
'0:12.270',3.01
'0:12.273',2.85
'0:12.277',2.54
'0:12.281',1.53
'0:12.285',0.59
'0:12.289',0.29
'0:12.293',0.2
'0:12.297',0.4
'0:12.301',0.17
'0:12.305',-0.48
'0:12.309',-0.68
'0:12.313',-0.53
'0:12.316',-0.47
'0:12.320',0.39
'0:12.324',1.31
'0:12.328',1.26
'0:12.332',0.88
'0:12.336',0.23
'0:12.340',-0.86
'0:12.344',-1.89
'0:12.348',-2.58
'0:12.352',-2.73
'0:12.355',-2.85
'0:12.359',-3.2
'0:12.363',-3.32
'0:12.367',-2.52
'0:12.371',-1.17
'0:12.375',-0.49
'0:12.379',-0.95
'0:12.383',-1.35
'0:12.387',-1.2
'0:12.391',-1.46
'0:12.395',-1.26
'0:12.398',-0.38
'0:12.402',0.71
'0:12.406',1.93
'0:12.410',4.15
'0:12.414',7.46
'0:12.418',10.53
'0:12.422',12.53
'0:12.426',11.98
'0:12.430',8.67
'0:12.434',3.71
'0:12.438',-1.76
'0:12.441',-6.32
'0:12.445',-9.04
'0:12.449',-10.33
'0:12.453',-10.79
'0:12.457',-10.58
'0:12.461',-9.39
'0:12.465',-7.65
'0:12.469',-5.99
'0:12.473',-4.73
'0:12.477',-3.99
'0:12.480',-3.2
'0:12.484',-2.3
'0:12.488',-1.48
'0:12.492',-0.79
'0:12.496',-0.32
'0:12.500',-0.56
'0:12.504',-1.3
'0:12.508',-1.42
'0:12.512',-0.89
'0:12.516',-1.01
'0:12.520',-1.52
'0:12.523',-1.6
'0:12.527',-1.6
'0:12.531',-1.61
'0:12.535',0.28
'0:12.539',0.48
'0:12.543',0.78
'0:12.547',1.17
'0:12.551',1.8
'0:12.555',2.26
'0:12.559',2.78
'0:12.563',3.36
'0:12.566',3.51
'0:12.570',3.05
'0:12.574',3.1
'0:12.578',3.63
'0:12.582',3.74
'0:12.586',3.2
'0:12.590',2.56
'0:12.594',1.8
'0:12.598',0.99
'0:12.602',0.7
'0:12.605',0.33
'0:12.609',0.5
'0:12.613',1.51
'0:12.617',2.2
'0:12.621',1.97
'0:12.625',1.51
'0:12.629',1.46
'0:12.633',1.86
'0:12.637',2.37
'0:12.641',2.41
'0:12.645',2.08
'0:12.648',1.91
'0:12.652',1.91
'0:12.656',1.82
'0:12.660',1.6
'0:12.664',1.26
'0:12.668',0.97
'0:12.672',0.44
'0:12.676',-0.07
'0:12.680',-0.49
'0:12.684',-0.73
'0:12.688',-0.8
'0:12.691',-0.72
'0:12.695',-0.48
'0:12.699',-0.37
'0:12.703',-0.59
'0:12.707',-0.67
'0:12.711',-0.8
'0:12.715',-0.93
'0:12.719',-1.02
'0:12.723',-1.09
'0:12.727',-0.9
'0:12.730',-0.04
'0:12.734',1.7
'0:12.738',4.11
'0:12.742',7.07
'0:12.746',10.13
'0:12.750',12.96
'0:12.754',13.88
'0:12.758',11.28
'0:12.762',5.89
'0:12.766',-0.24
'0:12.770',-5.61
'0:12.773',-9.16
'0:12.777',-10.79
'0:12.781',-10.77
'0:12.785',-9.66
'0:12.789',-7.94
'0:12.793',-6.43
'0:12.797',-5.3
'0:12.801',-3.91
'0:12.805',-2.68
'0:12.809',-1.84
'0:12.813',-1.83
'0:12.816',-1.91
'0:12.820',-1.79
'0:12.824',-1.51
'0:12.828',-1.15
'0:12.832',-0.78
'0:12.836',-0.37
'0:12.840',-0.11
'0:12.844',0
'0:12.848',0.19
'0:12.852',0.53
'0:12.855',0.84
'0:12.859',1.21
'0:12.863',1.55
'0:12.867',1.77
'0:12.871',1.99
'0:12.875',2.37
'0:12.879',3.12
'0:12.883',3.84
'0:12.887',4.27
'0:12.891',4.61
'0:12.895',5.08
'0:12.898',5.5
'0:12.902',5.62
'0:12.906',5.32
'0:12.910',4.75
'0:12.914',3.95
'0:12.918',3.27
'0:12.922',2.63
'0:12.926',1.97
'0:12.930',1.47
'0:12.934',1.19
'0:12.938',1.02
'0:12.941',0.82
'0:12.945',0.55
'0:12.949',0.34
'0:12.953',0.18
'0:12.957',0.28
'0:12.961',0.49
'0:12.965',0.56
'0:12.969',0.38
'0:12.973',0.09
'0:12.977',-0.29
'0:12.980',-0.98
'0:12.984',-1.3
'0:12.988',-1.13
'0:12.992',-1.28
'0:12.996',-1.9
'0:13.000',-2.62
'0:13.004',-3.33
'0:13.008',-3.75
'0:13.012',-3.75
'0:13.016',-3.75
'0:13.020',-4.49
'0:13.023',-5.07
'0:13.027',-5.34
'0:13.031',-5.23
'0:13.035',-4.88
'0:13.039',-4.45
'0:13.043',-4.41
'0:13.047',-4.53
'0:13.051',-4.58
'0:13.055',-4.59
'0:13.059',-4.47
'0:13.063',-4.09
'0:13.066',-2.6
'0:13.070',0.21
'0:13.074',3.48
'0:13.078',7.07
'0:13.082',11.06
'0:13.086',13.21
'0:13.090',12.04
'0:13.094',7.84
'0:13.098',1.78
'0:13.102',-4.82
'0:13.105',-10.13
'0:13.109',-13.07
'0:13.113',-13.88
'0:13.117',-13.24
'0:13.121',-11.71
'0:13.125',-9.85
'0:13.129',-8.26
'0:13.133',-6.9
'0:13.137',-5.47
'0:13.141',-4.13
'0:13.145',-3.39
'0:13.148',-2.97
'0:13.152',-2.33
'0:13.156',-1.6
'0:13.160',-1.2
'0:13.164',-1.13
'0:13.168',-1.56
'0:13.172',-2.38
'0:13.176',-2.79
'0:13.180',-2.55
'0:13.184',-1.79
'0:13.188',-1.16
'0:13.191',-1.03
'0:13.195',-1.2
'0:13.199',-1.28
'0:13.203',-0.91
'0:13.207',0.04
'0:13.211',0.74
'0:13.215',1.16
'0:13.219',1.76
'0:13.223',2.75
'0:13.227',3.3
'0:13.230',3.61
'0:13.234',4.26
'0:13.238',4.09
'0:13.242',2.87
'0:13.246',1.88
'0:13.250',1.82
'0:13.254',1.84
'0:13.258',0.49
'0:13.262',-0.49
'0:13.266',-0.27
'0:13.270',0.02
'0:13.273',-0.05
'0:13.277',-0.09
'0:13.281',-0.26
'0:13.285',-0.56
'0:13.289',-0.38
'0:13.293',-0.28
'0:13.297',0.11
'0:13.301',0.91
'0:13.305',1.19
'0:13.309',0.74
'0:13.313',0.45
'0:13.316',0.4
'0:13.320',0.14
'0:13.324',-0.13
'0:13.328',-0.36
'0:13.332',-0.99
'0:13.336',-2.12
'0:13.340',-3.11
'0:13.344',-3.53
'0:13.348',-4.02
'0:13.352',-4.7
'0:13.355',-5.2
'0:13.359',-5.47
'0:13.363',-5.08
'0:13.367',-4.65
'0:13.371',-4.43
'0:13.375',-4.17
'0:13.379',-4.08
'0:13.383',-4.73
'0:13.387',-5.27
'0:13.391',-5.33
'0:13.395',-4.31
'0:13.398',-1.92
'0:13.402',1.13
'0:13.406',4.47
'0:13.410',8.37
'0:13.414',12.6
'0:13.418',15.58
'0:13.422',15.24
'0:13.426',11.27
'0:13.430',5.37
'0:13.434',-0.88
'0:13.438',-6.2
'0:13.441',-9.1
'0:13.445',-9.71
'0:13.449',-8.92
'0:13.453',-8.2
'0:13.457',-6.46
'0:13.461',-3.92
'0:13.465',-1.82
'0:13.469',-1.29
'0:13.473',0.61
'0:13.477',1.14
'0:13.480',1.71
'0:13.484',2.09
'0:13.488',2.74
'0:13.492',3.21
'0:13.496',3.44
'0:13.500',3.78
'0:13.504',4.1
'0:13.508',4.36
'0:13.512',4.79
'0:13.516',5.09
'0:13.520',5.03
'0:13.523',5.17
'0:13.527',5.61
'0:13.531',5.89
'0:13.535',5.96
'0:13.539',6.42
'0:13.543',7.19
'0:13.547',7.56
'0:13.551',7.79
'0:13.555',8.48
'0:13.559',9.1
'0:13.563',8.95
'0:13.566',8.81
'0:13.570',8.83
'0:13.574',8.56
'0:13.578',7.66
'0:13.582',6.85
'0:13.586',6.08
'0:13.590',5.09
'0:13.594',3.7
'0:13.598',2.45
'0:13.602',2.23
'0:13.605',2.37
'0:13.609',2.09
'0:13.613',1.75
'0:13.617',1.82
'0:13.621',2.04
'0:13.625',2.21
'0:13.629',1.55
'0:13.633',0.77
'0:13.637',1.1
'0:13.641',1.63
'0:13.645',1.79
'0:13.648',1.31
'0:13.652',0.86
'0:13.656',1.02
'0:13.660',1.23
'0:13.664',0.95
'0:13.668',-0.02
'0:13.672',-0.7
'0:13.676',-1.14
'0:13.680',-2.14
'0:13.684',-3.42
'0:13.688',-4.48
'0:13.691',-5.07
'0:13.695',-4.79
'0:13.699',-3.86
'0:13.703',-3.25
'0:13.707',-3
'0:13.711',-2.87
'0:13.715',-3.13
'0:13.719',-3.59
'0:13.723',-3.74
'0:13.727',-3.11
'0:13.730',-1.34
'0:13.734',1.42
'0:13.738',4.9
'0:13.742',8.29
'0:13.746',11.47
'0:13.750',13.15
'0:13.754',11.48
'0:13.758',6.16
'0:13.762',-0.5
'0:13.766',-6.48
'0:13.770',-10.66
'0:13.773',-12.54
'0:13.777',-12.42
'0:13.781',-11.23
'0:13.785',-9.47
'0:13.789',-7.78
'0:13.793',-6.3
'0:13.797',-5.04
'0:13.801',-4.05
'0:13.805',-3.24
'0:13.809',-2.78
'0:13.813',-2.5
'0:13.816',-2.2
'0:13.820',-1.81
'0:13.824',-1.32
'0:13.828',-0.93
'0:13.832',-0.56
'0:13.836',-0.2
'0:13.840',0.21
'0:13.844',0.52
'0:13.848',0.63
'0:13.852',0.62
'0:13.855',0.85
'0:13.859',1.27
'0:13.863',1.81
'0:13.867',2.32
'0:13.871',2.88
'0:13.875',3.49
'0:13.879',4.03
'0:13.883',4.7
'0:13.887',5.12
'0:13.891',5.39
'0:13.895',5.52
'0:13.898',5.35
'0:13.902',5.33
'0:13.906',5.21
'0:13.910',4.8
'0:13.914',4.1
'0:13.918',3.24
'0:13.922',2.54
'0:13.926',2.11
'0:13.930',1.77
'0:13.934',1.53
'0:13.938',1.26
'0:13.941',0.86
'0:13.945',0.58
'0:13.949',0.41
'0:13.953',0.31
'0:13.957',0.12
'0:13.961',-0.03
'0:13.965',-0.08
'0:13.969',-0.36
'0:13.973',-0.86
'0:13.977',-1.17
'0:13.980',-1.32
'0:13.984',-1.38
'0:13.988',-1.34
'0:13.992',-1.68
'0:13.996',-2.15
'0:14.000',-2.38
'0:14.004',-2.9
'0:14.008',-3.63
'0:14.012',-4.42
'0:14.016',-4.95
'0:14.020',-5.55
'0:14.023',-6.2
'0:14.027',-6.43
'0:14.031',-6.21
'0:14.035',-5.39
'0:14.039',-4.39
'0:14.043',-3.72
'0:14.047',-4.19
'0:14.051',-5.5
'0:14.055',-6.13
'0:14.059',-5.36
'0:14.063',-3.07
'0:14.066',0.04
'0:14.070',2.69
'0:14.074',5.57
'0:14.078',9.56
'0:14.082',13.5
'0:14.086',13.53
'0:14.090',8.82
'0:14.094',1.6
'0:14.098',-5.65
'0:14.102',-11.82
'0:14.105',-15.77
'0:14.109',-17.23
'0:14.113',-16.45
'0:14.117',-15.4
'0:14.121',-14.94
'0:14.125',-13.58
'0:14.129',-12.07
'0:14.133',-11.53
'0:14.137',-11.2
'0:14.141',-11.54
'0:14.145',-12.1
'0:14.148',-11.96
'0:14.152',-11.32
'0:14.156',-10.99
'0:14.160',-11.71
'0:14.164',-12.24
'0:14.168',-12.23
'0:14.172',-12.08
'0:14.176',-11.78
'0:14.180',-11.35
'0:14.184',-10.69
'0:14.188',-10.31
'0:14.191',-10.27
'0:14.195',-10.34
'0:14.199',-9.83
'0:14.203',-9.04
'0:14.207',-8.54
'0:14.211',-8.65
'0:14.215',-8.68
'0:14.219',-8.05
'0:14.223',-7.07
'0:14.227',-6.12
'0:14.230',-5.22
'0:14.234',-4.4
'0:14.238',-3.62
'0:14.242',-2.89
'0:14.246',-2.47
'0:14.250',-2.57
'0:14.254',-2.75
'0:14.258',-2.66
'0:14.262',-2.64
'0:14.266',-2.35
'0:14.270',-1.75
'0:14.273',-1.35
'0:14.277',-1.43
'0:14.281',-1.24
'0:14.285',-0.68
'0:14.289',0.13
'0:14.293',1.05
'0:14.297',2.24
'0:14.301',3.01
'0:14.305',3.49
'0:14.309',3.92
'0:14.313',4.39
'0:14.316',5.04
'0:14.320',5.68
'0:14.324',6
'0:14.328',6.31
'0:14.332',6.63
'0:14.336',6.99
'0:14.340',7.33
'0:14.344',7.63
'0:14.348',7.96
'0:14.352',8.26
'0:14.355',8.03
'0:14.359',7.94
'0:14.363',8.54
'0:14.367',9.41
'0:14.371',10.16
'0:14.375',10.67
'0:14.379',10.76
'0:14.383',10.42
'0:14.387',10.14
'0:14.391',10.73
'0:14.395',12.17
'0:14.398',14.24
'0:14.402',17.37
'0:14.406',21.12
'0:14.410',25.05
'0:14.414',27.5
'0:14.418',26.7
'0:14.422',22.38
'0:14.426',15.84
'0:14.430',8.84
'0:14.434',3.1
'0:14.438',-0.33
'0:14.441',-1.74
'0:14.445',-1.84
'0:14.449',-1.28
'0:14.453',-0.45
'0:14.457',0.64
'0:14.461',1.83
'0:14.465',2.87
'0:14.469',3.69
'0:14.473',3.7
'0:14.477',3.44
'0:14.480',3.52
'0:14.484',3.67
'0:14.488',3.96
'0:14.492',3.97
'0:14.496',3.92
'0:14.500',4.68
'0:14.504',5.39
'0:14.508',5.61
'0:14.512',5.56
'0:14.516',5.56
'0:14.520',5.56
'0:14.523',5.08
'0:14.527',5.08
'0:14.531',5.4
'0:14.535',5.47
'0:14.539',5.37
'0:14.543',5.5
'0:14.547',6.07
'0:14.551',6.5
'0:14.555',6.76
'0:14.559',6.96
'0:14.563',7.03
'0:14.566',7.28
'0:14.570',7.35
'0:14.574',6.73
'0:14.578',5.77
'0:14.582',5.33
'0:14.586',5.06
'0:14.590',4.58
'0:14.594',4.01
'0:14.598',3.57
'0:14.602',3.18
'0:14.605',2.73
'0:14.609',2.28
'0:14.613',1.93
'0:14.617',1.63
'0:14.621',1.42
'0:14.625',1.3
'0:14.629',1.57
'0:14.633',1.59
'0:14.637',1.18
'0:14.641',0.95
'0:14.645',0.65
'0:14.648',0.31
'0:14.652',0.23
'0:14.656',-0.04
'0:14.660',-0.7
'0:14.664',-0.95
'0:14.668',-0.92
'0:14.672',-1.21
'0:14.676',-2.38
'0:14.680',-3.88
'0:14.684',-4.97
'0:14.688',-5.52
'0:14.691',-6.45
'0:14.695',-7.19
'0:14.699',-6.7
'0:14.703',-5.62
'0:14.707',-4.5
'0:14.711',-4.28
'0:14.715',-5.14
'0:14.719',-5.92
'0:14.723',-5.52
'0:14.727',-4
'0:14.730',-1.79
'0:14.734',1.41
'0:14.738',4.97
'0:14.742',8.13
'0:14.746',10.01
'0:14.750',9.16
'0:14.754',5.26
'0:14.758',-0.58
'0:14.762',-6.62
'0:14.766',-11.5
'0:14.770',-13.81
'0:14.773',-14.72
'0:14.777',-14.24
'0:14.781',-12.51
'0:14.785',-10.51
'0:14.789',-8.73
'0:14.793',-7.08
'0:14.797',-5.47
'0:14.801',-4.02
'0:14.805',-2.67
'0:14.809',-2.26
'0:14.813',-3.26
'0:14.816',-5.28
'0:14.820',-6.74
'0:14.824',-6.76
'0:14.828',-5.6
'0:14.832',-4.57
'0:14.836',-4
'0:14.840',-3.38
'0:14.844',-2.5
'0:14.848',-1.48
'0:14.852',-1.2
'0:14.855',-1.32
'0:14.859',-0.89
'0:14.863',-0.04
'0:14.867',1.26
'0:14.871',2.19
'0:14.875',2.3
'0:14.879',2.2
'0:14.883',1.95
'0:14.887',2.14
'0:14.891',2.69
'0:14.895',3.42
'0:14.898',4.17
'0:14.902',4.24
'0:14.906',4.17
'0:14.910',4.59
'0:14.914',4.08
'0:14.918',2.78
'0:14.922',1.82
'0:14.926',1.64
'0:14.930',1.68
'0:14.934',1.35
'0:14.938',1
'0:14.941',1.28
'0:14.945',0.71
'0:14.949',-0.28
'0:14.953',0.28
'0:14.957',0.94
'0:14.961',-0.98
'0:14.965',-3.14
'0:14.969',-4.32
'0:14.973',-4.67
'0:14.977',-4.27
'0:14.980',-4.39
'0:14.984',-5.17
'0:14.988',-5.65
'0:14.992',-5.87
'0:14.996',-6.12
'0:15.000',-6.29
'0:15.004',-6.05
'0:15.008',-5.65
'0:15.012',-6.05
'0:15.016',-6.92
'0:15.020',-7.34
'0:15.023',-7.48
'0:15.027',-7.8
'0:15.031',-8.05
'0:15.035',-8.38
'0:15.039',-8.54
'0:15.043',-8.13
'0:15.047',-7.92
'0:15.051',-8.17
'0:15.055',-8.04
'0:15.059',-7.3
'0:15.063',-5.44
'0:15.066',-2.32
'0:15.070',1.58
'0:15.074',5.25
'0:15.078',8.42
'0:15.082',9.32
'0:15.086',6.58
'0:15.090',1.49
'0:15.094',-4.15
'0:15.098',-9.28
'0:15.102',-13.08
'0:15.105',-15.1
'0:15.109',-15.37
'0:15.113',-14.2
'0:15.117',-12.3
'0:15.121',-10.23
'0:15.125',-8.32
'0:15.129',-6.22
'0:15.133',-4.15
'0:15.137',-2.58
'0:15.141',-1.65
'0:15.145',-1.33
'0:15.148',-0.99
'0:15.152',-0.2
'0:15.156',0.98
'0:15.160',2.15
'0:15.164',3.02
'0:15.168',3.68
'0:15.172',4.34
'0:15.176',4.8
'0:15.180',5.28
'0:15.184',5.95
'0:15.188',6.51
'0:15.191',6.9
'0:15.195',7.06
'0:15.199',7.55
'0:15.203',8.04
'0:15.207',8.51
'0:15.211',9.11
'0:15.215',9.7
'0:15.219',10.11
'0:15.223',10.34
'0:15.227',10.41
'0:15.230',10.3
'0:15.234',9.98
'0:15.238',9.5
'0:15.242',9.05
'0:15.246',8.5
'0:15.250',8.07
'0:15.254',7.27
'0:15.258',6.25
'0:15.262',5.32
'0:15.266',4.39
'0:15.270',3.75
'0:15.273',3.63
'0:15.277',3.75
'0:15.281',3.76
'0:15.285',3.57
'0:15.289',3.29
'0:15.293',3.28
'0:15.297',3.37
'0:15.301',3.19
'0:15.305',3.02
'0:15.309',2.53
'0:15.313',1.89
'0:15.316',1.5
'0:15.320',0.84
'0:15.324',0.34
'0:15.328',-0.15
'0:15.332',-0.74
'0:15.336',-1.11
'0:15.340',-1.43
'0:15.344',-1.91
'0:15.348',-2.93
'0:15.352',-3.69
'0:15.355',-4.14
'0:15.359',-4.15
'0:15.363',-3.77
'0:15.367',-3.46
'0:15.371',-3.13
'0:15.375',-3.29
'0:15.379',-3.74
'0:15.383',-3.91
'0:15.387',-3.43
'0:15.391',-2.67
'0:15.395',-2.68
'0:15.398',-2.68
'0:15.402',5.08
'0:15.406',9.34
'0:15.410',13.44
'0:15.414',15.64
'0:15.418',14.49
'0:15.422',10
'0:15.426',3.3
'0:15.430',-3.73
'0:15.434',-8.89
'0:15.438',-11.53
'0:15.441',-12.43
'0:15.445',-12.23
'0:15.449',-11.16
'0:15.453',-9.42
'0:15.457',-7.71
'0:15.461',-6.07
'0:15.465',-4.56
'0:15.469',-3.48
'0:15.473',-2.87
'0:15.477',-2.31
'0:15.480',-1.8
'0:15.484',-1.72
'0:15.488',-1.54
'0:15.492',-1.07
'0:15.496',-0.71
'0:15.500',-0.05
'0:15.504',0.87
'0:15.508',1.19
'0:15.512',0.88
'0:15.516',0.81
'0:15.520',0.97
'0:15.523',1.45
'0:15.527',1.97
'0:15.531',2.65
'0:15.535',3.26
'0:15.539',3.38
'0:15.543',2.73
'0:15.547',1.8
'0:15.551',2.5
'0:15.555',4.11
'0:15.559',5.07
'0:15.563',5.58
'0:15.566',5.77
'0:15.570',5.8
'0:15.574',6.25
'0:15.578',6.55
'0:15.582',5.65
'0:15.586',4.24
'0:15.590',3.21
'0:15.594',2.49
'0:15.598',1.4
'0:15.602',0.93
'0:15.605',0.93
'0:15.609',1.36
'0:15.613',1.52
'0:15.617',0.87
'0:15.621',0.24
'0:15.625',0.39
'0:15.629',0.77
'0:15.633',0.78
'0:15.637',0.04
'0:15.641',-0.84
'0:15.645',-0.75
'0:15.648',-0.65
'0:15.652',-0.73
'0:15.656',-0.78
'0:15.660',-0.31
'0:15.664',-0.67
'0:15.668',-1.62
'0:15.672',-2.58
'0:15.676',-3.6
'0:15.680',-4.06
'0:15.684',-4.25
'0:15.688',-4.77
'0:15.691',-6.08
'0:15.695',-7.36
'0:15.699',-7.28
'0:15.703',-5.84
'0:15.707',-4.28
'0:15.711',-3.84
'0:15.715',-4.52
'0:15.719',-4.61
'0:15.723',-3.74
'0:15.727',-1.78
'0:15.730',1.44
'0:15.734',4.89
'0:15.738',7.46
'0:15.742',9.71
'0:15.746',10.96
'0:15.750',10.54
'0:15.754',7.31
'0:15.758',2.04
'0:15.762',-3.07
'0:15.766',-7.62
'0:15.770',-10.33
'0:15.773',-11.37
'0:15.777',-11.4
'0:15.781',-10.55
'0:15.785',-8.84
'0:15.789',-7.25
'0:15.793',-5.9
'0:15.797',-4.89
'0:15.801',-3.62
'0:15.805',-2.77
'0:15.809',-3.11
'0:15.813',-3.66
'0:15.816',-3.31
'0:15.820',-2.25
'0:15.824',-1.96
'0:15.828',-2.08
'0:15.832',-1.58
'0:15.836',-0.66
'0:15.840',0.01
'0:15.844',0.18
'0:15.848',0.01
'0:15.852',0
'0:15.855',0.05
'0:15.859',0.01
'0:15.863',-0.3
'0:15.867',-0.5
'0:15.871',-0.59
'0:15.875',0.35
'0:15.879',1.19
'0:15.883',1.45
'0:15.887',1.91
'0:15.891',3.14
'0:15.895',4.42
'0:15.898',5.15
'0:15.902',4.93
'0:15.906',3.91
'0:15.910',3.07
'0:15.914',1.93
'0:15.918',1.41
'0:15.922',1.67
'0:15.926',2.06
'0:15.930',1.72
'0:15.934',1.16
'0:15.938',1.03
'0:15.941',1.1
'0:15.945',1.26
'0:15.949',1.32
'0:15.953',1.58
'0:15.957',1.98
'0:15.961',2.28
'0:15.965',2.42
'0:15.969',2.17
'0:15.973',1.79
'0:15.977',1.3
'0:15.980',1.08
'0:15.984',1.05
'0:15.988',1.1
'0:15.992',1.15
'0:15.996',0.98
'0:16.000',0.41
'0:16.004',0.15
'0:16.008',0.18
'0:16.012',0.08
'0:16.016',-0.45
'0:16.020',-0.74
'0:16.023',-0.81
'0:16.027',-0.41
'0:16.031',0.03
'0:16.035',0.15
'0:16.039',-0.19
'0:16.043',-0.14
'0:16.047',-0.21
'0:16.051',-0.16
'0:16.055',0.12
'0:16.059',0.96
'0:16.063',2.56
'0:16.066',5.09
'0:16.070',8.25
'0:16.074',11.39
'0:16.078',14.26
'0:16.082',14.81
'0:16.086',11.75
'0:16.090',6.16
'0:16.094',-0.16
'0:16.098',-5.78
'0:16.102',-9.49
'0:16.105',-10.99
'0:16.109',-10.91
'0:16.113',-9.92
'0:16.117',-8.34
'0:16.121',-6.62
'0:16.125',-5.05
'0:16.129',-3.74
'0:16.133',-3.07
'0:16.137',-2.94
'0:16.141',-2.75
'0:16.145',-2.31
'0:16.148',-1.95
'0:16.152',-1.37
'0:16.156',-0.67
'0:16.160',-0.12
'0:16.164',0.16
'0:16.168',0.33
'0:16.172',0.53
'0:16.176',0.5
'0:16.180',0.35
'0:16.184',0.42
'0:16.188',0.51
'0:16.191',0.85
'0:16.195',1.2
'0:16.199',1.53
'0:16.203',2.07
'0:16.207',2.43
'0:16.211',2.82
'0:16.215',3.31
'0:16.219',3.86
'0:16.223',4.26
'0:16.227',4.62
'0:16.230',4.73
'0:16.234',4.63
'0:16.238',4.17
'0:16.242',3.69
'0:16.246',3.45
'0:16.250',3.07
'0:16.254',2.53
'0:16.258',1.98
'0:16.262',1.59
'0:16.266',1.18
'0:16.270',0.8
'0:16.273',0.64
'0:16.277',0.59
'0:16.281',0.65
'0:16.285',0.6
'0:16.289',0.43
'0:16.293',0.16
'0:16.297',-0.1
'0:16.301',-0.32
'0:16.305',-0.61
'0:16.309',-0.75
'0:16.313',-0.99
'0:16.316',-1.25
'0:16.320',-1.48
'0:16.324',-1.9
'0:16.328',-2.41
'0:16.332',-3.08
'0:16.336',-3.86
'0:16.340',-4.3
'0:16.344',-4.54
'0:16.348',-4.71
'0:16.352',-4.7
'0:16.355',-4.65
'0:16.359',-4.67
'0:16.363',-4.72
'0:16.367',-4.7
'0:16.371',-4.68
'0:16.375',-4.83
'0:16.379',-5.08
'0:16.383',-4.97
'0:16.387',-3.95
'0:16.391',-1.95
'0:16.395',-0.23
'0:16.398',1.74
'0:16.402',5.04
'0:16.406',9.11
'0:16.410',12.6
'0:16.414',13.25
'0:16.418',10.42
'0:16.422',4.78
'0:16.426',-2.2
'0:16.430',-7.79
'0:16.434',-10.59
'0:16.438',-11.63
'0:16.441',-12.41
'0:16.445',-13.21
'0:16.449',-13.06
'0:16.453',-11.99
'0:16.457',-10.15
'0:16.461',-8.14
'0:16.465',-6.05
'0:16.469',-5.14
'0:16.473',-5.31
'0:16.477',-5.37
'0:16.480',-4.93
'0:16.484',-4.28
'0:16.488',-3.69
'0:16.492',-3.45
'0:16.496',-3.64
'0:16.500',-3.59
'0:16.504',-2.44
'0:16.508',-0.84
'0:16.512',0.41
'0:16.516',0.55
'0:16.520',-0.26
'0:16.523',-1.18
'0:16.527',-1.63
'0:16.531',-1.24
'0:16.535',-0.33
'0:16.539',0.69
'0:16.543',1.48
'0:16.547',1.9
'0:16.551',2.22
'0:16.555',2.58
'0:16.559',3.17
'0:16.563',3.86
'0:16.566',4.34
'0:16.570',4.53
'0:16.574',4.56
'0:16.578',4.26
'0:16.582',3.47
'0:16.586',2.87
'0:16.590',2.88
'0:16.594',3.4
'0:16.598',3.18
'0:16.602',2.85
'0:16.605',2.89
'0:16.609',3.2
'0:16.613',3.3
'0:16.617',2.69
'0:16.621',1.98
'0:16.625',2.1
'0:16.629',3.14
'0:16.633',4.3
'0:16.637',4.59
'0:16.641',3.6
'0:16.645',2.13
'0:16.648',0.97
'0:16.652',0.53
'0:16.656',0.51
'0:16.660',0.3
'0:16.664',-0.49
'0:16.668',-1.52
'0:16.672',-2.13
'0:16.676',-1.9
'0:16.680',-1.22
'0:16.684',-0.88
'0:16.688',-0.74
'0:16.691',-0.69
'0:16.695',-1.31
'0:16.699',-1.73
'0:16.703',-1.42
'0:16.707',-1.75
'0:16.711',-2.94
'0:16.715',-3.28
'0:16.719',-2.76
'0:16.723',-1.34
'0:16.727',1.14
'0:16.730',4.88
'0:16.734',9.13
'0:16.738',12.72
'0:16.742',15.3
'0:16.746',15.09
'0:16.750',11.45
'0:16.754',5.8
'0:16.758',-0.15
'0:16.762',-5.32
'0:16.766',-8.67
'0:16.770',-9.88
'0:16.773',-10.03
'0:16.777',-9.57
'0:16.781',-8.34
'0:16.785',-6.71
'0:16.789',-5.23
'0:16.793',-4.21
'0:16.797',-3.35
'0:16.801',-2.29
'0:16.805',-1.27
'0:16.809',-0.79
'0:16.813',-0.69
'0:16.816',-0.47
'0:16.820',0.34
'0:16.824',0.92
'0:16.828',1.3
'0:16.832',1.44
'0:16.836',1.51
'0:16.840',1.61
'0:16.844',1.56
'0:16.848',1.97
'0:16.852',2.83
'0:16.855',3.18
'0:16.859',2.98
'0:16.863',3.44
'0:16.867',4.13
'0:16.871',4.97
'0:16.875',5.82
'0:16.879',6.14
'0:16.883',6.65
'0:16.887',6.77
'0:16.891',6.59
'0:16.895',6.58
'0:16.898',6.67
'0:16.902',6.69
'0:16.906',6.09
'0:16.910',4.92
'0:16.914',4.02
'0:16.918',3.32
'0:16.922',2.28
'0:16.926',1.26
'0:16.930',0.97
'0:16.934',0.85
'0:16.938',1.14
'0:16.941',1.5
'0:16.945',1.77
'0:16.949',1.64
'0:16.953',1.3
'0:16.957',1.22
'0:16.961',1.01
'0:16.965',0.77
'0:16.969',0.56
'0:16.973',0.03
'0:16.977',-0.49
'0:16.980',-0.59
'0:16.984',-0.86
'0:16.988',-1.69
'0:16.992',-2.3
'0:16.996',-2.8
'0:17.000',-3.17
'0:17.004',-3.35
'0:17.008',-3.63
'0:17.012',-4
'0:17.016',-4.04
'0:17.020',-4.01
'0:17.023',-3.91
'0:17.027',-3.49
'0:17.031',-3.16
'0:17.035',-2.98
'0:17.039',-3.01
'0:17.043',-3.27
'0:17.047',-3.48
'0:17.051',-2.49
'0:17.055',-0.84
'0:17.059',1.68
'0:17.063',4.99
'0:17.066',8.39
'0:17.070',11.38
'0:17.074',12.22
'0:17.078',9.37
'0:17.082',3.96
'0:17.086',-2.02
'0:17.090',-7.26
'0:17.094',-10.82
'0:17.098',-12.31
'0:17.102',-12.32
'0:17.105',-12.32
'0:17.109',-9.93
'0:17.113',-8.26
'0:17.117',-6.61
'0:17.121',-5.15
'0:17.125',-4.06
'0:17.129',-3.22
'0:17.133',-2.63
'0:17.137',-2.14
'0:17.141',-1.63
'0:17.145',-1.26
'0:17.148',-1.08
'0:17.152',-0.89
'0:17.156',-0.61
'0:17.160',-0.16
'0:17.164',0.1
'0:17.168',0.16
'0:17.172',0.42
'0:17.176',0.81
'0:17.180',1.1
'0:17.184',1.33
'0:17.188',1.62
'0:17.191',1.95
'0:17.195',2.45
'0:17.199',2.99
'0:17.203',3.52
'0:17.207',4.17
'0:17.211',4.78
'0:17.215',5.15
'0:17.219',5.39
'0:17.223',5.28
'0:17.227',4.99
'0:17.230',4.89
'0:17.234',4.63
'0:17.238',4.33
'0:17.242',3.96
'0:17.246',3.22
'0:17.250',2.4
'0:17.254',1.6
'0:17.258',1.05
'0:17.262',0.69
'0:17.266',0.25
'0:17.270',-0.08
'0:17.273',-0.24
'0:17.277',-0.18
'0:17.281',-0.04
'0:17.285',0.02
'0:17.289',0.18
'0:17.293',0.18
'0:17.297',-0.09
'0:17.301',-0.44
'0:17.305',-0.64
'0:17.309',-0.87
'0:17.313',-1.4
'0:17.316',-1.84
'0:17.320',-2.03
'0:17.324',-2.38
'0:17.328',-2.91
'0:17.332',-3.44
'0:17.336',-4.26
'0:17.340',-4.92
'0:17.344',-5.21
'0:17.348',-5.55
'0:17.352',-5.83
'0:17.355',-5.94
'0:17.359',-6.17
'0:17.363',-6.29
'0:17.367',-5.87
'0:17.371',-5.24
'0:17.375',-4.9
'0:17.379',-4.71
'0:17.383',-3.72
'0:17.387',-1.86
'0:17.391',0.47
'0:17.395',3.38
'0:17.398',6.9
'0:17.402',10.72
'0:17.406',12.96
'0:17.410',11.85
'0:17.414',7.66
'0:17.418',1.57
'0:17.422',-4.74
'0:17.426',-8.74
'0:17.430',-10.87
'0:17.434',-11.99
'0:17.438',-12.02
'0:17.441',-11.12
'0:17.445',-9.57
'0:17.449',-8.09
'0:17.453',-7.12
'0:17.457',-6.18
'0:17.461',-5.08
'0:17.465',-4.34
'0:17.469',-3.47
'0:17.473',-2.57
'0:17.477',-1.56
'0:17.480',-1.03
'0:17.484',-1.09
'0:17.488',-1.68
'0:17.492',-1.91
'0:17.496',-1.58
'0:17.500',-1.48
'0:17.504',-1.62
'0:17.508',-1.57
'0:17.512',-1.21
'0:17.516',-1.15
'0:17.520',-0.96
'0:17.523',-0.81
'0:17.527',-0.49
'0:17.531',-0.06
'0:17.535',0.75
'0:17.539',1.55
'0:17.543',1.95
'0:17.547',2.4
'0:17.551',2.81
'0:17.555',3.12
'0:17.559',3.42
'0:17.563',3.51
'0:17.566',3.02
'0:17.570',2.42
'0:17.574',2.35
'0:17.578',2.06
'0:17.582',1.55
'0:17.586',1.56
'0:17.590',1.6
'0:17.594',1.23
'0:17.598',0.73
'0:17.602',0.78
'0:17.605',1.26
'0:17.609',1.61
'0:17.613',1.21
'0:17.617',0.99
'0:17.621',1.3
'0:17.625',1.22
'0:17.629',0.82
'0:17.633',0.93
'0:17.637',1.47
'0:17.641',1.68
'0:17.645',1.65
'0:17.648',1.54
'0:17.652',0.72
'0:17.656',0.04
'0:17.660',0.34
'0:17.664',0.33
'0:17.668',-0.18
'0:17.672',-0.76
'0:17.676',-1.03
'0:17.680',-1.18
'0:17.684',-1.32
'0:17.688',-1.3
'0:17.691',-0.85
'0:17.695',-0.49
'0:17.699',-0.6
'0:17.703',-0.97
'0:17.707',-1.23
'0:17.711',-1.02
'0:17.715',-0.19
'0:17.719',1.55
'0:17.723',4.18
'0:17.727',7.48
'0:17.730',11.09
'0:17.734',14.85
'0:17.738',16.84
'0:17.742',15.17
'0:17.746',10.54
'0:17.750',4.09
'0:17.754',-2.54
'0:17.758',-7.25
'0:17.762',-9.6
'0:17.766',-10.45
'0:17.770',-10.44
'0:17.773',-9.33
'0:17.777',-7.49
'0:17.781',-5.63
'0:17.785',-4.25
'0:17.789',-2.8
'0:17.793',-1.47
'0:17.797',-0.55
'0:17.801',0.02
'0:17.805',0.59
'0:17.809',0.92
'0:17.813',0.71
'0:17.816',0.4
'0:17.820',0.36
'0:17.824',0.03
'0:17.828',-0.03
'0:17.832',-0.27
'0:17.836',0.02
'0:17.840',1.12
'0:17.844',1.79
'0:17.848',1.78
'0:17.852',1.84
'0:17.855',2.24
'0:17.859',2.68
'0:17.863',2.92
'0:17.867',3.22
'0:17.871',3.54
'0:17.875',3.73
'0:17.879',3.75
'0:17.883',4.29
'0:17.887',4.89
'0:17.891',5.01
'0:17.895',4.97
'0:17.898',4.69
'0:17.902',4.23
'0:17.906',4.13
'0:17.910',3.75
'0:17.914',3.02
'0:17.918',2.31
'0:17.922',1.55
'0:17.926',0.72
'0:17.930',0.42
'0:17.934',0.43
'0:17.938',0.57
'0:17.941',0.92
'0:17.945',1.28
'0:17.949',1.4
'0:17.953',1.48
'0:17.957',1.16
'0:17.961',0.75
'0:17.965',0.67
'0:17.969',0.76
'0:17.973',0.44
'0:17.977',0.27
'0:17.980',0.1
'0:17.984',-0.4
'0:17.988',-1.1
'0:17.992',-1.9
'0:17.996',-2.62
'0:18.000',-2.94
'0:18.004',-2.94
'0:18.008',-3.05
'0:18.012',-3.1
'0:18.016',-2.97
'0:18.020',-3.15
'0:18.023',-3.42
'0:18.027',-3.42
'0:18.031',-3.34
'0:18.035',-3.49
'0:18.039',-3.69
'0:18.043',-3.77
'0:18.047',-3.14
'0:18.051',-1.21
'0:18.055',1.77
'0:18.059',5.42
'0:18.063',9.31
'0:18.066',13.4
'0:18.070',15.82
'0:18.074',13.95
'0:18.078',8.19
'0:18.082',0.87
'0:18.086',-5.62
'0:18.090',-9.89
'0:18.094',-11.64
'0:18.098',-11.41
'0:18.102',-10.04
'0:18.105',-8.8
'0:18.109',-6.97
'0:18.113',-4.77
'0:18.117',-3.56
'0:18.121',-3.76
'0:18.125',-4.37
'0:18.129',-4.03
'0:18.133',-3.02
'0:18.137',-2.76
'0:18.141',-2.75
'0:18.145',-2.1
'0:18.148',-1.31
'0:18.152',-0.77
'0:18.156',-0.81
'0:18.160',-0.88
'0:18.164',-0.69
'0:18.168',-0.58
'0:18.172',-0.49
'0:18.176',-0.29
'0:18.180',0.06
'0:18.184',0.45
'0:18.188',1.08
'0:18.191',1.7
'0:18.195',2.61
'0:18.199',3.28
'0:18.203',3.92
'0:18.207',4.58
'0:18.211',4.82
'0:18.215',4.74
'0:18.219',4.66
'0:18.223',4.7
'0:18.227',4.63
'0:18.230',4.37
'0:18.234',4.08
'0:18.238',3.52
'0:18.242',3.08
'0:18.246',2.47
'0:18.250',1.71
'0:18.254',0.89
'0:18.258',0.47
'0:18.262',0.56
'0:18.266',1.06
'0:18.270',1.33
'0:18.273',1.22
'0:18.277',0.67
'0:18.281',0.17
'0:18.285',0.05
'0:18.289',0.1
'0:18.293',0.19
'0:18.297',0.22
'0:18.301',0.26
'0:18.305',0.17
'0:18.309',-0.3
'0:18.313',-0.67
'0:18.316',-0.96
'0:18.320',-1.63
'0:18.324',-2.39
'0:18.328',-2.9
'0:18.332',-3.56
'0:18.336',-4.59
'0:18.340',-5.2
'0:18.344',-5.04
'0:18.348',-4.56
'0:18.352',-4.05
'0:18.355',-3.71
'0:18.359',-3.84
'0:18.363',-3.76
'0:18.367',-3.25
'0:18.371',-3.46
'0:18.375',-3.7
'0:18.379',-3.25
'0:18.383',-1.71
'0:18.387',0.4
'0:18.391',3.23
'0:18.395',6.7
'0:18.398',10.04
'0:18.402',12.42
'0:18.406',12.23
'0:18.410',9.28
'0:18.414',3.92
'0:18.418',-2.26
'0:18.422',-7.58
'0:18.426',-11.14
'0:18.430',-12.93
'0:18.434',-12.92
'0:18.438',-11.69
'0:18.441',-9.95
'0:18.445',-8.22
'0:18.449',-6.4
'0:18.453',-4.93
'0:18.457',-3.71
'0:18.461',-2.97
'0:18.465',-2.67
'0:18.469',-2.53
'0:18.473',-2.47
'0:18.477',-1.98
'0:18.480',-1.5
'0:18.484',-1.3
'0:18.488',-0.89
'0:18.492',-0.54
'0:18.496',-0.49
'0:18.500',-0.23
'0:18.504',0.05
'0:18.508',-0.19
'0:18.512',-0.32
'0:18.516',-0.03
'0:18.520',0.82
'0:18.523',1.69
'0:18.527',1.99
'0:18.531',2.31
'0:18.535',2.55
'0:18.539',2.68
'0:18.543',3.29
'0:18.547',4.12
'0:18.551',4.6
'0:18.555',4.73
'0:18.559',4.45
'0:18.563',4.09
'0:18.566',3.59
'0:18.570',2.9
'0:18.574',2.29
'0:18.578',2.12
'0:18.582',1.99
'0:18.586',1.61
'0:18.590',1.19
'0:18.594',0.92
'0:18.598',0.85
'0:18.602',1.12
'0:18.605',1.1
'0:18.609',0.45
'0:18.613',0.24
'0:18.617',0.46
'0:18.621',0.65
'0:18.625',0.6
'0:18.629',0.66
'0:18.633',0.49
'0:18.637',0.17
'0:18.641',-0.05
'0:18.645',-0.25
'0:18.648',-0.76
'0:18.652',-1.54
'0:18.656',-2.12
'0:18.660',-2.4
'0:18.664',-2.63
'0:18.668',-3.04
'0:18.672',-2.94
'0:18.676',-2.49
'0:18.680',-2.46
'0:18.684',-2.47
'0:18.688',-2.17
'0:18.691',-2.08
'0:18.695',-2.39
'0:18.699',-2.51
'0:18.703',-2.44
'0:18.707',-2.06
'0:18.711',-1.08
'0:18.715',0.59
'0:18.719',2.93
'0:18.723',5.99
'0:18.727',9.72
'0:18.730',13.63
'0:18.734',15.46
'0:18.738',13.78
'0:18.742',9.02
'0:18.746',2.68
'0:18.750',-3.59
'0:18.754',-7.99
'0:18.758',-10.03
'0:18.762',-10.52
'0:18.766',-10.07
'0:18.770',-8.96
'0:18.773',-8.02
'0:18.777',-6.7
'0:18.781',-5.13
'0:18.785',-3.76
'0:18.789',-2.7
'0:18.793',-1.95
'0:18.797',-1.35
'0:18.801',-0.81
'0:18.805',-0.46
'0:18.809',-0.26
'0:18.813',0.09
'0:18.816',0.18
'0:18.820',-0.02
'0:18.824',0.22
'0:18.828',0.84
'0:18.832',1.53
'0:18.836',1.83
'0:18.840',1.85
'0:18.844',1.85
'0:18.848',2.05
'0:18.852',2.61
'0:18.855',3.03
'0:18.859',3.39
'0:18.863',3.73
'0:18.867',4.38
'0:18.871',5.2
'0:18.875',5.73
'0:18.879',6.12
'0:18.883',6.29
'0:18.887',6.23
'0:18.891',6.02
'0:18.895',5.52
'0:18.898',4.74
'0:18.902',4.04
'0:18.906',3.56
'0:18.910',3.29
'0:18.914',2.97
'0:18.918',2.63
'0:18.922',2.36
'0:18.926',1.95
'0:18.930',1.71
'0:18.934',1.84
'0:18.938',2.09
'0:18.941',2.09
'0:18.945',1.98
'0:18.949',1.71
'0:18.953',1.37
'0:18.957',1.17
'0:18.961',1.18
'0:18.965',0.85
'0:18.969',0.51
'0:18.973',0.37
'0:18.977',0.23
'0:18.980',-0.31
'0:18.984',-1.47
'0:18.988',-2.52
'0:18.992',-2.76
'0:18.996',-2.45
'0:19.000',-2.52
'0:19.004',-3.15
'0:19.008',-3.48
'0:19.012',-3.46
'0:19.016',-3.77
'0:19.020',-4.26
'0:19.023',-4.63
'0:19.027',-4.71
'0:19.031',-4.46
'0:19.035',-4.33
'0:19.039',-3.99
'0:19.043',-2.87
'0:19.047',-1.08
'0:19.051',1.62
'0:19.055',5.52
'0:19.059',9.52
'0:19.063',12.87
'0:19.066',14.14
'0:19.070',11.76
'0:19.074',6.41
'0:19.078',-0.12
'0:19.082',-6.37
'0:19.086',-10.05
'0:19.090',-10.98
'0:19.094',-10.64
'0:19.098',-9.85
'0:19.102',-9.21
'0:19.105',-7.55
'0:19.109',-5.15
'0:19.113',-3.44
'0:19.117',-2.01
'0:19.121',-1.06
'0:19.125',-0.64
'0:19.129',-0.62
'0:19.133',-0.79
'0:19.137',-0.63
'0:19.141',-0.26
'0:19.145',-0.09
'0:19.148',-0.23
'0:19.152',-0.41
'0:19.156',-0.44
'0:19.160',-0.47
'0:19.164',-0.61
'0:19.168',-0.5
'0:19.172',-0.02
'0:19.176',0.92
'0:19.180',1.75
'0:19.184',2.07
'0:19.188',2.13
'0:19.191',2.04
'0:19.195',2.22
'0:19.199',2.76
'0:19.203',3.52
'0:19.207',4.07
'0:19.211',4.23
'0:19.215',4.17
'0:19.219',4.57
'0:19.223',4.88
'0:19.227',4.55
'0:19.230',3.83
'0:19.234',2.84
'0:19.238',1.93
'0:19.242',1.21
'0:19.246',0.97
'0:19.250',1.1
'0:19.254',0.94
'0:19.258',0.34
'0:19.262',-0.07
'0:19.266',0.26
'0:19.270',0.81
'0:19.273',0.82
'0:19.277',0.13
'0:19.281',-0.71
'0:19.285',-1.17
'0:19.289',-1.43
'0:19.293',-1.62
'0:19.297',-1.66
'0:19.301',-1.4
'0:19.305',-1.26
'0:19.309',-1.44
'0:19.313',-1.84
'0:19.316',-2.38
'0:19.320',-3.18
'0:19.324',-3.87
'0:19.328',-4.1
'0:19.332',-4.12
'0:19.336',-4.02
'0:19.340',-4.12
'0:19.344',-4.56
'0:19.348',-4.7
'0:19.352',-4.36
'0:19.355',-4.11
'0:19.359',-3.82
'0:19.363',-3.49
'0:19.367',-3.21
'0:19.371',-2.9
'0:19.375',-2.81
'0:19.379',-1.46
'0:19.383',1.01
'0:19.387',3.99
'0:19.391',7.27
'0:19.395',11.15
'0:19.398',13.9
'0:19.402',13.13
'0:19.406',8.93
'0:19.410',2.93
'0:19.414',-3.43
'0:19.418',-8.33
'0:19.422',-10.53
'0:19.426',-11.15
'0:19.430',-11.42
'0:19.434',-10.78
'0:19.438',-8.97
'0:19.441',-6.87
'0:19.445',-5.18
'0:19.449',-3.9
'0:19.453',-2.93
'0:19.457',-2.08
'0:19.461',-1.24
'0:19.465',-0.66
'0:19.469',-0.3
'0:19.473',-0.44
'0:19.477',-0.61
'0:19.480',-0.65
'0:19.484',-0.31
'0:19.488',0.08
'0:19.492',0.43
'0:19.496',0.76
'0:19.500',1.22
'0:19.504',1.64
'0:19.508',1.76
'0:19.512',1.29
'0:19.516',1.14
'0:19.520',1.57
'0:19.523',2.3
'0:19.527',2.94
