'0:00.000',-2.34
'0:00.004',-2.31
'0:00.008',-2.31
'0:00.012',-2.4
'0:00.016',-2.47
'0:00.020',-2.77
'0:00.023',-3.18
'0:00.027',-3.43
'0:00.031',-3.13
'0:00.035',-1.99
'0:00.039',0.02
'0:00.043',2.78
'0:00.047',6.18
'0:00.051',8.78
'0:00.055',7.66
'0:00.059',3.2
'0:00.063',-0.74
'0:00.066',-3.27
'0:00.070',-5.49
'0:00.074',-7.54
'0:00.078',-8.82
'0:00.082',-8.94
'0:00.086',-8.06
'0:00.090',-6.54
'0:00.094',-4.78
'0:00.098',-3.06
'0:00.102',-1.61
'0:00.105',-0.3
'0:00.109',0.53
'0:00.113',1.1
'0:00.117',1.49
'0:00.121',1.85
'0:00.125',2.13
'0:00.129',2.29
'0:00.133',2.39
'0:00.137',2.57
'0:00.141',2.82
'0:00.145',3.06
'0:00.148',3.33
'0:00.152',3.6
'0:00.156',3.77
'0:00.160',4.01
'0:00.164',4.33
'0:00.168',4.46
'0:00.172',4.58
'0:00.176',4.63
'0:00.180',4.49
'0:00.184',4.15
'0:00.188',3.87
'0:00.191',3.73
'0:00.195',3.69
'0:00.199',3.63
'0:00.203',3.43
'0:00.207',3.18
'0:00.211',2.88
'0:00.215',2.57
'0:00.219',2.13
'0:00.223',1.72
'0:00.227',1.32
'0:00.230',0.9
'0:00.234',0.61
'0:00.238',0.64
'0:00.242',0.79
'0:00.246',1.01
'0:00.250',1.03
'0:00.254',0.98
'0:00.258',1.09
'0:00.262',1.34
'0:00.266',1.55
'0:00.270',1.53
'0:00.273',1.25
'0:00.277',0.83
'0:00.281',0.32
'0:00.285',-0.26
'0:00.289',-0.74
'0:00.293',-1.21
'0:00.297',-1.55
'0:00.301',-1.89
'0:00.305',-2.37
'0:00.309',-2.95
'0:00.313',-3.45
'0:00.316',-3.76
'0:00.320',-3.92
'0:00.324',-3.81
'0:00.328',-3.73
'0:00.332',-3.79
'0:00.336',-3.88
'0:00.340',-4.28
'0:00.344',-5.21
'0:00.348',-6.07
'0:00.352',-6.39
'0:00.355',-5.65
'0:00.359',-3.74
'0:00.363',-0.95
'0:00.367',2.71
'0:00.371',6.61
'0:00.375',7.97
'0:00.379',4.52
'0:00.383',-0.27
'0:00.387',-4.16
'0:00.391',-7.46
'0:00.395',-9.93
'0:00.398',-11.1
'0:00.402',-10.85
'0:00.406',-9.67
'0:00.410',-7.87
'0:00.414',-5.71
'0:00.418',-3.74
'0:00.422',-2.14
'0:00.426',-0.9
'0:00.430',-0.7
'0:00.434',-0.7
'0:00.438',-0.7
'0:00.441',-0.7
'0:00.445',-0.7
'0:00.449',-0.7
'0:00.453',-0.7
'0:00.457',0.37
'0:00.461',1.56
'0:00.465',1.95
'0:00.469',2.45
'0:00.473',3.06
'0:00.477',3.31
'0:00.480',3.44
'0:00.484',3.62
'0:00.488',3.75
'0:00.492',4
'0:00.496',4.14
'0:00.500',3.87
'0:00.504',3.58
'0:00.508',3.41
'0:00.512',3.25
'0:00.516',3.03
'0:00.520',2.64
'0:00.523',2.4
'0:00.527',2.35
'0:00.531',2.28
'0:00.535',2.1
'0:00.539',1.97
'0:00.543',1.8
'0:00.547',1.47
'0:00.551',0.94
'0:00.555',0.34
'0:00.559',0.08
'0:00.563',0.13
'0:00.566',0.22
'0:00.570',0.3
'0:00.574',0.44
'0:00.578',0.47
'0:00.582',0.34
'0:00.586',0.18
'0:00.590',0.26
'0:00.594',0.47
'0:00.598',0.52
'0:00.602',0.25
'0:00.605',-0.18
'0:00.609',-0.49
'0:00.613',-0.82
'0:00.617',-1.01
'0:00.621',-1.26
'0:00.625',-1.83
'0:00.629',-2.38
'0:00.633',-2.77
'0:00.637',-3.23
'0:00.641',-3.58
'0:00.645',-3.86
'0:00.648',-3.72
'0:00.652',-3.56
'0:00.656',-3.57
'0:00.660',-3.7
'0:00.664',-3.81
'0:00.668',-4.08
'0:00.672',-4.32
'0:00.676',-4.37
'0:00.680',-3.81
'0:00.684',-2.37
'0:00.688',-0.08
'0:00.691',3.02
'0:00.695',6.8
'0:00.699',9.39
'0:00.703',7.35
'0:00.707',2.21
'0:00.711',-2.11
'0:00.715',-5.17
'0:00.719',-7.64
'0:00.723',-9.33
'0:00.727',-9.8
'0:00.730',-9.23
'0:00.734',-8.11
'0:00.738',-6.48
'0:00.742',-4.57
'0:00.746',-2.7
'0:00.750',-1.27
'0:00.754',-0.43
'0:00.758',0.03
'0:00.762',0.32
'0:00.766',0.72
'0:00.770',1.08
'0:00.773',1.42
'0:00.777',1.69
'0:00.781',1.84
'0:00.785',1.94
'0:00.789',1.98
'0:00.793',2.09
'0:00.797',2.42
'0:00.801',3.1
'0:00.805',3.74
'0:00.809',4.24
'0:00.813',4.55
'0:00.816',4.61
'0:00.820',4.53
'0:00.824',4.29
'0:00.828',4.19
'0:00.832',4.01
'0:00.836',3.79
'0:00.840',3.62
'0:00.844',3.38
'0:00.848',3.12
'0:00.852',2.91
'0:00.855',2.39
'0:00.859',1.69
'0:00.863',1.21
'0:00.867',1.15
'0:00.871',1.06
'0:00.875',0.74
'0:00.879',0.22
'0:00.883',-0.07
'0:00.887',-0.05
'0:00.891',-0.25
'0:00.895',-0.32
'0:00.898',-0.36
'0:00.902',-0.41
'0:00.906',-0.23
'0:00.910',0.09
'0:00.914',0.13
'0:00.918',-0.02
'0:00.922',-0.02
'0:00.926',0.47
'0:00.930',0.34
'0:00.934',0.35
'0:00.938',-0.45
'0:00.941',-0.84
'0:00.945',-1.1
'0:00.949',-1.41
'0:00.953',-1.9
'0:00.957',-2.43
'0:00.961',-2.77
'0:00.965',-3.18
'0:00.969',-3.51
'0:00.973',-3.6
'0:00.977',-3.61
'0:00.980',-3.6
'0:00.984',-3.4
'0:00.988',-3.11
'0:00.992',-3.02
'0:00.996',-3.41
'0:01.000',-4.2
'0:01.004',-4.84
'0:01.008',-4.76
'0:01.012',-3.88
'0:01.016',-2.08
'0:01.020',0.94
'0:01.023',4.97
'0:01.027',7.88
'0:01.031',8.21
'0:01.035',4.18
'0:01.039',-0.46
'0:01.043',-3.57
'0:01.047',-5.78
'0:01.051',-7.72
'0:01.055',-9.15
'0:01.059',-9.32
'0:01.063',-8.84
'0:01.066',-7.85
'0:01.070',-6.09
'0:01.074',-4.3
'0:01.078',-2.7
'0:01.082',-1.63
'0:01.086',-0.73
'0:01.090',-0.12
'0:01.094',0.31
'0:01.098',0.84
'0:01.102',1.38
'0:01.105',1.73
'0:01.109',1.86
'0:01.113',1.84
'0:01.117',1.77
'0:01.121',2.12
'0:01.125',2.58
'0:01.129',2.89
'0:01.133',3.13
'0:01.137',3.21
'0:01.141',3.56
'0:01.145',3.89
'0:01.148',3.64
'0:01.152',3.32
'0:01.156',3.58
'0:01.160',3.94
'0:01.164',3.82
'0:01.168',3.71
'0:01.172',3.7
'0:01.176',3.37
'0:01.180',2.96
'0:01.184',2.61
'0:01.188',2.14
'0:01.191',1.77
'0:01.195',1.48
'0:01.199',1.16
'0:01.203',1.22
'0:01.207',1.14
'0:01.211',0.81
'0:01.215',0.5
'0:01.219',0.43
'0:01.223',0.65
'0:01.227',0.76
'0:01.230',0.56
'0:01.234',0.26
'0:01.238',0.41
'0:01.242',0.69
'0:01.246',1.01
'0:01.250',1.28
'0:01.254',1.41
'0:01.258',1.49
'0:01.262',1.11
'0:01.266',0.27
'0:01.270',-0.5
'0:01.273',-0.88
'0:01.277',-1.1
'0:01.281',-1.55
'0:01.285',-1.9
'0:01.289',-2.2
'0:01.293',-2.44
'0:01.297',-2.71
'0:01.301',-2.98
'0:01.305',-2.97
'0:01.309',-2.81
'0:01.313',-2.75
'0:01.316',-2.68
'0:01.320',-2.79
'0:01.324',-3.09
'0:01.328',-3.53
'0:01.332',-3.81
'0:01.336',-3.59
'0:01.340',-2.67
'0:01.344',-0.79
'0:01.348',2.26
'0:01.352',6.3
'0:01.355',9.61
'0:01.359',8.9
'0:01.363',4.07
'0:01.367',-0.47
'0:01.371',-3.64
'0:01.375',-6.3
'0:01.379',-8.55
'0:01.383',-9.81
'0:01.387',-9.89
'0:01.391',-8.96
'0:01.395',-7.34
'0:01.398',-5.53
'0:01.402',-3.83
'0:01.406',-2.49
'0:01.410',-1.48
'0:01.414',-0.45
'0:01.418',0.39
'0:01.422',1.02
'0:01.426',1.36
'0:01.430',1.44
'0:01.434',1.51
'0:01.438',1.65
'0:01.441',1.79
'0:01.445',2.1
'0:01.449',2.47
'0:01.453',2.88
'0:01.457',3.24
'0:01.461',3.72
'0:01.465',4.21
'0:01.469',4.57
'0:01.473',4.67
'0:01.477',4.53
'0:01.480',4.28
'0:01.484',4.02
'0:01.488',3.72
'0:01.492',3.41
'0:01.496',3.24
'0:01.500',3.11
'0:01.504',2.9
'0:01.508',2.5
'0:01.512',2.02
'0:01.516',1.62
'0:01.520',1.36
'0:01.523',1.13
'0:01.527',1.12
'0:01.531',1.12
'0:01.535',0.56
'0:01.539',0.59
'0:01.543',0.59
'0:01.547',0.58
'0:01.551',0.59
'0:01.555',0.59
'0:01.559',0.83
'0:01.563',0.79
'0:01.566',0.79
'0:01.570',0.96
'0:01.574',1.3
'0:01.578',1.44
'0:01.582',1.36
'0:01.586',1.1
'0:01.590',0.58
'0:01.594',-0.09
'0:01.598',-0.73
'0:01.602',-1.38
'0:01.605',-1.62
'0:01.609',-1.76
'0:01.613',-1.99
'0:01.617',-2.47
'0:01.621',-2.94
'0:01.625',-3.22
'0:01.629',-3.42
'0:01.633',-3.54
'0:01.637',-3.61
'0:01.641',-3.56
'0:01.645',-3.54
'0:01.648',-3.82
'0:01.652',-4.43
'0:01.656',-5.01
'0:01.660',-5.17
'0:01.664',-4.8
'0:01.668',-3.33
'0:01.672',-0.41
'0:01.676',3.69
'0:01.680',7.93
'0:01.684',9.43
'0:01.688',5.73
'0:01.691',0.29
'0:01.695',-3.96
'0:01.699',-7.33
'0:01.703',-9.77
'0:01.707',-10.42
'0:01.711',-10.42
'0:01.715',-10.42
'0:01.719',-10.42
'0:01.723',-10.42
'0:01.727',-10.42
'0:01.730',-10.42
'0:01.734',-10.42
'0:01.738',-10.42
'0:01.742',-10.42
'0:01.746',-10.42
'0:01.750',0.87
'0:01.754',1.3
'0:01.758',1.78
'0:01.762',2.06
'0:01.766',2.23
'0:01.770',2.45
'0:01.773',2.86
'0:01.777',3.4
'0:01.781',3.74
'0:01.785',3.96
'0:01.789',4.18
'0:01.793',4.35
'0:01.797',4.3
'0:01.801',4.05
'0:01.805',3.82
'0:01.809',3.55
'0:01.813',3.55
'0:01.816',3.73
'0:01.820',3.7
'0:01.824',3.42
'0:01.828',3.05
'0:01.832',2.73
'0:01.836',2.43
'0:01.840',2.12
'0:01.844',1.71
'0:01.848',1.19
'0:01.852',0.74
'0:01.855',0.59
'0:01.859',0.68
'0:01.863',0.64
'0:01.867',0.63
'0:01.871',0.62
'0:01.875',0.55
'0:01.879',0.45
'0:01.883',0.4
'0:01.887',0.47
'0:01.891',0.31
'0:01.895',0.42
'0:01.898',1
'0:01.902',1.43
'0:01.906',1.31
'0:01.910',0.85
'0:01.914',0.18
'0:01.918',-0.46
'0:01.922',-0.88
'0:01.926',-0.97
'0:01.930',-1.24
'0:01.934',-1.58
'0:01.938',-1.94
'0:01.941',-2.4
'0:01.945',-2.96
'0:01.949',-3.44
'0:01.953',-3.53
'0:01.957',-3.53
'0:01.961',-3.53
'0:01.965',-3.53
'0:01.969',-3.53
'0:01.973',-3.52
'0:01.977',-3.53
'0:01.980',-3.52
'0:01.984',-3.53
'0:01.988',-3.53
'0:01.992',-3.53
'0:01.996',-3.53
'0:02.000',1.5
'0:02.004',5.84
'0:02.008',6.09
'0:02.012',6.1
'0:02.016',6.1
'0:02.020',6.1
'0:02.023',6.1
'0:02.027',6.1
'0:02.031',6.09
'0:02.035',6.1
'0:02.039',6.1
'0:02.043',6.1
'0:02.047',6.1
'0:02.051',6.1
'0:02.055',6.1
'0:02.059',6.1
'0:02.063',6.09
'0:02.066',6.1
'0:02.070',6.1
'0:02.074',6.1
'0:02.078',6.1
'0:02.082',6.1
'0:02.086',6.09
'0:02.090',6.09
'0:02.094',6.1
'0:02.098',6.1
'0:02.102',6.1
'0:02.105',6.09
'0:02.109',6.1
'0:02.113',6.1
'0:02.117',6.1
'0:02.121',6.09
'0:02.125',6.1
'0:02.129',6.1
'0:02.133',6.1
'0:02.137',6.09
'0:02.141',6.1
'0:02.145',6.1
'0:02.148',6.1
'0:02.152',6.1
'0:02.156',6.1
'0:02.160',6.1
'0:02.164',6.1
'0:02.168',6.1
'0:02.172',6.09
'0:02.176',6.1
'0:02.180',6.1
'0:02.184',6.1
'0:02.188',6.1
'0:02.191',6.09
'0:02.195',6.09
'0:02.199',6.1
'0:02.203',6.1
'0:02.207',6.09
'0:02.211',6.09
'0:02.215',6.1
'0:02.219',6.1
'0:02.223',6.09
'0:02.227',6.1
'0:02.230',6.1
'0:02.234',6.1
'0:02.238',6.1
'0:02.242',6.1
'0:02.246',6.09
'0:02.250',6.09
'0:02.254',6.1
'0:02.258',-1.25
'0:02.262',0.34
'0:02.266',0.83
'0:02.270',0.77
'0:02.273',0.44
'0:02.277',0.1
'0:02.281',-0.16
'0:02.285',-0.08
'0:02.289',0.14
'0:02.293',0.25
'0:02.297',0.22
'0:02.301',-0.27
'0:02.305',-0.95
'0:02.309',-1.39
'0:02.313',-1.35
'0:02.316',-0.61
'0:02.320',1.08
'0:02.324',3.75
'0:02.328',7.39
'0:02.332',10.68
'0:02.336',10.36
'0:02.340',6.12
'0:02.344',1.68
'0:02.348',-1.46
'0:02.352',-4.17
'0:02.355',-6.36
'0:02.359',-7.56
'0:02.363',-7.59
'0:02.367',-6.7
'0:02.371',-5.25
'0:02.375',-3.45
'0:02.379',-1.88
'0:02.383',-0.41
'0:02.387',0.89
'0:02.391',1.73
'0:02.395',2.2
'0:02.398',2.45
'0:02.402',2.6
'0:02.406',2.59
'0:02.410',2.65
'0:02.414',2.84
'0:02.418',3.04
'0:02.422',3.32
'0:02.426',3.84
'0:02.430',4.4
'0:02.434',4.87
'0:02.438',5.09
'0:02.441',5.01
'0:02.445',4.94
'0:02.449',5.2
'0:02.453',5.23
'0:02.457',4.97
'0:02.461',4.89
'0:02.465',5
'0:02.469',4.96
'0:02.473',4.78
'0:02.477',4.33
'0:02.480',3.83
'0:02.484',3.37
'0:02.488',3.02
'0:02.492',2.64
'0:02.496',2.22
'0:02.500',1.91
'0:02.504',1.65
'0:02.508',1.3
'0:02.512',0.75
'0:02.516',0.36
'0:02.520',0.27
'0:02.523',0.44
'0:02.527',0.49
'0:02.531',0.45
'0:02.535',0.65
'0:02.539',0.78
'0:02.543',0.61
'0:02.547',0.47
'0:02.551',0.52
'0:02.555',0.6
'0:02.559',0.71
'0:02.563',0.71
'0:02.566',0.34
'0:02.570',-0.15
'0:02.574',-0.51
'0:02.578',-0.87
'0:02.582',-1.35
'0:02.586',-1.59
'0:02.590',-1.87
'0:02.594',-2.19
'0:02.598',-2.48
'0:02.602',-2.82
'0:02.605',-3.15
'0:02.609',-3.21
'0:02.613',-3.21
'0:02.617',-3.17
'0:02.621',-3.13
'0:02.625',-3.33
'0:02.629',-3.39
'0:02.633',-3.79
'0:02.637',-4.13
'0:02.641',-4.06
'0:02.645',-3.37
'0:02.648',-1.99
'0:02.652',0.2
'0:02.656',3.53
'0:02.660',7.05
'0:02.664',8.29
'0:02.668',5.02
'0:02.672',0.27
'0:02.676',-3.23
'0:02.680',-5.23
'0:02.684',-7.02
'0:02.688',-8.48
'0:02.691',-9.25
'0:02.695',-9.31
'0:02.699',-8.58
'0:02.703',-7.25
'0:02.707',-5.23
'0:02.711',-3.07
'0:02.715',-1.35
'0:02.719',-0.56
'0:02.723',-0.05
'0:02.727',0.32
'0:02.730',0.61
'0:02.734',1
'0:02.738',1.38
'0:02.742',1.45
'0:02.746',1.72
'0:02.750',1.86
'0:02.754',2.24
'0:02.758',2.63
'0:02.762',2.92
'0:02.766',3.09
'0:02.770',3.34
'0:02.773',3.82
'0:02.777',4.3
'0:02.781',4.41
'0:02.785',3.74
'0:02.789',3.21
'0:02.793',3.37
'0:02.797',3.69
'0:02.801',4.14
'0:02.805',4.34
'0:02.809',3.71
'0:02.813',2.99
'0:02.816',2.65
'0:02.820',2.23
'0:02.824',1.87
'0:02.828',1.84
'0:02.832',1.6
'0:02.836',1.22
'0:02.840',0.81
'0:02.844',0.62
'0:02.848',0.59
'0:02.852',0.43
'0:02.855',0.22
'0:02.859',0.5
'0:02.863',0.9
'0:02.867',0.68
'0:02.871',0.11
'0:02.875',0.13
'0:02.879',0.62
'0:02.883',1.15
'0:02.887',1.21
'0:02.891',0.96
'0:02.895',0.23
'0:02.898',-0.45
'0:02.902',-0.39
'0:02.906',-0.16
'0:02.910',-0.93
'0:02.914',-1.24
'0:02.918',-1.54
'0:02.922',-1.91
'0:02.926',-2.58
'0:02.930',-3.18
'0:02.934',-3.36
'0:02.938',-3.24
'0:02.941',-2.87
'0:02.945',-2.54
'0:02.949',-2.81
'0:02.953',-3.31
'0:02.957',-3.58
'0:02.961',-3.65
'0:02.965',-3.63
'0:02.969',-3.51
'0:02.973',-2.91
'0:02.977',-1.36
'0:02.980',1.57
'0:02.984',5.22
'0:02.988',8.8
'0:02.992',10.15
'0:02.996',6.89
'0:03.000',1.84
'0:03.004',-1.96
'0:03.008',-4.91
'0:03.012',-7.5
'0:03.016',-9.36
'0:03.020',-10.17
'0:03.023',-9.8
'0:03.027',-8.6
'0:03.031',-6.85
'0:03.035',-4.93
'0:03.039',-3.31
'0:03.043',-1.81
'0:03.047',-0.79
'0:03.051',-0.33
'0:03.055',-0.03
'0:03.059',0.12
'0:03.063',0.4
'0:03.066',0.9
'0:03.070',1.3
'0:03.074',1.62
'0:03.078',2
'0:03.082',2.36
'0:03.086',2.5
'0:03.090',2.67
'0:03.094',2.88
'0:03.098',3.28
'0:03.102',3.69
'0:03.105',3.92
'0:03.109',4
'0:03.113',3.97
'0:03.117',3.91
'0:03.121',3.72
'0:03.125',3.43
'0:03.129',3.28
'0:03.133',3.06
'0:03.137',2.81
'0:03.141',2.35
'0:03.145',1.88
'0:03.148',1.62
'0:03.152',1.41
'0:03.156',1.19
'0:03.160',0.96
'0:03.164',0.64
'0:03.168',0.39
'0:03.172',0.22
'0:03.176',0.2
'0:03.180',0.18
'0:03.184',0.31
'0:03.188',0.65
'0:03.191',0.83
'0:03.195',0.83
'0:03.199',0.83
'0:03.203',0.83
'0:03.207',0.99
'0:03.211',1.14
'0:03.215',1.15
'0:03.219',0.88
'0:03.223',0.58
'0:03.227',0.37
'0:03.230',0.09
'0:03.234',-0.29
'0:03.238',-0.77
'0:03.242',-1.15
'0:03.246',-1.48
'0:03.250',-1.81
'0:03.254',-2.19
'0:03.258',-2.71
'0:03.262',-3.19
'0:03.266',-3.2
'0:03.270',-3.05
'0:03.273',-3.1
'0:03.277',-3.19
'0:03.281',-3.21
'0:03.285',-3.32
'0:03.289',-3.65
'0:03.293',-3.99
'0:03.297',-4.07
'0:03.301',-3.56
'0:03.305',-1.94
'0:03.309',0.82
'0:03.313',4.5
'0:03.316',8.36
'0:03.320',10.25
'0:03.324',7.43
'0:03.328',2.04
'0:03.332',-2.52
'0:03.336',-6.04
'0:03.340',-8.79
'0:03.344',-10.35
'0:03.348',-10.45
'0:03.352',-9.57
'0:03.355',-8.18
'0:03.359',-6.45
'0:03.363',-4.64
'0:03.367',-3.05
'0:03.371',-1.59
'0:03.375',-0.42
'0:03.379',0.31
'0:03.383',0.72
'0:03.387',0.94
'0:03.391',1.15
'0:03.395',1.6
'0:03.398',2
'0:03.402',2.23
'0:03.406',2.38
'0:03.410',2.51
'0:03.414',2.7
'0:03.418',2.98
'0:03.422',3.3
'0:03.426',3.63
'0:03.430',4.05
'0:03.434',4.37
'0:03.438',4.51
'0:03.441',4.38
'0:03.445',4.14
'0:03.449',3.9
'0:03.453',3.58
'0:03.457',3.28
'0:03.461',3.17
'0:03.465',3.22
'0:03.469',3.07
'0:03.473',2.76
'0:03.477',2.29
'0:03.480',1.69
'0:03.484',1.25
'0:03.488',0.9
'0:03.492',0.6
'0:03.496',0.49
'0:03.500',0.67
'0:03.504',0.78
'0:03.508',0.81
'0:03.512',0.88
'0:03.516',0.98
'0:03.520',1
'0:03.523',0.98
'0:03.527',1.01
'0:03.531',1.15
'0:03.535',1.36
'0:03.539',1.3
'0:03.543',0.93
'0:03.547',0.47
'0:03.551',0.02
'0:03.555',-0.36
'0:03.559',-0.73
'0:03.563',-1.05
'0:03.566',-1.41
'0:03.570',-1.82
'0:03.574',-2.32
'0:03.578',-2.86
'0:03.582',-3.2
'0:03.586',-3.22
'0:03.590',-3.14
'0:03.594',-3.23
'0:03.598',-3.29
'0:03.602',-3.26
'0:03.605',-3.32
'0:03.609',-3.79
'0:03.613',-4.44
'0:03.617',-4.92
'0:03.621',-4.82
'0:03.625',-3.86
'0:03.629',-1.97
'0:03.633',0.98
'0:03.637',4.95
'0:03.641',8.64
'0:03.645',8.5
'0:03.648',3.89
'0:03.652',-0.79
'0:03.656',-4.38
'0:03.660',-7.29
'0:03.664',-9.35
'0:03.668',-10.14
'0:03.672',-9.66
'0:03.676',-8.4
'0:03.680',-6.6
'0:03.684',-4.66
'0:03.688',-2.99
'0:03.691',-1.56
'0:03.695',-0.41
'0:03.699',0.44
'0:03.703',0.98
'0:03.707',1.28
'0:03.711',1.37
'0:03.715',1.39
'0:03.719',1.5
'0:03.723',1.81
'0:03.727',2.29
'0:03.730',2.71
'0:03.734',2.99
'0:03.738',3.16
'0:03.742',3.53
'0:03.746',3.89
'0:03.750',4.16
'0:03.754',4.29
'0:03.758',4.27
'0:03.762',4.27
'0:03.766',4.36
'0:03.770',4.37
'0:03.773',4.23
'0:03.777',3.93
'0:03.781',3.48
'0:03.785',3.07
'0:03.789',2.82
'0:03.793',2.71
'0:03.797',2.57
'0:03.801',2.34
'0:03.805',2.02
'0:03.809',1.77
'0:03.813',1.47
'0:03.816',1.08
'0:03.820',0.69
'0:03.824',0.36
'0:03.828',0.24
'0:03.832',0.2
'0:03.836',0.25
'0:03.840',0.37
'0:03.844',0.4
'0:03.848',0.38
'0:03.852',0.29
'0:03.855',0.25
'0:03.859',0.34
'0:03.863',0.52
'0:03.867',0.76
'0:03.871',0.7
'0:03.875',0.43
'0:03.879',0.01
'0:03.883',-0.61
'0:03.887',-1.2
'0:03.891',-1.6
'0:03.895',-1.88
'0:03.898',-2.06
'0:03.902',-2.37
'0:03.906',-2.91
'0:03.910',-3.36
'0:03.914',-3.49
'0:03.918',-3.3
'0:03.922',-3.19
'0:03.926',-3.24
'0:03.930',-3.26
'0:03.934',-3.42
'0:03.938',-4.03
'0:03.941',-5.23
'0:03.945',-5.33
'0:03.949',-4.41
'0:03.953',-2.29
'0:03.957',-1.06
'0:03.961',2.13
'0:03.965',6.19
'0:03.969',8.89
'0:03.973',7.02
'0:03.977',1.89
'0:03.980',-2.8
'0:03.984',-6.1
'0:03.988',-8.6
'0:03.992',-10.03
'0:03.996',-10.13
'0:04.000',-9.17
'0:04.004',-7.59
'0:04.008',-5.65
'0:04.012',-3.75
'0:04.016',-2.13
'0:04.020',-0.93
'0:04.023',-0.04
'0:04.027',0.65
'0:04.031',1.22
'0:04.035',1.48
'0:04.039',1.42
'0:04.043',1.35
'0:04.047',1.52
'0:04.051',2.08
'0:04.055',2.68
'0:04.059',3.08
'0:04.063',3.31
'0:04.066',3.52
'0:04.070',3.88
'0:04.074',4.19
'0:04.078',4.38
'0:04.082',4.58
'0:04.086',4.58
'0:04.090',4.27
'0:04.094',4.18
'0:04.098',4.28
'0:04.102',4.53
'0:04.105',4.56
'0:04.109',4.31
'0:04.113',3.96
'0:04.117',3.29
'0:04.121',2.53
'0:04.125',2.17
'0:04.129',2.21
'0:04.133',2.04
'0:04.137',1.68
'0:04.141',1.25
'0:04.145',0.92
'0:04.148',0.83
'0:04.152',0.81
'0:04.156',0.56
'0:04.160',0.28
'0:04.164',0.19
'0:04.168',0.4
'0:04.172',0.54
'0:04.176',0.43
'0:04.180',0.24
'0:04.184',0.16
'0:04.188',0.31
'0:04.191',0.41
'0:04.195',0.15
'0:04.199',-0.14
'0:04.203',-0.42
'0:04.207',-0.69
'0:04.211',-0.79
'0:04.215',-0.89
'0:04.219',-1.2
'0:04.223',-1.67
'0:04.227',-2.2
'0:04.230',-2.7
'0:04.234',-3.15
'0:04.238',-3.45
'0:04.242',-3.69
'0:04.246',-3.64
'0:04.250',-3.39
'0:04.254',-3.34
'0:04.258',-3.13
'0:04.262',-3.17
'0:04.266',-3.75
'0:04.270',-4.55
'0:04.273',-5.05
'0:04.277',-4.86
'0:04.281',-3.75
'0:04.285',-1.55
'0:04.289',1.54
'0:04.293',5.27
'0:04.297',7.78
'0:04.301',6
'0:04.305',1.76
'0:04.309',-1.67
'0:04.313',-4.46
'0:04.316',-6.97
'0:04.320',-8.81
'0:04.324',-9.41
'0:04.328',-8.8
'0:04.332',-7.4
'0:04.336',-5.57
'0:04.340',-3.69
'0:04.344',-2.02
'0:04.348',-0.72
'0:04.352',0.29
'0:04.355',1.04
'0:04.359',1.45
'0:04.363',1.65
'0:04.367',1.73
'0:04.371',1.66
'0:04.375',1.64
'0:04.379',1.88
'0:04.383',2.32
'0:04.387',2.76
'0:04.391',3.09
'0:04.395',3.22
'0:04.398',3.35
'0:04.402',3.83
'0:04.406',4.21
'0:04.410',4.41
'0:04.414',4.67
'0:04.418',4.73
'0:04.422',4.73
'0:04.426',4.83
'0:04.430',4.85
'0:04.434',4.79
'0:04.438',4.6
'0:04.441',4.47
'0:04.445',4.27
'0:04.449',3.9
'0:04.453',3.46
'0:04.457',3.1
'0:04.461',2.68
'0:04.465',2.21
'0:04.469',1.69
'0:04.473',1.14
'0:04.477',0.63
'0:04.480',0.41
'0:04.484',0.41
'0:04.488',0.47
'0:04.492',0.46
'0:04.496',0.43
'0:04.500',0.31
'0:04.504',0.18
'0:04.508',0.2
'0:04.512',0.35
'0:04.516',0.52
'0:04.520',0.66
'0:04.523',0.75
'0:04.527',0.71
'0:04.531',0.47
'0:04.535',-0.03
'0:04.539',-0.65
'0:04.543',-1.16
'0:04.547',-1.47
'0:04.551',-1.48
'0:04.555',-1.68
'0:04.559',-2.11
'0:04.563',-2.58
'0:04.566',-2.91
'0:04.570',-3.18
'0:04.574',-3.2
'0:04.578',-2.94
'0:04.582',-2.71
'0:04.586',-2.63
'0:04.590',-2.78
'0:04.594',-3.47
'0:04.598',-4.34
'0:04.602',-4.7
'0:04.605',-4.32
'0:04.609',-3.05
'0:04.613',-1.95
'0:04.617',-1.95
'0:04.621',-1.95
'0:04.625',-1.94
'0:04.629',-1.94
'0:04.633',-1.95
'0:04.637',-1.95
'0:04.641',-1.95
'0:04.645',-1.95
'0:04.648',-1.94
'0:04.652',-1.95
'0:04.656',-1.95
'0:04.660',-1.95
'0:04.664',-1.95
'0:04.668',-1.95
'0:04.672',-1.95
'0:04.676',-1.94
'0:04.680',-1.95
'0:04.684',-1.94
'0:04.688',-1.94
'0:04.691',-1.95
'0:04.695',-1.95
'0:04.699',-1.95
'0:04.703',-1.95
'0:04.707',-1.95
'0:04.711',-1.95
'0:04.715',-1.94
'0:04.719',-1.95
'0:04.723',-1.94
'0:04.727',-1.95
'0:04.730',-1.95
'0:04.734',-1.95
'0:04.738',-1.94
'0:04.742',-1.95
'0:04.746',-1.95
'0:04.750',-1.95
'0:04.754',-1.95
'0:04.758',-1.95
'0:04.762',-1.94
'0:04.766',2.95
'0:04.770',3.08
'0:04.773',3
'0:04.777',2.74
'0:04.781',2.25
'0:04.785',1.83
'0:04.789',1.34
'0:04.793',1.03
'0:04.797',0.77
'0:04.801',0.55
'0:04.805',0.39
'0:04.809',0.19
'0:04.813',0.02
'0:04.816',-0.21
'0:04.820',-0.31
'0:04.824',-0.27
'0:04.828',-0.21
'0:04.832',-0.21
'0:04.836',-0.21
'0:04.840',-0.21
'0:04.844',0.04
'0:04.848',0.08
'0:04.852',0.06
'0:04.855',0.05
'0:04.859',-0.04
'0:04.863',-0.32
'0:04.867',-0.63
'0:04.871',-1.07
'0:04.875',-1.7
'0:04.879',-2.24
'0:04.883',-2.4
'0:04.887',-2.61
'0:04.891',-2.98
'0:04.895',-3.19
'0:04.898',-3.14
'0:04.902',-3.14
'0:04.906',-3.29
'0:04.910',-3.38
'0:04.914',-3.4
'0:04.918',-3.56
'0:04.922',-3.67
'0:04.926',-3.86
'0:04.930',-3.82
'0:04.934',-3.17
'0:04.938',-1.86
'0:04.941',0.18
'0:04.945',3.09
'0:04.949',6.45
'0:04.953',8.28
'0:04.957',5.95
'0:04.961',1.46
'0:04.965',-2.1
'0:04.969',-4.35
'0:04.973',-6.32
'0:04.977',-7.93
'0:04.980',-9.06
'0:04.984',-9.32
'0:04.988',-9.06
'0:04.992',-9.06
'0:04.996',-9.06
'0:05.000',-9.06
'0:05.004',-2.64
'0:05.008',-1.8
'0:05.012',-0.9
'0:05.016',-0.09
'0:05.020',0.69
'0:05.023',1.31
'0:05.027',1.55
'0:05.031',1.75
'0:05.035',1.89
'0:05.039',2.2
'0:05.043',2.41
'0:05.047',2.42
'0:05.051',2.53
'0:05.055',2.72
'0:05.059',2.91
'0:05.063',3.49
'0:05.066',3.98
'0:05.070',4.27
'0:05.074',4.38
'0:05.078',4
'0:05.082',3.74
'0:05.086',3.6
'0:05.090',3.54
'0:05.094',3.39
'0:05.098',3.32
'0:05.102',3.21
'0:05.105',3
'0:05.109',2.7
'0:05.113',2.39
'0:05.117',1.94
'0:05.121',1.5
'0:05.125',1.15
'0:05.129',0.89
'0:05.133',0.64
'0:05.137',0.36
'0:05.141',0.25
'0:05.145',0.26
'0:05.148',0.25
'0:05.152',0.27
'0:05.156',0.39
'0:05.160',0.5
'0:05.164',0.84
'0:05.168',1.04
'0:05.172',1.03
'0:05.176',0.98
'0:05.180',0.8
'0:05.184',0.61
'0:05.188',0.48
'0:05.191',0.25
'0:05.195',-0.07
'0:05.199',-0.37
'0:05.203',-0.73
'0:05.207',-1.03
'0:05.211',-1.39
'0:05.215',-1.8
'0:05.219',-2.19
'0:05.223',-2.63
'0:05.227',-2.91
'0:05.230',-2.93
'0:05.234',-2.85
'0:05.238',-2.69
'0:05.242',-2.49
'0:05.246',-2.45
'0:05.250',-2.68
'0:05.254',-3.23
'0:05.258',-3.66
'0:05.262',-3.46
'0:05.266',-2.65
'0:05.270',-0.9
'0:05.273',1.98
'0:05.277',5.67
'0:05.281',9.44
'0:05.285',10.51
'0:05.289',6.7
'0:05.293',1.7
'0:05.297',-2.05
'0:05.301',-5
'0:05.305',-7.52
'0:05.309',-9.26
'0:05.313',-9.75
'0:05.316',-9.16
'0:05.320',-7.9
'0:05.324',-6.29
'0:05.328',-4.48
'0:05.332',-2.82
'0:05.336',-1.53
'0:05.340',-0.69
'0:05.344',-0.13
'0:05.348',0.35
'0:05.352',0.83
'0:05.355',1.2
'0:05.359',1.59
'0:05.363',1.97
'0:05.367',2.12
'0:05.371',2.31
'0:05.375',2.5
'0:05.379',2.67
'0:05.383',3
'0:05.387',3.44
'0:05.391',3.81
'0:05.395',4.12
'0:05.398',4.29
'0:05.402',4.29
'0:05.406',4.29
'0:05.410',4.09
'0:05.414',3.84
'0:05.418',3.62
'0:05.422',3.48
'0:05.426',3.33
'0:05.430',3.07
'0:05.434',2.66
'0:05.438',2.38
'0:05.441',2.11
'0:05.445',1.75
'0:05.449',1.52
'0:05.453',1.29
'0:05.457',1.04
'0:05.461',0.89
'0:05.465',0.65
'0:05.469',0.45
'0:05.473',0.58
'0:05.477',0.77
'0:05.480',0.93
'0:05.484',0.93
'0:05.488',0.86
'0:05.492',0.86
'0:05.496',0.94
'0:05.500',1.09
'0:05.504',1.36
'0:05.508',1.43
'0:05.512',1.14
'0:05.516',0.76
'0:05.520',0.26
'0:05.523',-0.22
'0:05.527',-0.63
'0:05.531',-0.95
'0:05.535',-1.24
'0:05.539',-1.62
'0:05.543',-2.12
'0:05.547',-2.61
'0:05.551',-2.91
'0:05.555',-3.02
'0:05.559',-2.98
'0:05.563',-2.86
'0:05.566',-2.73
'0:05.570',-2.77
'0:05.574',-3
'0:05.578',-3.42
'0:05.582',-3.98
'0:05.586',-4.3
'0:05.590',-4.07
'0:05.594',-3.06
'0:05.598',-0.86
'0:05.602',2.5
'0:05.605',6.66
'0:05.609',10.06
'0:05.613',9.45
'0:05.617',4.57
'0:05.621',-0.33
'0:05.625',-3.88
'0:05.629',-6.9
'0:05.633',-9.2
'0:05.637',-10.24
'0:05.641',-9.93
'0:05.645',-8.78
'0:05.648',-7.06
'0:05.652',-5.22
'0:05.656',-3.57
'0:05.660',-2.21
'0:05.664',-1.2
'0:05.668',-0.45
'0:05.672',0.24
'0:05.676',0.89
'0:05.680',1.4
'0:05.684',1.63
'0:05.688',1.71
'0:05.691',1.81
'0:05.695',1.99
'0:05.699',2.25
'0:05.703',2.54
'0:05.707',2.87
'0:05.711',3.16
'0:05.715',3.45
'0:05.719',3.72
'0:05.723',3.94
'0:05.727',4.13
'0:05.730',4.17
'0:05.734',4.17
'0:05.738',4.17
'0:05.742',3.62
'0:05.746',3.43
'0:05.750',3.18
'0:05.754',2.98
'0:05.758',2.73
'0:05.762',2.41
'0:05.766',1.94
'0:05.770',1.38
'0:05.773',0.99
'0:05.777',0.79
'0:05.781',0.49
'0:05.785',0.25
'0:05.789',0.2
'0:05.793',0.2
'0:05.797',0.19
'0:05.801',0.29
'0:05.805',0.32
'0:05.809',0.33
'0:05.813',0.7
'0:05.816',0.78
'0:05.820',0.79
'0:05.824',0.86
'0:05.828',1.02
'0:05.832',1.05
'0:05.836',0.85
'0:05.840',0.4
'0:05.844',-0.04
'0:05.848',-0.57
'0:05.852',-0.95
'0:05.855',-1.34
'0:05.859',-1.82
'0:05.863',-2.31
'0:05.867',-2.55
'0:05.871',-2.55
'0:05.875',-3.37
'0:05.879',-3.53
'0:05.883',-3.53
'0:05.887',-3.42
'0:05.891',-3.25
'0:05.895',-3.16
'0:05.898',-3.47
'0:05.902',-4.13
'0:05.906',-4.77
'0:05.910',-4.93
'0:05.914',-4.27
'0:05.918',-2.58
'0:05.922',0.12
'0:05.926',3.68
'0:05.930',7.55
'0:05.934',9.46
'0:05.938',6.55
'0:05.941',1.45
'0:05.945',-2.74
'0:05.949',-6.27
'0:05.953',-9.08
'0:05.957',-10.59
'0:05.961',-10.69
'0:05.965',-9.7
'0:05.969',-7.89
'0:05.973',-5.75
'0:05.977',-3.87
'0:05.980',-2.39
'0:05.984',-1.22
'0:05.988',-0.75
'0:05.992',-0.1
'0:05.996',0.47
'0:06.000',0.77
'0:06.004',0.88
'0:06.008',0.88
'0:06.012',0.89
'0:06.016',1.71
'0:06.020',2.13
'0:06.023',2.42
'0:06.027',2.57
'0:06.031',2.84
'0:06.035',3.18
'0:06.039',3.59
'0:06.043',4.03
'0:06.047',4.24
'0:06.051',4.24
'0:06.055',4.24
'0:06.059',4.24
'0:06.063',4.05
'0:06.066',3.77
'0:06.070',3.48
'0:06.074',3.15
'0:06.078',2.96
'0:06.082',2.93
'0:06.086',2.78
'0:06.090',2.42
'0:06.094',1.96
'0:06.098',1.53
'0:06.102',1.21
'0:06.105',0.94
'0:06.109',0.64
'0:06.113',0.27
'0:06.117',0.08
'0:06.121',0.17
'0:06.125',0.36
'0:06.129',0.47
'0:06.133',0.33
'0:06.137',0.27
'0:06.141',0.35
'0:06.145',0.42
'0:06.148',0.53
'0:06.152',0.64
'0:06.156',0.59
'0:06.160',0.4
'0:06.164',0.23
'0:06.168',-0.05
'0:06.172',-0.37
'0:06.176',-0.59
'0:06.180',-0.85
'0:06.184',-1.37
'0:06.188',-2.01
'0:06.191',-2.5
'0:06.195',-2.9
'0:06.199',-3.15
'0:06.203',-3.21
'0:06.207',-3.21
'0:06.211',-3.21
'0:06.215',-3.31
'0:06.219',-3.44
'0:06.223',-3.48
'0:06.227',-3.56
'0:06.230',-3.98
'0:06.234',-4.62
'0:06.238',-4.86
'0:06.242',-4.21
'0:06.246',-2.66
'0:06.250',-0.2
'0:06.254',3.25
'0:06.258',7.5
'0:06.262',9.81
'0:06.266',7.21
'0:06.270',2.35
'0:06.273',-1.95
'0:06.277',-5.6
'0:06.281',-8.49
'0:06.285',-10.17
'0:06.289',-10.31
'0:06.293',-9.26
'0:06.297',-7.49
'0:06.301',-5.54
'0:06.305',-3.69
'0:06.309',-2.15
'0:06.313',-1.01
'0:06.316',-0.2
'0:06.320',0.21
'0:06.324',0.53
'0:06.328',0.83
'0:06.332',1.3
'0:06.336',1.74
'0:06.340',1.94
'0:06.344',2.09
'0:06.348',2.22
'0:06.352',2.43
'0:06.355',2.61
'0:06.359',3.74
'0:06.363',4.03
'0:06.367',4.88
'0:06.371',5.14
'0:06.375',5.15
'0:06.379',5.29
'0:06.383',5.29
'0:06.387',5.21
'0:06.391',4.93
'0:06.395',4.51
'0:06.398',4.12
'0:06.402',3.8
'0:06.406',3.5
'0:06.410',3.23
'0:06.414',3.04
'0:06.418',2.68
'0:06.422',2.23
'0:06.426',1.94
'0:06.430',1.7
'0:06.434',1.45
'0:06.438',1.26
'0:06.441',1.09
'0:06.445',0.77
'0:06.449',0.5
'0:06.453',0.33
'0:06.457',0.2
'0:06.461',0.13
'0:06.465',0.08
'0:06.469',0.17
'0:06.473',0.33
'0:06.477',0.51
'0:06.480',0.7
'0:06.484',0.86
'0:06.488',0.7
'0:06.492',0.37
'0:06.496',-0.01
'0:06.500',-0.44
'0:06.504',-0.69
'0:06.508',-0.86
'0:06.512',-1.07
'0:06.516',-1.44
'0:06.520',-1.89
'0:06.523',-2.41
'0:06.527',-2.88
'0:06.531',-3.17
'0:06.535',-3.42
'0:06.539',-3.53
'0:06.543',-3.49
'0:06.547',-3.23
'0:06.551',-3.06
'0:06.555',-3.35
'0:06.559',-4.05
'0:06.563',-4.67
'0:06.566',-4.99
'0:06.570',-4.57
'0:06.574',-3.31
'0:06.578',-1.05
'0:06.582',2.07
'0:06.586',5.79
'0:06.590',8.53
'0:06.594',7.14
'0:06.598',2.47
'0:06.602',-1.54
'0:06.605',-4.31
'0:06.609',-6.65
'0:06.613',-8.58
'0:06.617',-9.63
'0:06.621',-9.6
'0:06.625',-8.6
'0:06.629',-6.99
'0:06.633',-5.24
'0:06.637',-3.6
'0:06.641',-2.1
'0:06.645',-0.93
'0:06.648',-0.02
'0:06.652',0.6
'0:06.656',0.97
'0:06.660',1.18
'0:06.664',1.39
'0:06.668',1.49
'0:06.672',1.58
'0:06.676',1.71
'0:06.680',1.96
'0:06.684',2.43
'0:06.688',3.13
'0:06.691',3.56
'0:06.695',3.79
'0:06.699',3.99
'0:06.703',4.04
'0:06.707',4.1
'0:06.711',4.03
'0:06.715',4.12
'0:06.719',4.22
'0:06.723',4.27
'0:06.727',4.25
'0:06.730',4.18
'0:06.734',4.02
'0:06.738',3.63
'0:06.742',3.08
'0:06.746',2.59
'0:06.750',2.32
'0:06.754',2.23
'0:06.758',2.09
'0:06.762',1.72
'0:06.766',1.21
'0:06.770',0.86
'0:06.773',0.68
'0:06.777',0.35
'0:06.781',-0.02
'0:06.785',-0.18
'0:06.789',-0.08
'0:06.793',-0.02
'0:06.797',-0.03
'0:06.801',0.02
'0:06.805',0.4
'0:06.809',0.81
'0:06.813',0.79
'0:06.816',0.7
'0:06.820',0.44
'0:06.824',0.18
'0:06.828',-0.25
'0:06.832',-0.66
'0:06.836',-0.92
'0:06.840',-1.23
'0:06.844',-1.61
'0:06.848',-1.89
'0:06.852',-2.11
'0:06.855',-2.3
'0:06.859',-2.49
'0:06.863',-2.69
'0:06.867',-2.84
'0:06.871',-2.93
'0:06.875',-2.93
'0:06.879',-2.92
'0:06.883',-2.92
'0:06.887',-2.92
'0:06.891',-2.92
'0:06.895',-2.92
'0:06.898',-3.52
'0:06.902',-2.09
'0:06.906',0.34
'0:06.910',3.44
'0:06.914',6.85
'0:06.918',8.8
'0:06.922',6.39
'0:06.926',1.53
'0:06.930',-2.12
'0:06.934',-4.65
'0:06.938',-7.07
'0:06.941',-8.87
'0:06.945',-9.35
'0:06.949',-9.11
'0:06.953',-8.16
'0:06.957',-6.65
'0:06.961',-4.93
'0:06.965',-3.4
'0:06.969',-2.07
'0:06.973',-0.84
'0:06.977',-0.05
'0:06.980',0.4
'0:06.984',0.83
'0:06.988',1.27
'0:06.992',1.56
'0:06.996',1.7
'0:07.000',1.94
'0:07.004',2.21
'0:07.008',2.48
'0:07.012',2.7
'0:07.016',2.83
'0:07.020',3.03
'0:07.023',3.42
'0:07.027',3.71
'0:07.031',4.03
'0:07.035',4.19
'0:07.039',4.11
'0:07.043',4.02
'0:07.047',4.05
'0:07.051',4.03
'0:07.055',3.92
'0:07.059',3.67
'0:07.063',3.5
'0:07.066',3.3
'0:07.070',2.97
'0:07.074',2.62
'0:07.078',2.34
'0:07.082',1.98
'0:07.086',1.47
'0:07.090',1.18
'0:07.094',1.04
'0:07.098',0.86
'0:07.102',0.62
'0:07.105',0.4
'0:07.109',0.38
'0:07.113',0.69
'0:07.117',0.94
'0:07.121',1.03
'0:07.125',1.01
'0:07.129',0.87
'0:07.133',0.76
'0:07.137',0.94
'0:07.141',1.2
'0:07.145',1.33
'0:07.148',1.26
'0:07.152',0.83
'0:07.156',0.19
'0:07.160',-0.39
'0:07.164',-0.6
'0:07.168',-0.56
'0:07.172',-0.69
'0:07.176',-1.02
'0:07.180',-1.52
'0:07.184',-2.04
'0:07.188',-2.48
'0:07.191',-2.9
'0:07.195',-3.17
'0:07.199',-3.24
'0:07.203',-3.21
'0:07.207',-3.12
'0:07.211',-3.02
'0:07.215',-3.14
'0:07.219',-3.52
'0:07.223',-3.81
'0:07.227',-3.83
'0:07.230',-3.36
'0:07.234',-2
'0:07.238',0.6
'0:07.242',4.4
'0:07.246',8.4
'0:07.250',10.05
'0:07.254',7.41
'0:07.258',2.1
'0:07.262',-1.53
'0:07.266',-1.53
'0:07.270',-1.53
'0:07.273',-1.53
'0:07.277',-1.53
'0:07.281',-1.54
'0:07.285',-1.53
'0:07.289',-1.53
'0:07.293',-1.53
'0:07.297',-1.53
'0:07.301',-1.53
'0:07.305',-1.53
'0:07.309',-1.53
'0:07.313',-1.53
'0:07.316',-1.53
'0:07.320',-1.53
'0:07.324',-1.53
'0:07.328',-1.53
'0:07.332',-1.53
'0:07.336',-1.53
'0:07.340',-1.53
'0:07.344',-1.53
'0:07.348',-1.53
'0:07.352',-1.53
'0:07.355',-1.53
'0:07.359',-1.53
'0:07.363',-1.53
'0:07.367',-1.53
'0:07.371',-1.53
'0:07.375',-1.54
'0:07.379',-1.53
'0:07.383',-1.53
'0:07.387',-1.53
'0:07.391',5.15
'0:07.395',5.06
'0:07.398',4.76
'0:07.402',4.32
'0:07.406',3.85
'0:07.410',3.39
'0:07.414',2.89
'0:07.418',2.44
'0:07.422',2.17
'0:07.426',1.82
'0:07.430',1.64
'0:07.434',1.52
'0:07.438',1.34
'0:07.441',1.32
'0:07.445',1.47
'0:07.449',1.64
'0:07.453',1.7
'0:07.457',1.89
'0:07.461',2.06
'0:07.465',2.11
'0:07.469',1.88
'0:07.473',1.44
'0:07.477',0.98
'0:07.480',0.39
'0:07.484',-0.22
'0:07.488',-0.62
'0:07.492',-0.95
'0:07.496',-1.35
'0:07.500',-1.84
'0:07.504',-2.29
'0:07.508',-2.58
'0:07.512',-2.87
'0:07.516',-3.15
'0:07.520',-3.26
'0:07.523',-3.17
'0:07.527',-2.9
'0:07.531',-2.8
'0:07.535',-3
'0:07.539',-3.63
'0:07.543',-4.43
'0:07.547',-5.04
'0:07.551',-4.83
'0:07.555',-3.72
'0:07.559',-1.53
'0:07.563',1.66
'0:07.566',5.76
'0:07.570',9.16
'0:07.574',8.28
'0:07.578',3.58
'0:07.582',-0.94
'0:07.586',-4.78
'0:07.590',-8.07
'0:07.594',-10.27
'0:07.598',-10.8
'0:07.602',-9.87
'0:07.605',-8.1
'0:07.609',-5.98
'0:07.613',-4.07
'0:07.617',-2.56
'0:07.621',-1.38
'0:07.625',-0.31
'0:07.629',0.52
'0:07.633',1.05
'0:07.637',1.2
'0:07.641',1.19
'0:07.645',1.31
'0:07.648',1.64
'0:07.652',1.96
'0:07.656',2.29
'0:07.660',2.62
'0:07.664',2.98
'0:07.668',3.34
'0:07.672',3.71
'0:07.676',4
'0:07.680',4.28
'0:07.684',4.53
'0:07.688',4.7
'0:07.691',4.67
'0:07.695',4.6
'0:07.699',4.5
'0:07.703',4.44
'0:07.707',4.37
'0:07.711',4.23
'0:07.715',3.95
'0:07.719',3.64
'0:07.723',3.29
'0:07.727',2.81
'0:07.730',2.23
'0:07.734',1.78
'0:07.738',1.51
'0:07.742',1.25
'0:07.746',1
'0:07.750',0.66
'0:07.754',0.32
'0:07.758',0.18
'0:07.762',0.21
'0:07.766',0.27
'0:07.770',0.15
'0:07.773',0.06
'0:07.777',-0.04
'0:07.781',-0.05
'0:07.785',0.23
'0:07.789',0.5
'0:07.793',0.62
'0:07.797',0.43
'0:07.801',0.38
'0:07.805',0.4
'0:07.809',0.12
'0:07.813',-0.15
'0:07.816',-0.34
'0:07.820',-0.68
'0:07.824',-1.07
'0:07.828',-1.39
'0:07.832',-1.87
'0:07.836',-2.57
'0:07.840',-3.19
'0:07.844',-3.38
'0:07.848',-3.38
'0:07.852',-3.4
'0:07.855',-3.38
'0:07.859',-3.26
'0:07.863',-3.23
'0:07.867',-3.26
'0:07.871',-3.71
'0:07.875',-4.52
'0:07.879',-5.15
'0:07.883',-4.88
'0:07.887',-4.26
'0:07.891',-4.26
'0:07.895',6.31
'0:07.898',9.62
'0:07.902',8
'0:07.906',2.73
'0:07.910',-1.58
'0:07.914',-4.69
'0:07.918',-7.46
'0:07.922',-9.55
'0:07.926',-10.64
'0:07.930',-10.33
'0:07.934',-8.88
'0:07.938',-7.05
'0:07.941',-4.94
'0:07.945',-3.2
'0:07.949',-2.31
'0:07.953',-1.53
'0:07.957',-0.62
'0:07.961',0.23
'0:07.965',0.74
'0:07.969',1.01
'0:07.973',1.58
'0:07.977',1.77
'0:07.980',1.59
'0:07.984',1.7
'0:07.988',1.53
'0:07.992',1.5
'0:07.996',2.32
'0:08.000',3.48
'0:08.004',3.98
'0:08.008',3.86
'0:08.012',3.7
'0:08.016',3.87
'0:08.020',3.91
'0:08.023',3.77
'0:08.027',3.63
'0:08.031',3.62
'0:08.035',3.52
'0:08.039',3.46
'0:08.043',3.25
'0:08.047',2.97
'0:08.051',2.54
'0:08.055',2.1
'0:08.059',1.86
'0:08.063',1.79
'0:08.066',1.4
'0:08.070',0.72
'0:08.074',0.4
'0:08.078',0.25
'0:08.082',0.11
'0:08.086',-0.08
'0:08.090',-0.08
'0:08.094',0.09
'0:08.098',0.22
'0:08.102',0.34
'0:08.105',0.54
'0:08.109',0.71
'0:08.113',0.73
'0:08.117',0.83
'0:08.121',0.94
'0:08.125',1.16
'0:08.129',1.37
'0:08.133',1.25
'0:08.137',0.78
'0:08.141',0.18
'0:08.145',0.03
'0:08.148',0.06
'0:08.152',-0.59
'0:08.156',-1.34
'0:08.160',-1.73
'0:08.164',-1.95
'0:08.168',-2.29
'0:08.172',-2.57
'0:08.176',-2.85
'0:08.180',-3.19
'0:08.184',-3.42
'0:08.188',-3.43
'0:08.191',-3.22
'0:08.195',-3.21
'0:08.199',-3.71
'0:08.203',-4.36
'0:08.207',-4.86
'0:08.211',-5.21
'0:08.215',-4.75
'0:08.219',-3.38
'0:08.223',-0.98
'0:08.227',2.57
'0:08.230',6.25
'0:08.234',7.18
'0:08.238',3.82
'0:08.242',-0.34
'0:08.246',-3.18
'0:08.250',-5.38
'0:08.254',-7.63
'0:08.258',-9.33
'0:08.262',-9.8
'0:08.266',-9.34
'0:08.270',-8.31
'0:08.273',-6.65
'0:08.277',-4.9
'0:08.281',-3.49
'0:08.285',-2.33
'0:08.289',-1.36
'0:08.293',-0.79
'0:08.297',-0.48
'0:08.301',-0.11
'0:08.305',0.26
'0:08.309',0.53
'0:08.313',0.56
'0:08.316',0.76
'0:08.320',1.25
'0:08.324',1.65
'0:08.328',1.94
'0:08.332',2.21
'0:08.336',2.3
'0:08.340',2.33
'0:08.344',2.68
'0:08.348',3.13
'0:08.352',3.36
'0:08.355',3.26
'0:08.359',3.06
'0:08.363',2.93
'0:08.367',2.84
'0:08.371',2.87
'0:08.375',2.82
'0:08.379',2.5
'0:08.383',2.35
'0:08.387',2.44
'0:08.391',2.18
'0:08.395',1.78
'0:08.398',1.55
'0:08.402',1.18
'0:08.406',1.15
'0:08.410',1.17
'0:08.414',0.99
'0:08.418',0.66
'0:08.422',0.42
'0:08.426',0.44
'0:08.430',0.4
'0:08.434',0.41
'0:08.438',0.74
'0:08.441',1.02
'0:08.445',1.12
'0:08.449',1.3
'0:08.453',1.53
'0:08.457',1.66
'0:08.461',1.48
'0:08.465',1.14
'0:08.469',0.6
'0:08.473',0.01
'0:08.477',-0.3
'0:08.480',-0.57
'0:08.484',-0.72
'0:08.488',-1.14
'0:08.492',-1.74
'0:08.496',-2.24
'0:08.500',-2.69
'0:08.504',-2.85
'0:08.508',-2.81
'0:08.512',-2.67
'0:08.516',-2.65
'0:08.520',-2.67
'0:08.523',-2.76
'0:08.527',-3.04
'0:08.531',-3.62
'0:08.535',-4.2
'0:08.539',-4.8
'0:08.543',-4.79
'0:08.547',-3.83
'0:08.551',-1.79
'0:08.555',1.43
'0:08.559',5.78
'0:08.563',9.17
'0:08.566',8.01
'0:08.570',3.36
'0:08.574',-0.96
'0:08.578',-4.69
'0:08.582',-7.75
'0:08.586',-9.71
'0:08.590',-10.24
'0:08.594',-9.51
'0:08.598',-8.03
'0:08.602',-6.14
'0:08.605',-4.3
'0:08.609',-2.71
'0:08.613',-1.38
'0:08.617',-0.41
'0:08.621',0.37
'0:08.625',0.76
'0:08.629',0.99
'0:08.633',1.16
'0:08.637',1.56
'0:08.641',2.09
'0:08.645',2.24
'0:08.648',2.41
'0:08.652',2.47
'0:08.656',2.69
'0:08.660',2.99
'0:08.664',3.25
'0:08.668',3.69
'0:08.672',3.98
'0:08.676',4.3
'0:08.680',4.39
'0:08.684',4.32
'0:08.688',4.29
'0:08.691',4.09
'0:08.695',3.73
'0:08.699',3.59
'0:08.703',3.71
'0:08.707',3.62
'0:08.711',3.4
'0:08.715',3.06
'0:08.719',2.51
'0:08.723',2.31
'0:08.727',2.06
'0:08.730',1.73
'0:08.734',1.27
'0:08.738',0.87
'0:08.742',0.67
'0:08.746',0.48
'0:08.750',0.4
'0:08.754',0.43
'0:08.758',0.58
'0:08.762',0.75
'0:08.766',0.92
'0:08.770',0.81
'0:08.773',0.65
'0:08.777',0.73
'0:08.781',0.98
'0:08.785',1.18
'0:08.789',1.09
'0:08.793',0.8
'0:08.797',0.39
'0:08.801',-0.16
'0:08.805',-0.66
'0:08.809',-1.05
'0:08.813',-1.35
'0:08.816',-1.32
'0:08.820',-1.28
'0:08.824',-1.6
'0:08.828',-2.22
'0:08.832',-2.63
'0:08.836',-2.35
'0:08.840',-2.03
'0:08.844',-1.8
'0:08.848',-1.78
'0:08.852',-2.33
'0:08.855',-3.03
'0:08.859',-3.92
'0:08.863',-4.96
'0:08.867',-5.65
'0:08.871',-5.54
'0:08.875',-4.09
'0:08.879',-1.79
'0:08.883',1.32
'0:08.887',5.62
'0:08.891',9.07
'0:08.895',8.21
'0:08.898',3.58
'0:08.902',-1.16
'0:08.906',-5.25
'0:08.910',-8.53
'0:08.914',-10.22
'0:08.918',-10.66
'0:08.922',-9.74
'0:08.926',-8.1
'0:08.930',-6.3
'0:08.934',-4.56
'0:08.938',-2.51
'0:08.941',-0.96
'0:08.945',0.01
'0:08.949',0.59
'0:08.953',0.87
'0:08.957',1.16
'0:08.961',1.45
'0:08.965',1.7
'0:08.969',1.82
'0:08.973',2.09
'0:08.977',2.38
'0:08.980',2.7
'0:08.984',3.06
'0:08.988',3.63
'0:08.992',4.25
'0:08.996',4.77
'0:09.000',5.11
'0:09.004',5.22
'0:09.008',5.01
'0:09.012',4.85
'0:09.016',4.88
'0:09.020',4.79
'0:09.023',4.64
'0:09.027',4.54
'0:09.031',4.38
'0:09.035',4.05
'0:09.039',3.66
'0:09.043',3.27
'0:09.047',2.8
'0:09.051',2.64
'0:09.055',2.75
'0:09.059',2.64
'0:09.063',1.94
'0:09.066',1.5
'0:09.070',1.28
'0:09.074',0.9
'0:09.078',0.54
'0:09.082',0.51
'0:09.086',0.53
'0:09.090',0.34
'0:09.094',0.27
'0:09.098',0.55
'0:09.102',0.93
'0:09.105',1.31
'0:09.109',1.51
'0:09.113',1.52
'0:09.117',1.45
'0:09.121',1.26
'0:09.125',1.27
'0:09.129',1.02
'0:09.133',0.58
'0:09.137',0.28
'0:09.141',0.25
'0:09.145',-0.06
'0:09.148',-0.56
'0:09.152',-1.04
'0:09.156',-1.84
'0:09.160',-2.58
'0:09.164',-2.98
'0:09.168',-2.9
'0:09.172',-2.66
'0:09.176',-2.51
'0:09.180',-2.5
'0:09.184',-2.31
'0:09.188',-2.07
'0:09.191',-2.4
'0:09.195',-2.94
'0:09.199',-3.48
'0:09.203',-4.05
'0:09.207',-3.7
'0:09.211',-2.09
'0:09.215',0.47
'0:09.219',3.77
'0:09.223',7.2
'0:09.227',8.77
'0:09.230',5.79
'0:09.234',1.29
'0:09.238',-2.07
'0:09.242',-4.65
'0:09.246',-6.95
'0:09.250',-8.7
'0:09.254',-9.39
'0:09.258',-9.06
'0:09.262',-7.96
'0:09.266',-6.41
'0:09.270',-4.74
'0:09.273',-3.11
'0:09.277',-1.49
'0:09.281',-0.26
'0:09.285',0.24
'0:09.289',0.48
'0:09.293',1.12
'0:09.297',1.79
'0:09.301',1.75
'0:09.305',1.41
'0:09.309',1.07
'0:09.313',1.22
'0:09.316',1.47
'0:09.320',1.7
'0:09.324',2.51
'0:09.328',3.57
'0:09.332',3.96
'0:09.336',4.3
'0:09.340',4.45
'0:09.344',4.18
'0:09.348',4.03
'0:09.352',3.97
'0:09.355',4.16
'0:09.359',4.01
'0:09.363',3.47
'0:09.367',3.08
'0:09.371',2.61
'0:09.375',2.25
'0:09.379',2.36
'0:09.383',2.76
'0:09.387',2.74
'0:09.391',2.3
'0:09.395',1.78
'0:09.398',1.59
'0:09.402',1.29
'0:09.406',0.91
'0:09.410',0.3
'0:09.414',-0.22
'0:09.418',-0.27
'0:09.422',0.04
'0:09.426',0.68
'0:09.430',1.12
'0:09.434',0.5
'0:09.438',-0.43
'0:09.441',-0.91
'0:09.445',-0.79
'0:09.449',-0.25
'0:09.453',0.43
'0:09.457',0.68
'0:09.461',0.64
'0:09.465',0.67
'0:09.469',0.05
'0:09.473',-0.55
'0:09.477',-0.95
'0:09.480',-1.59
'0:09.484',-2.02
'0:09.488',-1.9
'0:09.492',-1.95
'0:09.496',-2.09
'0:09.500',-3.34
'0:09.504',-4.68
'0:09.508',-5.11
'0:09.512',-4.85
'0:09.516',-4.47
'0:09.520',-4.14
'0:09.523',-3.67
'0:09.527',-3.64
'0:09.531',-3.92
'0:09.535',-4.74
'0:09.539',-5.47
'0:09.543',-4.6
'0:09.547',-1.83
'0:09.551',2.37
'0:09.555',6.62
'0:09.559',8.6
'0:09.563',6.37
'0:09.566',1.61
'0:09.570',-2.57
'0:09.574',-5.77
'0:09.578',-8.61
'0:09.582',-10.06
'0:09.586',-10.13
'0:09.590',-9.35
'0:09.594',-8.13
'0:09.598',-6.68
'0:09.602',-4.61
'0:09.605',-3.14
'0:09.609',-2.56
'0:09.613',-2.01
'0:09.617',-1.05
'0:09.621',0.31
'0:09.625',1.26
'0:09.629',1.72
'0:09.633',0.95
'0:09.637',0.31
'0:09.641',0.61
'0:09.645',1.22
'0:09.648',1.69
'0:09.652',2.06
'0:09.656',2.58
'0:09.660',3.2
'0:09.664',3.51
'0:09.668',3.64
'0:09.672',4.29
'0:09.676',4.59
'0:09.680',4.43
'0:09.684',3.88
'0:09.688',3.36
'0:09.691',3.12
'0:09.695',3.34
'0:09.699',4.03
'0:09.703',4.29
'0:09.707',3.67
'0:09.711',2.02
'0:09.715',0.95
'0:09.719',0.87
'0:09.723',1.12
'0:09.727',1.25
'0:09.730',1.14
'0:09.734',0.85
'0:09.738',0.81
'0:09.742',0.78
'0:09.746',0.8
'0:09.750',0.99
'0:09.754',1.19
'0:09.758',1.32
'0:09.762',1.23
'0:09.766',0.95
'0:09.770',0.72
'0:09.773',1.03
'0:09.777',1.78
'0:09.781',1.87
'0:09.785',1.35
'0:09.789',1.17
'0:09.793',1.02
'0:09.797',0.4
'0:09.801',-0.11
'0:09.805',-0.68
'0:09.809',-0.98
'0:09.813',-1.35
'0:09.816',-2.1
'0:09.820',-2.77
'0:09.824',-3.13
'0:09.828',-3.21
'0:09.832',-3.1
'0:09.836',-2.98
'0:09.840',-2.69
'0:09.844',-2.44
'0:09.848',-2.47
'0:09.852',-2.98
'0:09.855',-3.56
'0:09.859',-4.07
'0:09.863',-4.08
'0:09.867',-3.39
'0:09.871',-1.46
'0:09.875',1.43
'0:09.879',5.05
'0:09.883',8.71
'0:09.887',9.78
'0:09.891',6.31
'0:09.895',1.62
'0:09.898',-2.42
'0:09.902',-5.85
'0:09.906',-8.24
'0:09.910',-9.42
'0:09.914',-9.45
'0:09.918',-8.52
'0:09.922',-6.75
'0:09.926',-4.45
'0:09.930',-2.34
'0:09.934',-0.79
'0:09.938',0.42
'0:09.941',1.09
'0:09.945',1.5
'0:09.949',1.61
'0:09.953',1.61
'0:09.957',1.88
'0:09.961',2.05
'0:09.965',2.16
'0:09.969',2.53
'0:09.973',3.8
'0:09.977',4.57
'0:09.980',4.01
'0:09.984',3.76
'0:09.988',3.83
'0:09.992',4.38
'0:09.996',5.13
'0:10.000',5.76
'0:10.004',5.92
'0:10.008',5.92
'0:10.012',5.85
'0:10.016',5.99
'0:10.020',5.96
'0:10.023',5.13
'0:10.027',4.11
'0:10.031',3.68
'0:10.035',3.45
'0:10.039',3.25
'0:10.043',2.93
'0:10.047',2.4
'0:10.051',2.06
'0:10.055',1.84
'0:10.059',1.76
'0:10.063',1.53
'0:10.066',1.11
'0:10.070',1.03
'0:10.074',1.12
'0:10.078',1.33
'0:10.082',1.48
'0:10.086',1.01
'0:10.090',0.6
'0:10.094',0.68
'0:10.098',0.66
'0:10.102',0.73
'0:10.105',0.85
'0:10.109',1.05
'0:10.113',0.97
'0:10.117',0.75
'0:10.121',0.51
'0:10.125',0.22
'0:10.129',-0.12
'0:10.133',-0.54
'0:10.137',-0.96
'0:10.141',-1.28
'0:10.145',-1.96
'0:10.148',-2.51
'0:10.152',-2.97
'0:10.156',-3.1
'0:10.160',-2.89
'0:10.164',-3.28
'0:10.168',-3.78
'0:10.172',-3.9
'0:10.176',-3.96
'0:10.180',-3.7
'0:10.184',-3.18
'0:10.188',-3.27
'0:10.191',-3.95
'0:10.195',-4.56
'0:10.199',-4.28
'0:10.203',-2.89
'0:10.207',-0.47
'0:10.211',2.93
'0:10.215',6.81
'0:10.219',9.12
'0:10.223',6.64
'0:10.227',1.49
'0:10.230',-1.9
'0:10.234',-4.07
'0:10.238',-6.78
'0:10.242',-9.18
'0:10.246',-10.25
'0:10.250',-10.02
'0:10.254',-8.82
'0:10.258',-6.8
'0:10.262',-4.61
'0:10.266',-2.8
'0:10.270',-1.47
'0:10.273',-0.67
'0:10.277',-0.51
'0:10.281',-0.46
'0:10.285',-0.25
'0:10.289',-0.14
'0:10.293',-0.12
'0:10.297',0.48
'0:10.301',1.86
'0:10.305',2.55
'0:10.309',2.67
'0:10.313',2.34
'0:10.316',1.94
'0:10.320',2.08
'0:10.324',2.54
'0:10.328',3.17
'0:10.332',3.62
'0:10.336',3.81
'0:10.340',3.89
'0:10.344',3.89
'0:10.348',3.67
'0:10.352',3.34
'0:10.355',3.31
'0:10.359',3.37
'0:10.363',3.34
'0:10.367',2.93
'0:10.371',2.47
'0:10.375',2.45
'0:10.379',1.85
'0:10.383',1.23
'0:10.387',1
'0:10.391',0.5
'0:10.395',0.63
'0:10.398',0.61
'0:10.402',0.21
'0:10.406',0.04
'0:10.410',-0.23
'0:10.414',-0.22
'0:10.418',0.25
'0:10.422',0.84
'0:10.426',1.59
'0:10.430',1.58
'0:10.434',0.67
'0:10.438',-0.31
'0:10.441',-0.4
'0:10.445',-0.03
'0:10.449',0.01
'0:10.453',-0.18
'0:10.457',-0.51
'0:10.461',-0.71
'0:10.465',-0.08
'0:10.469',0.4
'0:10.473',-0.16
'0:10.477',-1.75
'0:10.480',-2.89
'0:10.484',-3.63
'0:10.488',-3.98
'0:10.492',-4.08
'0:10.496',-3.43
'0:10.500',-1.84
'0:10.504',-1.78
'0:10.508',-3.22
'0:10.512',-4.18
'0:10.516',-4.61
'0:10.520',-5.22
'0:10.523',-5.77
'0:10.527',-5.77
'0:10.531',-4.68
'0:10.535',-3.22
'0:10.539',-1.7
'0:10.543',1.03
'0:10.547',4.89
'0:10.551',7.84
'0:10.555',7.06
'0:10.559',2.72
'0:10.563',-1.22
'0:10.566',-3.74
'0:10.570',-6.13
'0:10.574',-8.92
'0:10.578',-10.21
'0:10.582',-10.88
'0:10.586',-10.24
'0:10.590',-8.47
'0:10.594',-6.31
'0:10.598',-3.83
'0:10.602',-1.42
'0:10.605',0.11
'0:10.609',0.21
'0:10.613',0.08
'0:10.617',0.08
'0:10.621',0.15
'0:10.625',0.29
'0:10.629',0.69
'0:10.633',1.16
'0:10.637',2.05
'0:10.641',2.92
'0:10.645',3.16
'0:10.648',3.27
'0:10.652',3.02
'0:10.656',2.82
'0:10.660',3.05
'0:10.664',3.51
'0:10.668',4.32
'0:10.672',4.91
'0:10.676',4.37
'0:10.680',4.11
'0:10.684',4.16
'0:10.688',3.74
'0:10.691',3.43
'0:10.695',3.25
'0:10.699',3.13
'0:10.703',3.1
'0:10.707',3.07
'0:10.711',3.01
'0:10.715',2.66
'0:10.719',2.5
'0:10.723',2.09
'0:10.727',1.35
'0:10.730',0.94
'0:10.734',0.94
'0:10.738',1.11
'0:10.742',1.3
'0:10.746',1.62
'0:10.750',2.03
'0:10.754',2.04
'0:10.758',1.47
'0:10.762',1
'0:10.766',0.8
'0:10.770',0.85
'0:10.773',1.02
'0:10.777',1.14
'0:10.781',0.99
'0:10.785',0.54
'0:10.789',0.12
'0:10.793',-0.17
'0:10.797',-0.45
'0:10.801',-0.69
'0:10.805',-1.21
'0:10.809',-1.82
'0:10.813',-2.39
'0:10.816',-2.63
'0:10.820',-2.73
'0:10.824',-3.14
'0:10.828',-3.33
'0:10.832',-3.17
'0:10.836',-3.04
'0:10.840',-3.01
'0:10.844',-3.45
'0:10.848',-4.2
'0:10.852',-4.89
'0:10.855',-5.06
'0:10.859',-4.46
'0:10.863',-2.76
'0:10.867',0.14
'0:10.871',4.1
'0:10.875',8.24
'0:10.879',9.81
'0:10.883',6.62
'0:10.887',1.83
'0:10.891',-2.52
'0:10.895',-6.23
'0:10.898',-8.88
'0:10.902',-10.13
'0:10.906',-9.47
'0:10.910',-7.83
'0:10.914',-5.91
'0:10.918',-4.01
'0:10.922',-2.29
'0:10.926',-0.97
'0:10.930',-0.05
'0:10.934',0.45
'0:10.938',0.88
'0:10.941',1.32
'0:10.945',1.69
'0:10.949',1.92
'0:10.953',2.21
'0:10.957',2.43
'0:10.961',2.74
'0:10.965',3.24
'0:10.969',3.74
'0:10.973',4.15
'0:10.977',4.36
'0:10.980',4.34
'0:10.984',4.33
'0:10.988',4.51
'0:10.992',4.72
'0:10.996',4.83
'0:11.000',4.81
'0:11.004',4.66
'0:11.008',4.5
'0:11.012',4.29
'0:11.016',4.06
'0:11.020',3.91
'0:11.023',3.74
'0:11.027',3.53
'0:11.031',3.03
'0:11.035',2.47
'0:11.039',2.09
'0:11.043',1.84
'0:11.047',1.6
'0:11.051',1.47
'0:11.055',1.33
'0:11.059',1.2
'0:11.063',1.01
'0:11.066',0.82
'0:11.070',0.76
'0:11.074',0.85
'0:11.078',1.02
'0:11.082',1.17
'0:11.086',1.09
'0:11.090',0.8
'0:11.094',0.51
'0:11.098',0.28
'0:11.102',0.25
'0:11.105',0.23
'0:11.109',0.28
'0:11.113',0.25
'0:11.117',0.02
'0:11.121',-0.33
'0:11.125',-0.83
'0:11.129',-1.32
'0:11.133',-1.84
'0:11.137',-2.38
'0:11.141',-2.67
'0:11.145',-2.73
'0:11.148',-2.75
'0:11.152',-2.96
'0:11.156',-3.23
'0:11.160',-3.35
'0:11.164',-3.47
'0:11.168',-3.64
'0:11.172',-3.68
'0:11.176',-3.65
'0:11.180',-3.85
'0:11.184',-4.35
'0:11.188',-4.65
'0:11.191',-4.18
'0:11.195',-2.6
'0:11.199',0.28
'0:11.203',4.21
'0:11.207',8.34
'0:11.211',9.88
'0:11.215',6.32
'0:11.219',1.11
'0:11.223',-2.69
'0:11.227',-5.57
'0:11.230',-7.93
'0:11.234',-9.53
'0:11.238',-9.94
'0:11.242',-9.16
'0:11.246',-7.56
'0:11.250',-5.81
'0:11.254',-4.11
'0:11.258',-2.68
'0:11.262',-1.27
'0:11.266',-0.15
'0:11.270',0.51
'0:11.273',0.85
'0:11.277',1.11
'0:11.281',1.45
'0:11.285',1.8
'0:11.289',1.85
'0:11.293',1.91
'0:11.297',2.44
'0:11.301',2.87
'0:11.305',3.18
'0:11.309',3.64
'0:11.313',3.97
'0:11.316',4.19
'0:11.320',4.43
'0:11.324',4.58
'0:11.328',4.75
'0:11.332',4.74
'0:11.336',4.44
'0:11.340',3.97
'0:11.344',3.8
'0:11.348',3.72
'0:11.352',3.43
'0:11.355',3.13
'0:11.359',2.98
'0:11.363',3.03
'0:11.367',2.78
'0:11.371',2.06
'0:11.375',1.57
'0:11.379',1.43
'0:11.383',1.4
'0:11.387',1.1
'0:11.391',0.79
'0:11.395',0.55
'0:11.398',0.4
'0:11.402',0.28
'0:11.406',0.13
'0:11.410',0.17
'0:11.414',0.42
'0:11.418',0.58
'0:11.422',0.59
'0:11.426',0.54
'0:11.430',0.77
'0:11.434',0.92
'0:11.438',1.04
'0:11.441',1.06
'0:11.445',0.64
'0:11.449',-0.08
'0:11.453',-0.79
'0:11.457',-1.29
'0:11.461',-1.52
'0:11.465',-1.43
'0:11.469',-1.44
'0:11.473',-1.83
'0:11.477',-2.48
'0:11.480',-3.02
'0:11.484',-3.25
'0:11.488',-3.33
'0:11.492',-3.26
'0:11.496',-3.29
'0:11.500',-3.1
'0:11.504',-2.92
'0:11.508',-3.12
'0:11.512',-3.58
'0:11.516',-3.75
'0:11.520',-3.66
'0:11.523',-3.17
'0:11.527',-1.76
'0:11.531',0.43
'0:11.535',3.43
'0:11.539',6.91
'0:11.543',8.63
'0:11.547',6.01
'0:11.551',1.24
'0:11.555',-2.46
'0:11.559',-5.17
'0:11.563',-7.61
'0:11.566',-9.45
'0:11.570',-10.22
'0:11.574',-9.83
'0:11.578',-8.47
'0:11.582',-6.5
'0:11.586',-4.5
'0:11.590',-2.91
'0:11.594',-1.7
'0:11.598',-0.87
'0:11.602',-0.09
'0:11.605',0.54
'0:11.609',1.07
'0:11.613',1.36
'0:11.617',1.63
'0:11.621',1.92
'0:11.625',2.12
'0:11.629',2.38
'0:11.633',2.7
'0:11.637',2.92
'0:11.641',3.19
'0:11.645',3.5
'0:11.648',3.56
'0:11.652',3.49
'0:11.656',3.49
'0:11.660',3.67
'0:11.664',3.94
'0:11.668',4.21
'0:11.672',4.39
'0:11.676',4.49
'0:11.680',4.5
'0:11.684',4.35
'0:11.688',4.02
'0:11.691',3.57
'0:11.695',3.1
'0:11.699',2.79
'0:11.703',2.57
'0:11.707',2.43
'0:11.711',2.18
'0:11.715',1.83
'0:11.719',1.46
'0:11.723',1.26
'0:11.727',1.11
'0:11.730',0.89
'0:11.734',0.64
'0:11.738',0.52
'0:11.742',0.52
'0:11.746',0.63
'0:11.750',0.82
'0:11.754',0.92
'0:11.758',0.94
'0:11.762',1.09
'0:11.766',1.4
'0:11.770',1.58
'0:11.773',1.53
'0:11.777',1.24
'0:11.781',0.98
'0:11.785',0.54
'0:11.789',-0.06
'0:11.793',-0.65
'0:11.797',-1.17
'0:11.801',-1.67
'0:11.805',-2.15
'0:11.809',-2.4
'0:11.813',-2.74
'0:11.816',-3.08
'0:11.820',-3.19
'0:11.824',-3.29
'0:11.828',-3.19
'0:11.832',-3.03
'0:11.836',-3.03
'0:11.840',-3.35
'0:11.844',-4.01
'0:11.848',-4.67
'0:11.852',-5.03
'0:11.855',-4.65
'0:11.859',-3.25
'0:11.863',-0.7
'0:11.867',3.01
'0:11.871',7.15
'0:11.875',9.6
'0:11.879',7.35
'0:11.883',2.1
'0:11.887',-2.48
'0:11.891',-6.04
'0:11.895',-8.8
'0:11.898',-10.66
'0:11.902',-11.18
'0:11.906',-10.24
'0:11.910',-8.54
'0:11.914',-6.49
'0:11.918',-4.54
'0:11.922',-3.05
'0:11.926',-1.78
'0:11.930',-0.63
'0:11.934',0.21
'0:11.938',0.76
'0:11.941',1.08
'0:11.945',1.38
'0:11.949',1.55
'0:11.953',1.62
'0:11.957',1.64
'0:11.961',1.82
'0:11.965',2.19
'0:11.969',2.75
'0:11.973',3.16
'0:11.977',3.51
'0:11.980',3.77
'0:11.984',3.92
'0:11.988',3.87
'0:11.992',3.71
'0:11.996',3.68
'0:12.000',3.67
'0:12.004',3.56
'0:12.008',3.59
'0:12.012',3.48
'0:12.016',3.34
'0:12.020',3.34
'0:12.023',3.34
'0:12.027',3.34
'0:12.031',3.19
'0:12.035',3
'0:12.039',2.51
'0:12.043',1.95
'0:12.047',1.46
'0:12.051',0.98
'0:12.055',0.6
'0:12.059',0.45
'0:12.063',0.48
'0:12.066',0.72
'0:12.070',0.95
'0:12.074',0.98
'0:12.078',0.84
'0:12.082',0.67
'0:12.086',0.63
'0:12.090',0.7
'0:12.094',1.04
'0:12.098',1.26
'0:12.102',1.27
'0:12.105',1.14
'0:12.109',0.6
'0:12.113',-0.04
'0:12.117',-0.51
'0:12.121',-0.95
'0:12.125',-1.23
'0:12.129',-1.52
'0:12.133',-1.9
'0:12.137',-2.41
'0:12.141',-2.83
'0:12.145',-3.19
'0:12.148',-3.5
'0:12.152',-3.64
'0:12.156',-3.66
'0:12.160',-3.43
'0:12.164',-3.24
'0:12.168',-3.36
'0:12.172',-3.89
'0:12.176',-4.43
'0:12.180',-4.85
'0:12.184',-4.61
'0:12.188',-3.35
'0:12.191',-0.84
'0:12.195',2.81
'0:12.199',7.16
'0:12.203',9.45
'0:12.207',6.86
'0:12.211',2.06
'0:12.215',-2.11
'0:12.219',-5.6
'0:12.223',-8.31
'0:12.227',-9.82
'0:12.230',-9.91
'0:12.234',-8.88
'0:12.238',-7.08
'0:12.242',-4.97
'0:12.246',-3.07
'0:12.250',-1.62
'0:12.254',-0.44
'0:12.258',0.55
'0:12.262',1.38
'0:12.266',1.96
'0:12.270',2.35
'0:12.273',2.56
'0:12.277',2.6
'0:12.281',2.49
'0:12.285',2.44
'0:12.289',2.63
'0:12.293',3.01
'0:12.297',3.51
'0:12.301',3.85
'0:12.305',3.99
'0:12.309',4.16
'0:12.313',4.41
'0:12.316',4.7
'0:12.320',4.81
'0:12.324',4.78
'0:12.328',4.87
'0:12.332',4.9
'0:12.336',4.58
'0:12.340',4.14
'0:12.344',3.91
'0:12.348',3.88
'0:12.352',3.82
'0:12.355',3.26
'0:12.359',2.62
'0:12.363',2.58
'0:12.367',2.59
'0:12.371',2.43
'0:12.375',2.07
'0:12.379',1.63
'0:12.383',1.26
'0:12.387',0.94
'0:12.391',0.71
'0:12.395',0.61
'0:12.398',0.52
'0:12.402',0.42
'0:12.406',0.4
'0:12.410',0.39
'0:12.414',0.51
'0:12.418',0.68
'0:12.422',0.76
'0:12.426',0.8
'0:12.430',0.87
'0:12.434',0.84
'0:12.438',0.52
'0:12.441',-0.11
'0:12.445',-0.61
'0:12.449',-0.84
'0:12.453',-1.04
'0:12.457',-1.35
'0:12.461',-1.73
'0:12.465',-2.16
'0:12.469',-2.75
'0:12.473',-3.33
'0:12.477',-3.69
'0:12.480',-3.8
'0:12.484',-3.71
'0:12.488',-3.51
'0:12.492',-3.38
'0:12.496',-3.38
'0:12.500',-3.67
'0:12.504',-4.53
'0:12.508',-5.42
'0:12.512',-5.77
'0:12.516',-5.33
'0:12.520',-3.84
'0:12.523',-1.23
'0:12.527',2.31
'0:12.531',6.33
'0:12.535',8.81
'0:12.539',6.7
'0:12.543',1.71
'0:12.547',-2.28
'0:12.551',-5.07
'0:12.555',-7.48
'0:12.559',-9.35
'0:12.563',-10.29
'0:12.566',-9.97
'0:12.570',-8.9
'0:12.574',-7.18
'0:12.578',-5.27
'0:12.582',-3.62
'0:12.586',-2.36
'0:12.590',-1.23
'0:12.594',-0.46
'0:12.598',-0.15
'0:12.602',0.04
'0:12.605',0.42
'0:12.609',0.81
'0:12.613',1.16
'0:12.617',1.41
'0:12.621',1.53
'0:12.625',1.64
'0:12.629',2.05
'0:12.633',2.47
'0:12.637',2.72
'0:12.641',2.82
'0:12.645',3
'0:12.648',3.22
'0:12.652',3.54
'0:12.656',3.71
'0:12.660',3.59
'0:12.664',3.5
'0:12.668',3.49
'0:12.672',3.49
'0:12.676',3.33
'0:12.680',3.04
'0:12.684',2.65
'0:12.688',2.35
'0:12.691',2.07
'0:12.695',1.8
'0:12.699',1.5
'0:12.703',1.38
'0:12.707',1.07
'0:12.711',0.44
'0:12.715',0.04
'0:12.719',0.05
'0:12.723',0.08
'0:12.727',-0.15
'0:12.730',-0.29
'0:12.734',0.05
'0:12.738',0.18
'0:12.742',0.01
'0:12.746',-0.04
'0:12.750',0.05
'0:12.754',0.2
'0:12.758',0.32
'0:12.762',0.51
'0:12.766',0.59
'0:12.770',0.1
'0:12.773',-0.22
'0:12.777',-0.75
'0:12.781',-1.17
'0:12.785',-1.65
'0:12.789',-1.99
'0:12.793',-2.08
'0:12.797',-2.32
'0:12.801',-2.71
'0:12.805',-3.22
'0:12.809',-3.54
'0:12.813',-3.51
'0:12.816',-3.64
'0:12.820',-3.71
'0:12.824',-3.56
'0:12.828',-3.54
'0:12.832',-3.62
'0:12.836',-3.87
'0:12.840',-4.41
'0:12.844',-4.73
'0:12.848',-4.42
'0:12.852',-3.03
'0:12.855',-0.85
'0:12.859',1.86
'0:12.863',5.32
'0:12.867',8.34
'0:12.871',7.6
'0:12.875',3.1
'0:12.879',-0.91
'0:12.883',-3.17
'0:12.887',-5.54
'0:12.891',-7.76
'0:12.895',-9.18
'0:12.898',-9.9
'0:12.902',-9.25
'0:12.906',-7.48
'0:12.910',-5.89
'0:12.914',-4.15
'0:12.918',-2.42
'0:12.922',-1.28
'0:12.926',-0.47
'0:12.930',0.16
'0:12.934',0.46
'0:12.938',0.72
'0:12.941',0.92
'0:12.945',1.28
'0:12.949',1.58
'0:12.953',1.78
'0:12.957',1.97
'0:12.961',2.24
'0:12.965',2.25
'0:12.969',3.47
'0:12.973',3.14
'0:12.977',3.1
'0:12.980',3.21
'0:12.984',3.75
'0:12.988',4.19
'0:12.992',4.15
'0:12.996',4.19
'0:13.000',3.98
'0:13.004',3.41
'0:13.008',3.27
'0:13.012',3.16
'0:13.016',3.05
'0:13.020',2.89
'0:13.023',2.42
'0:13.027',1.94
'0:13.031',1.86
'0:13.035',1.33
'0:13.039',1.02
'0:13.043',1.14
'0:13.047',0.87
'0:13.051',1.02
'0:13.055',0.74
'0:13.059',0.21
'0:13.063',0.12
'0:13.066',0.48
'0:13.070',0.73
'0:13.074',0.89
'0:13.078',0.72
'0:13.082',0.93
'0:13.086',1.01
'0:13.090',1.05
'0:13.094',1.03
'0:13.098',1.04
'0:13.102',1.09
'0:13.105',0.95
'0:13.109',0.87
'0:13.113',0.03
'0:13.117',-0.66
'0:13.121',-1.25
'0:13.125',-2.04
'0:13.129',-2.31
'0:13.133',-1.99
'0:13.137',-2.31
'0:13.141',-3.15
'0:13.145',-3.55
'0:13.148',-3.3
'0:13.152',-2.98
'0:13.156',-3.04
'0:13.160',-2.76
'0:13.164',-2.59
'0:13.168',-3.27
'0:13.172',-4.04
'0:13.176',-4.2
'0:13.180',-3.31
'0:13.184',-1.39
'0:13.188',1.53
'0:13.191',4.8
'0:13.195',8.64
'0:13.199',10.67
'0:13.203',7.89
'0:13.207',2.48
'0:13.211',-1.76
'0:13.215',-4.47
'0:13.219',-7.16
'0:13.223',-9.33
'0:13.227',-10.33
'0:13.230',-10.23
'0:13.234',-9.04
'0:13.238',-7.05
'0:13.242',-5.38
'0:13.246',-4.02
'0:13.250',-3.05
'0:13.254',-2.08
'0:13.258',-1.2
'0:13.262',-0.37
'0:13.266',0.39
'0:13.270',0.99
'0:13.273',1.21
'0:13.277',1.27
'0:13.281',1.32
'0:13.285',1.72
'0:13.289',2.16
'0:13.293',2.46
'0:13.297',2.65
'0:13.301',2.82
'0:13.305',3.13
'0:13.309',3.52
'0:13.313',3.79
'0:13.316',4.02
'0:13.320',4.2
'0:13.324',4.08
'0:13.328',3.76
'0:13.332',3.48
'0:13.336',3.39
'0:13.340',3.32
'0:13.344',3.07
'0:13.348',2.58
'0:13.352',2.15
'0:13.355',1.88
'0:13.359',1.83
'0:13.363',1.77
'0:13.367',1.42
'0:13.371',0.79
'0:13.375',0.34
'0:13.379',0.18
'0:13.383',0.13
'0:13.387',0.21
'0:13.391',0.35
'0:13.395',0.31
'0:13.398',0.25
'0:13.402',0.37
'0:13.406',0.6
'0:13.410',0.73
'0:13.414',0.76
'0:13.418',0.9
'0:13.422',1.17
'0:13.426',1.28
'0:13.430',1
'0:13.434',0.7
'0:13.438',0.33
'0:13.441',-0.2
'0:13.445',-0.71
'0:13.449',-1.17
'0:13.453',-1.5
'0:13.457',-1.77
'0:13.461',-1.94
'0:13.465',-2.31
'0:13.469',-2.83
'0:13.473',-3.18
'0:13.477',-3.26
'0:13.480',-3.21
'0:13.484',-3.1
'0:13.488',-3.04
'0:13.492',-3.18
'0:13.496',-3.49
'0:13.500',-3.85
'0:13.504',-4.38
'0:13.508',-4.61
'0:13.512',-4.12
'0:13.516',-2.98
'0:13.520',-0.98
'0:13.523',2.05
'0:13.527',6.06
'0:13.531',9.85
'0:13.535',10.21
'0:13.539',5.64
'0:13.543',0.14
'0:13.547',-3.87
'0:13.551',-6.85
'0:13.555',-9.07
'0:13.559',-10.27
'0:13.563',-10.3
'0:13.566',-9.47
'0:13.570',-8.03
'0:13.574',-6.33
'0:13.578',-4.65
'0:13.582',-3.06
'0:13.586',-1.75
'0:13.590',-0.84
'0:13.594',-0.21
'0:13.598',0.22
'0:13.602',0.51
'0:13.605',0.7
'0:13.609',0.94
'0:13.613',1.14
'0:13.617',1.34
'0:13.621',1.59
'0:13.625',1.99
'0:13.629',2.3
'0:13.633',2.62
'0:13.637',3.03
'0:13.641',3.45
'0:13.645',3.81
'0:13.648',4.04
'0:13.652',4.03
'0:13.656',3.9
'0:13.660',3.81
'0:13.664',3.7
'0:13.668',3.46
'0:13.672',3.26
'0:13.676',3.06
'0:13.680',2.84
'0:13.684',2.64
'0:13.688',2.47
'0:13.691',2.14
'0:13.695',1.65
'0:13.699',1.3
'0:13.703',1.08
'0:13.707',0.78
'0:13.711',0.4
'0:13.715',0.21
'0:13.719',0.18
'0:13.723',0.22
'0:13.727',0.25
'0:13.730',0.43
'0:13.734',0.68
'0:13.738',0.85
'0:13.742',1
'0:13.746',1.12
'0:13.750',1.22
'0:13.754',1.27
'0:13.758',1.18
'0:13.762',0.9
'0:13.766',0.35
'0:13.770',-0.21
'0:13.773',-0.62
'0:13.777',-0.76
'0:13.781',-0.94
'0:13.785',-1.18
'0:13.789',-1.54
'0:13.793',-2.11
'0:13.797',-2.77
'0:13.801',-3.27
'0:13.805',-3.59
'0:13.809',-3.84
'0:13.813',-3.92
'0:13.816',-3.85
'0:13.820',-3.68
'0:13.824',-3.39
'0:13.828',-3.35
'0:13.832',-3.75
'0:13.836',-4.46
'0:13.840',-5.12
'0:13.844',-5.17
'0:13.848',-4.18
'0:13.852',-1.99
'0:13.855',1.34
'0:13.859',5.48
'0:13.863',8.87
'0:13.867',8.43
'0:13.871',3.76
'0:13.875',-1.07
'0:13.879',-4.73
'0:13.883',-7.71
'0:13.887',-9.75
'0:13.891',-10.53
'0:13.895',-10.09
'0:13.898',-8.88
'0:13.902',-7.18
'0:13.906',-5.32
'0:13.910',-3.51
'0:13.914',-1.98
'0:13.918',-0.72
'0:13.922',0.09
'0:13.926',0.51
'0:13.930',0.77
'0:13.934',1.08
'0:13.938',1.31
'0:13.941',1.55
'0:13.945',1.91
'0:13.949',2.28
'0:13.953',2.6
'0:13.957',2.89
'0:13.961',3.11
'0:13.965',3.41
'0:13.969',3.69
'0:13.973',3.97
'0:13.977',4.23
'0:13.980',4.37
'0:13.984',4.41
'0:13.988',4.37
'0:13.992',4.23
'0:13.996',4.08
'0:14.000',3.82
'0:14.004',3.53
'0:14.008',3.28
'0:14.012',3.08
'0:14.016',2.86
'0:14.020',2.69
'0:14.023',2.55
'0:14.027',2.3
'0:14.031',1.95
'0:14.035',1.62
'0:14.039',1.34
'0:14.043',1.05
'0:14.047',0.72
'0:14.051',0.5
'0:14.055',0.4
'0:14.059',0.25
'0:14.063',0.11
'0:14.066',0.15
'0:14.070',0.24
'0:14.074',0.34
'0:14.078',0.42
'0:14.082',0.54
'0:14.086',0.68
'0:14.090',0.74
'0:14.094',0.64
'0:14.098',0.49
'0:14.102',0.31
'0:14.105',-0.1
'0:14.109',-0.54
'0:14.113',-0.93
'0:14.117',-1.27
'0:14.121',-1.6
'0:14.125',-1.93
'0:14.129',-2.38
'0:14.133',-2.85
'0:14.137',-3.15
'0:14.141',-3.28
'0:14.145',-3.31
'0:14.148',-3.26
'0:14.152',-3.33
'0:14.156',-3.36
'0:14.160',-3.51
'0:14.164',-4.03
'0:14.168',-4.65
'0:14.172',-5.15
'0:14.176',-4.99
'0:14.180',-3.96
'0:14.184',-1.92
'0:14.188',1.1
'0:14.191',5.06
'0:14.195',8.73
'0:14.199',8.92
'0:14.203',4.58
'0:14.207',-0.07
'0:14.211',-3.63
'0:14.215',-6.77
'0:14.219',-9.08
'0:14.223',-10.09
'0:14.227',-9.75
'0:14.230',-8.45
'0:14.234',-6.65
'0:14.238',-4.79
'0:14.242',-3.04
'0:14.246',-1.7
'0:14.250',-0.7
'0:14.254',0.14
'0:14.258',0.76
'0:14.262',1.22
'0:14.266',1.59
'0:14.270',1.81
'0:14.273',1.95
'0:14.277',1.95
'0:14.281',2.01
'0:14.285',2.26
'0:14.289',2.62
'0:14.293',2.96
'0:14.297',3.42
'0:14.301',3.89
'0:14.305',4.21
'0:14.309',4.5
'0:14.313',4.63
'0:14.316',4.68
'0:14.320',4.73
'0:14.324',4.62
'0:14.328',4.4
'0:14.332',4.23
'0:14.336',4.1
'0:14.340',3.86
'0:14.344',3.54
'0:14.348',3.18
'0:14.352',2.72
'0:14.355',2.29
'0:14.359',1.98
'0:14.363',1.93
'0:14.367',1.93
'0:14.371',1.88
'0:14.375',1.67
'0:14.379',1.5
'0:14.383',1.18
'0:14.387',0.91
'0:14.391',0.69
'0:14.395',0.45
'0:14.398',0.4
'0:14.402',0.46
'0:14.406',0.58
'0:14.410',0.55
'0:14.414',0.54
'0:14.418',0.63
'0:14.422',0.69
'0:14.426',0.62
'0:14.430',0.61
'0:14.434',0.61
'0:14.438',0.39
'0:14.441',-0.06
'0:14.445',-0.51
'0:14.449',-0.91
'0:14.453',-1.18
'0:14.457',-1.49
'0:14.461',-1.99
'0:14.465',-2.6
'0:14.469',-3.1
'0:14.473',-3.36
'0:14.477',-3.31
'0:14.480',-3.24
'0:14.484',-3.17
'0:14.488',-3.09
'0:14.492',-3.11
'0:14.496',-3.46
'0:14.500',-4.04
'0:14.504',-4.61
'0:14.508',-4.9
'0:14.512',-4.53
'0:14.516',-3.24
'0:14.520',-0.82
'0:14.523',2.74
'0:14.527',7.04
'0:14.531',10.08
'0:14.535',8.52
'0:14.539',3.95
'0:14.543',-0.16
'0:14.547',-3.66
'0:14.551',-6.65
'0:14.555',-8.7
'0:14.559',-9.49
'0:14.563',-9.02
'0:14.566',-7.76
'0:14.570',-5.99
'0:14.574',-4.09
'0:14.578',-2.37
'0:14.582',-0.94
'0:14.586',0.07
'0:14.590',0.76
'0:14.594',1.19
'0:14.598',1.41
'0:14.602',1.69
'0:14.605',1.94
'0:14.609',2.03
'0:14.613',2.11
'0:14.617',2.22
'0:14.621',2.43
'0:14.625',2.86
'0:14.629',3.47
'0:14.633',4.02
'0:14.637',4.52
'0:14.641',4.8
'0:14.645',5
'0:14.648',5.12
'0:14.652',5.17
'0:14.656',5.17
'0:14.660',5.08
'0:14.664',4.84
'0:14.668',4.58
'0:14.672',4.37
'0:14.676',4.19
'0:14.680',3.85
'0:14.684',3.46
'0:14.688',3.13
'0:14.691',2.85
'0:14.695',2.53
'0:14.699',2.12
'0:14.703',1.77
'0:14.707',1.48
'0:14.711',1.17
'0:14.715',0.83
'0:14.719',0.57
'0:14.723',0.44
'0:14.727',0.28
'0:14.730',0.18
'0:14.734',0.02
'0:14.738',-0.09
'0:14.742',0.02
'0:14.746',0.13
'0:14.750',0.14
'0:14.754',0.22
'0:14.758',0.27
'0:14.762',0.3
'0:14.766',0.35
'0:14.770',0.23
'0:14.773',-0.02
'0:14.777',-0.42
'0:14.781',-0.88
'0:14.785',-1.22
'0:14.789',-1.54
'0:14.793',-1.98
'0:14.797',-2.5
'0:14.801',-3
'0:14.805',-3.42
'0:14.809',-3.69
'0:14.813',-3.76
'0:14.816',-3.63
'0:14.820',-3.46
'0:14.824',-3.39
'0:14.828',-3.45
'0:14.832',-3.9
'0:14.836',-4.65
'0:14.840',-5.19
'0:14.844',-5.24
'0:14.848',-4.52
'0:14.852',-2.82
'0:14.855',-0.07
'0:14.859',3.55
'0:14.863',7.32
'0:14.867',9.01
'0:14.871',6.09
'0:14.875',1.42
'0:14.879',-2.07
'0:14.883',-4.74
'0:14.887',-7.26
'0:14.891',-9.06
'0:14.895',-9.61
'0:14.898',-9.17
'0:14.902',-7.84
'0:14.906',-6.06
'0:14.910',-4.37
'0:14.914',-2.85
'0:14.918',-1.55
'0:14.922',-0.49
'0:14.926',0.08
'0:14.930',0.41
'0:14.934',0.68
'0:14.938',1.08
'0:14.941',1.5
'0:14.945',1.84
'0:14.949',2.23
'0:14.953',2.51
'0:14.957',2.61
'0:14.961',2.69
'0:14.965',2.94
'0:14.969',3.33
'0:14.973',3.59
'0:14.977',3.56
'0:14.980',3.61
'0:14.984',3.85
'0:14.988',4
'0:14.992',4.05
'0:14.996',4.1
'0:15.000',4.06
'0:15.004',3.89
'0:15.008',3.79
'0:15.012',3.64
'0:15.016',3.37
'0:15.020',3.29
'0:15.023',3.09
'0:15.027',2.58
'0:15.031',2.12
'0:15.035',1.75
'0:15.039',1.41
'0:15.043',1.12
'0:15.047',0.87
'0:15.051',0.62
'0:15.055',0.5
'0:15.059',0.47
'0:15.063',0.24
'0:15.066',-0.04
'0:15.070',-0.19
'0:15.074',-0.12
'0:15.078',-0.04
'0:15.082',0.1
'0:15.086',0.29
'0:15.090',0.46
'0:15.094',0.63
'0:15.098',0.59
'0:15.102',0.38
'0:15.105',0.18
'0:15.109',-0.05
'0:15.113',-0.51
'0:15.117',-0.91
'0:15.121',-1.21
'0:15.125',-1.38
'0:15.129',-1.76
'0:15.133',-2.15
'0:15.137',-2.54
'0:15.141',-2.77
'0:15.145',-2.89
'0:15.148',-2.99
'0:15.152',-3
'0:15.156',-3.11
'0:15.160',-3.11
'0:15.164',-3.13
'0:15.168',-3.38
'0:15.172',-3.73
'0:15.176',-4.28
'0:15.180',-4.54
'0:15.184',-3.82
'0:15.188',-2.24
'0:15.191',0.17
'0:15.195',3.16
'0:15.199',6.64
'0:15.203',8.98
'0:15.207',7.01
'0:15.211',2.31
'0:15.215',-1.32
'0:15.219',-3.74
'0:15.223',-5.99
'0:15.227',-8.3
'0:15.230',-9.54
'0:15.234',-9.47
'0:15.238',-8.57
'0:15.242',-6.99
'0:15.246',-5.3
'0:15.250',-3.87
'0:15.254',-2.51
'0:15.258',-1.25
'0:15.262',-0.37
'0:15.266',0.23
'0:15.270',0.76
'0:15.273',1.28
'0:15.277',1.44
'0:15.281',1.42
'0:15.285',1.49
'0:15.289',1.64
'0:15.293',1.78
'0:15.297',2.15
'0:15.301',2.64
'0:15.305',3.06
'0:15.309',3.2
'0:15.313',3.19
'0:15.316',3.38
'0:15.320',3.65
'0:15.324',3.83
'0:15.328',3.85
'0:15.332',3.66
'0:15.336',3.47
'0:15.340',3.51
'0:15.344',3.43
'0:15.348',3.41
'0:15.352',3.26
'0:15.355',2.91
'0:15.359',2.53
'0:15.363',2.02
'0:15.367',1.69
'0:15.371',1.37
'0:15.375',0.94
'0:15.379',0.88
'0:15.383',0.98
'0:15.387',0.73
'0:15.391',0.47
'0:15.395',0.44
'0:15.398',0.35
'0:15.402',0.22
'0:15.406',0.32
'0:15.410',0.4
'0:15.414',0.45
'0:15.418',0.72
'0:15.422',0.7
'0:15.426',0.57
'0:15.430',0.54
'0:15.434',0.65
'0:15.438',0.81
'0:15.441',0.88
'0:15.445',0.65
'0:15.449',0.14
'0:15.453',-0.29
'0:15.457',-0.8
'0:15.461',-1.34
'0:15.465',-1.78
'0:15.469',-2.1
'0:15.473',-2.44
'0:15.477',-2.91
'0:15.480',-3.11
'0:15.484',-3.12
'0:15.488',-3.07
'0:15.492',-3.12
'0:15.496',-3.03
'0:15.500',-2.92
'0:15.504',-2.94
'0:15.508',-3.27
'0:15.512',-3.8
'0:15.516',-4.2
'0:15.520',-3.99
'0:15.523',-2.82
'0:15.527',-0.54
'0:15.531',2.48
'0:15.535',6.45
'0:15.539',9.92
'0:15.543',10
'0:15.547',5.78
'0:15.551',0.88
'0:15.555',-2.94
'0:15.559',-5.97
'0:15.563',-8.49
'0:15.566',-9.85
'0:15.570',-10.06
'0:15.574',-9.42
'0:15.578',-8.05
'0:15.582',-6.35
'0:15.586',-4.59
'0:15.590',-3.11
'0:15.594',-1.8
'0:15.598',-0.87
'0:15.602',-0.24
'0:15.605',0.21
'0:15.609',0.76
'0:15.613',1.19
'0:15.617',1.26
'0:15.621',1.39
'0:15.625',1.56
'0:15.629',1.68
'0:15.633',1.99
'0:15.637',2.47
'0:15.641',2.78
'0:15.645',3.06
'0:15.648',3.45
'0:15.652',3.78
'0:15.656',3.85
'0:15.660',3.9
'0:15.664',3.9
'0:15.668',3.83
'0:15.672',3.62
'0:15.676',3.51
'0:15.680',3.49
'0:15.684',3.35
'0:15.688',3.15
'0:15.691',3.01
'0:15.695',2.66
'0:15.699',2.19
'0:15.703',1.68
'0:15.707',1.26
'0:15.711',0.91
'0:15.715',0.71
'0:15.719',0.62
'0:15.723',0.5
'0:15.727',0.4
'0:15.730',0.26
'0:15.734',0.08
'0:15.738',0.08
'0:15.742',0.33
'0:15.746',0.51
'0:15.750',0.52
'0:15.754',0.54
'0:15.758',0.57
'0:15.762',0.7
'0:15.766',0.96
'0:15.770',1.12
'0:15.773',1.03
'0:15.777',0.81
'0:15.781',0.43
'0:15.785',-0.08
'0:15.789',-0.52
'0:15.793',-0.95
'0:15.797',-1.3
'0:15.801',-1.5
'0:15.805',-1.81
'0:15.809',-2.25
'0:15.813',-2.69
'0:15.816',-2.98
'0:15.820',-3.22
'0:15.824',-3.45
'0:15.828',-3.44
'0:15.832',-3.25
'0:15.836',-2.98
'0:15.840',-2.85
'0:15.844',-3.15
'0:15.848',-3.75
'0:15.852',-4.28
'0:15.855',-4.21
'0:15.859',-3.25
'0:15.863',-1.31
'0:15.867',1.78
'0:15.871',5.97
'0:15.875',10.04
'0:15.879',10.86
'0:15.883',6.65
'0:15.887',1.22
'0:15.891',-2.91
'0:15.895',-6.16
'0:15.898',-8.73
'0:15.902',-10.22
'0:15.906',-10.32
'0:15.910',-9.33
'0:15.914',-7.62
'0:15.918',-5.63
'0:15.922',-3.8
'0:15.926',-2.33
'0:15.930',-1.25
'0:15.934',-0.43
'0:15.938',0.18
'0:15.941',0.6
'0:15.945',0.9
'0:15.949',1.12
'0:15.953',1.35
'0:15.957',1.58
'0:15.961',1.75
'0:15.965',2.01
'0:15.969',2.33
'0:15.973',2.72
'0:15.977',3.04
'0:15.980',3.24
'0:15.984',3.43
'0:15.988',3.73
'0:15.992',4.02
'0:15.996',4.16
'0:16.000',4.15
'0:16.004',4.01
'0:16.008',3.79
'0:16.012',3.59
'0:16.016',3.45
'0:16.020',3.3
'0:16.023',3.08
'0:16.027',2.75
'0:16.031',2.41
'0:16.035',2.16
'0:16.039',1.91
'0:16.043',1.62
'0:16.047',1.3
'0:16.051',1.03
'0:16.055',0.81
'0:16.059',0.67
'0:16.063',0.64
'0:16.066',0.62
'0:16.070',0.57
'0:16.074',0.59
'0:16.078',0.64
'0:16.082',0.64
'0:16.086',0.49
'0:16.090',0.39
'0:16.094',0.48
'0:16.098',0.68
'0:16.102',0.85
'0:16.105',0.83
'0:16.109',0.62
'0:16.113',0.36
'0:16.117',-0.01
'0:16.121',-0.46
'0:16.125',-0.9
'0:16.129',-1.32
'0:16.133',-1.73
'0:16.137',-2.11
'0:16.141',-2.47
'0:16.145',-2.96
'0:16.148',-3.35
'0:16.152',-3.57
'0:16.156',-3.63
'0:16.160',-3.56
'0:16.164',-3.48
'0:16.168',-3.46
'0:16.172',-3.52
'0:16.176',-3.9
'0:16.180',-4.51
'0:16.184',-4.91
'0:16.188',-4.83
'0:16.191',-3.97
'0:16.195',-2.1
'0:16.199',0.83
'0:16.203',4.72
'0:16.207',8.79
'0:16.211',10.29
'0:16.215',6.65
'0:16.219',1.36
'0:16.223',-2.94
'0:16.227',-6.61
'0:16.230',-9.34
'0:16.234',-10.71
'0:16.238',-10.57
'0:16.242',-9.38
'0:16.246',-7.71
'0:16.250',-5.85
'0:16.254',-4.1
'0:16.258',-2.59
'0:16.262',-1.31
'0:16.266',-0.2
'0:16.270',0.59
'0:16.273',1.04
'0:16.277',1.24
'0:16.281',1.43
'0:16.285',1.7
'0:16.289',1.95
'0:16.293',2.09
'0:16.297',2.15
'0:16.301',2.31
'0:16.305',2.61
'0:16.309',2.94
'0:16.313',3.35
'0:16.316',3.82
'0:16.320',4.16
'0:16.324',4.32
'0:16.328',4.48
'0:16.332',4.5
'0:16.336',4.37
'0:16.340',4.22
'0:16.344',4.02
'0:16.348',3.69
'0:16.352',3.32
'0:16.355',3.01
'0:16.359',2.72
'0:16.363',2.52
'0:16.367',2.3
'0:16.371',2.08
'0:16.375',1.77
'0:16.379',1.45
'0:16.383',1.16
'0:16.387',0.86
'0:16.391',0.67
'0:16.395',0.52
'0:16.398',0.36
'0:16.402',0.23
'0:16.406',0.13
'0:16.410',-0.04
'0:16.414',-0.12
'0:16.418',-0.07
'0:16.422',0.06
'0:16.426',0.22
'0:16.430',0.41
'0:16.434',0.68
'0:16.438',0.81
'0:16.441',0.77
'0:16.445',0.48
'0:16.449',0.11
'0:16.453',-0.3
'0:16.457',-0.69
'0:16.461',-0.91
'0:16.465',-1.06
'0:16.469',-1.39
'0:16.473',-1.83
'0:16.477',-2.22
'0:16.480',-2.71
'0:16.484',-3.17
'0:16.488',-3.47
'0:16.492',-3.5
'0:16.496',-3.55
'0:16.500',-3.51
'0:16.504',-3.38
'0:16.508',-3.38
'0:16.512',-3.83
'0:16.516',-4.51
'0:16.520',-5.05
'0:16.523',-4.99
'0:16.527',-4.1
'0:16.531',-2.25
'0:16.535',0.54
'0:16.539',4.38
'0:16.543',8.5
'0:16.547',9.78
'0:16.551',6.2
'0:16.555',1.37
'0:16.559',-2.64
'0:16.563',-6.19
'0:16.566',-8.84
'0:16.570',-10.23
'0:16.574',-10.08
'0:16.578',-8.83
'0:16.582',-7.01
'0:16.586',-5.1
'0:16.590',-3.44
'0:16.594',-2.13
'0:16.598',-1.01
'0:16.602',-0.08
'0:16.605',0.5
'0:16.609',0.87
'0:16.613',1.21
'0:16.617',1.37
'0:16.621',1.34
'0:16.625',1.46
'0:16.629',1.88
'0:16.633',2.45
'0:16.637',2.89
'0:16.641',3.23
'0:16.645',3.58
'0:16.648',3.87
'0:16.652',4.18
'0:16.656',4.43
'0:16.660',4.6
'0:16.664',4.69
'0:16.668',4.63
'0:16.672',4.53
'0:16.676',4.44
'0:16.680',4.3
'0:16.684',3.99
'0:16.688',3.62
'0:16.691',3.35
'0:16.695',3.25
'0:16.699',3.22
'0:16.703',3.2
'0:16.707',3.2
'0:16.711',3.2
'0:16.715',3.2
'0:16.719',3.2
'0:16.723',3.2
'0:16.727',3.2
'0:16.730',3.2
'0:16.734',3.2
'0:16.738',3.2
'0:16.742',3.19
'0:16.746',3.2
'0:16.750',3.2
'0:16.754',3.2
'0:16.758',3.2
'0:16.762',3.19
'0:16.766',3.2
'0:16.770',3.2
'0:16.773',3.2
'0:16.777',3.2
'0:16.781',3.2
'0:16.785',3.19
'0:16.789',3.2
'0:16.793',3.19
'0:16.797',3.2
'0:16.801',3.2
'0:16.805',3.2
'0:16.809',3.2
'0:16.813',3.2
'0:16.816',3.2
'0:16.820',-2.96
'0:16.824',-2.71
'0:16.828',-2.49
'0:16.832',-2.29
'0:16.836',-2.15
'0:16.840',-2.18
'0:16.844',-2.67
'0:16.848',-3.43
'0:16.852',-4.26
'0:16.855',-4.67
'0:16.859',-4.17
'0:16.863',-2.53
'0:16.867',0.31
'0:16.871',4.04
'0:16.875',8.08
'0:16.879',9.74
'0:16.883',6.61
'0:16.887',1.98
'0:16.891',-1.46
'0:16.895',-3.5
'0:16.898',-6.58
'0:16.902',-8.71
'0:16.906',-9.47
'0:16.910',-8.98
'0:16.914',-7.59
'0:16.918',-5.72
'0:16.922',-3.88
'0:16.926',-2.26
'0:16.930',-0.91
'0:16.934',0.1
'0:16.938',0.72
'0:16.941',1.08
'0:16.945',1.36
'0:16.949',1.65
'0:16.953',2.04
'0:16.957',2.42
'0:16.961',2.58
'0:16.965',2.58
'0:16.969',2.7
'0:16.973',2.96
'0:16.977',3.3
'0:16.980',3.63
'0:16.984',3.87
'0:16.988',4.2
'0:16.992',4.6
'0:16.996',4.87
'0:17.000',4.9
'0:17.004',4.81
'0:17.008',4.79
'0:17.012',4.79
'0:17.016',4.64
'0:17.020',4.38
'0:17.023',4.01
'0:17.027',3.62
'0:17.031',3.35
'0:17.035',3.01
'0:17.039',2.65
'0:17.043',2.22
'0:17.047',1.77
'0:17.051',1.37
'0:17.055',1.11
'0:17.059',0.82
'0:17.063',0.55
'0:17.066',0.38
'0:17.070',0.3
'0:17.074',0.18
'0:17.078',-0.01
'0:17.082',-0.23
'0:17.086',-0.42
'0:17.090',-0.58
'0:17.094',-0.51
'0:17.098',-0.29
'0:17.102',-0.05
'0:17.105',0.22
'0:17.109',0.5
'0:17.113',0.69
'0:17.117',0.57
'0:17.121',0.22
'0:17.125',-0.31
'0:17.129',-0.71
'0:17.133',-0.94
'0:17.137',-1.2
'0:17.141',-1.59
'0:17.145',-1.96
'0:17.148',-2.39
'0:17.152',-2.81
'0:17.156',-3.2
'0:17.160',-3.37
'0:17.164',-3.37
'0:17.168',-3.33
'0:17.172',-3.31
'0:17.176',-3.23
'0:17.180',-3.17
'0:17.184',-3.44
'0:17.188',-4.09
'0:17.191',-4.83
'0:17.195',-5.11
'0:17.199',-4.56
'0:17.203',-2.96
'0:17.207',-0.39
'0:17.211',3.14
'0:17.215',6.95
'0:17.219',8.91
'0:17.223',6.4
'0:17.227',1.73
'0:17.230',-1.73
'0:17.234',-4.28
'0:17.238',-6.86
'0:17.242',-8.87
'0:17.246',-9.83
'0:17.250',-9.66
'0:17.254',-8.46
'0:17.258',-6.56
'0:17.262',-4.67
'0:17.266',-2.97
'0:17.270',-1.88
'0:17.273',-1.11
'0:17.277',-0.58
'0:17.281',-0.09
'0:17.285',0.56
'0:17.289',1.09
'0:17.293',1.45
'0:17.297',1.67
'0:17.301',1.87
'0:17.305',2.12
'0:17.309',2.17
'0:17.313',2.28
'0:17.316',2.74
'0:17.320',3.26
'0:17.324',3.53
'0:17.328',3.64
'0:17.332',3.78
'0:17.336',3.94
'0:17.340',3.98
'0:17.344',4.12
'0:17.348',4.15
'0:17.352',3.95
'0:17.355',3.95
'0:17.359',3.95
'0:17.363',3.95
'0:17.367',3.95
'0:17.371',3.89
'0:17.375',3.1
'0:17.379',2.64
'0:17.383',2.17
'0:17.387',1.86
'0:17.391',1.86
'0:17.395',1.86
'0:17.398',1.86
'0:17.402',1.86
'0:17.406',1.85
'0:17.410',1.86
'0:17.414',1.86
'0:17.418',-0.22
'0:17.422',-0.08
'0:17.426',0.19
'0:17.430',0.21
'0:17.434',0.1
'0:17.438',0.06
'0:17.441',0.1
'0:17.445',0.24
'0:17.449',0.37
'0:17.453',0.35
'0:17.457',0.3
'0:17.461',0.18
'0:17.465',-0.13
'0:17.469',-0.59
'0:17.473',-0.98
'0:17.477',-1.21
'0:17.480',-1.43
'0:17.484',-1.64
'0:17.488',-2.07
'0:17.492',-2.78
'0:17.496',-3.44
'0:17.500',-3.57
'0:17.504',-3.69
'0:17.508',-3.85
'0:17.512',-3.68
'0:17.516',-3.3
'0:17.520',-2.93
'0:17.523',-2.98
'0:17.527',-3.64
'0:17.531',-4.39
'0:17.535',-4.67
'0:17.539',-3.89
'0:17.543',-2.17
'0:17.547',0.46
'0:17.551',4.19
'0:17.555',8.06
'0:17.559',9.64
'0:17.563',6.39
'0:17.566',1.53
'0:17.570',-2.05
'0:17.574',-4.67
'0:17.578',-7.09
'0:17.582',-8.82
'0:17.586',-9.7
'0:17.590',-9.59
'0:17.594',-8.54
'0:17.598',-6.84
'0:17.602',-4.85
'0:17.605',-3.18
'0:17.609',-2.11
'0:17.613',-1.34
'0:17.617',-0.6
'0:17.621',0.13
'0:17.625',0.6
'0:17.629',0.88
'0:17.633',1.33
'0:17.637',1.75
'0:17.641',1.85
'0:17.645',1.95
'0:17.648',2.01
'0:17.652',2.12
'0:17.656',2.33
'0:17.660',2.75
'0:17.664',3.11
'0:17.668',3.53
'0:17.672',3.8
'0:17.676',3.78
'0:17.680',3.99
'0:17.684',4.17
'0:17.688',4.02
'0:17.691',3.96
'0:17.695',3.78
'0:17.699',3.78
'0:17.703',3.78
'0:17.707',3.78
'0:17.711',3.78
'0:17.715',3.78
'0:17.719',3.78
'0:17.723',3.78
'0:17.727',1.76
'0:17.730',1.34
'0:17.734',0.7
'0:17.738',0.21
'0:17.742',-0.08
'0:17.746',0.04
'0:17.750',0.22
'0:17.754',0.51
'0:17.758',0.62
'0:17.762',0.61
'0:17.766',0.65
'0:17.770',0.49
'0:17.773',0.39
'0:17.777',0.58
'0:17.781',0.99
'0:17.785',1.12
'0:17.789',0.98
'0:17.793',0.76
'0:17.797',0.47
'0:17.801',-0.07
'0:17.805',-0.43
'0:17.809',-0.58
'0:17.813',-0.81
'0:17.816',-1.37
'0:17.820',-1.63
'0:17.824',-2.06
'0:17.828',-2.69
'0:17.832',-2.87
'0:17.836',-2.96
'0:17.840',-3.13
'0:17.844',-3
'0:17.848',-2.5
'0:17.852',-2.36
'0:17.855',-2.69
'0:17.859',-3.1
'0:17.863',-3.48
'0:17.867',-3.6
'0:17.871',-3.49
'0:17.875',-2.68
'0:17.879',-0.62
'0:17.883',2.33
'0:17.887',6.06
'0:17.891',9.99
'0:17.895',11.35
'0:17.898',7.67
'0:17.902',2.26
'0:17.906',-2.04
'0:17.910',-5.28
'0:17.914',-7.94
'0:17.918',-9.41
'0:17.922',-9.86
'0:17.926',-9.35
'0:17.930',-7.92
'0:17.934',-6.42
'0:17.938',-4.98
'0:17.941',-3.41
'0:17.945',-1.89
'0:17.949',-0.75
'0:17.953',-0.14
'0:17.957',0.24
'0:17.961',0.48
'0:17.965',0.7
'0:17.969',1.2
'0:17.973',1.54
'0:17.977',1.68
'0:17.980',1.85
'0:17.984',2.17
'0:17.988',2.53
'0:17.992',2.79
'0:17.996',3.03
'0:18.000',3.36
'0:18.004',3.78
'0:18.008',4.02
'0:18.012',4.07
'0:18.016',4.1
'0:18.020',4
'0:18.023',3.86
'0:18.027',3.76
'0:18.031',3.44
'0:18.035',3.17
'0:18.039',2.89
'0:18.043',2.64
'0:18.047',2.36
'0:18.051',2.04
'0:18.055',1.74
'0:18.059',1.45
'0:18.063',1.26
'0:18.066',1.2
'0:18.070',1.08
'0:18.074',0.72
'0:18.078',0.44
'0:18.082',0.25
'0:18.086',0.27
'0:18.090',0.31
'0:18.094',0.35
'0:18.098',0.37
'0:18.102',0.51
'0:18.105',0.68
'0:18.109',0.73
'0:18.113',0.78
'0:18.117',0.93
'0:18.121',1.07
'0:18.125',1.2
'0:18.129',1.11
'0:18.133',0.82
'0:18.137',0.43
'0:18.141',0.01
'0:18.145',-0.4
'0:18.148',-0.79
'0:18.152',-1.21
'0:18.156',-1.69
'0:18.160',-2.08
'0:18.164',-2.47
'0:18.168',-2.84
'0:18.172',-3.15
'0:18.176',-3.21
'0:18.180',-3.05
'0:18.184',-2.83
'0:18.188',-2.74
'0:18.191',-2.73
'0:18.195',-2.82
'0:18.199',-3.22
'0:18.203',-3.74
'0:18.207',-4.09
'0:18.211',-3.81
'0:18.215',-2.76
'0:18.219',-0.55
'0:18.223',2.87
'0:18.227',7.32
'0:18.230',11.04
'0:18.234',10.64
'0:18.238',5.64
'0:18.242',0.33
'0:18.246',-3.63
'0:18.250',-6.86
'0:18.254',-9.39
'0:18.258',-10.6
'0:18.262',-10.34
'0:18.266',-9.26
'0:18.270',-7.67
'0:18.273',-5.86
'0:18.277',-4.06
'0:18.281',-2.55
'0:18.285',-1.35
'0:18.289',-0.47
'0:18.293',0.05
'0:18.297',0.43
'0:18.301',0.79
'0:18.305',1.15
'0:18.309',1.41
'0:18.313',1.63
'0:18.316',1.81
'0:18.320',1.92
'0:18.324',2.09
'0:18.328',2.4
'0:18.332',2.75
'0:18.336',3.19
'0:18.340',3.72
'0:18.344',4.19
'0:18.348',4.43
'0:18.352',4.51
'0:18.355',4.53
'0:18.359',4.35
'0:18.363',3.89
'0:18.367',3.35
'0:18.371',2.98
'0:18.375',2.79
'0:18.379',2.62
'0:18.383',2.42
'0:18.387',2.2
'0:18.391',2.01
'0:18.395',1.86
'0:18.398',1.62
'0:18.402',1.25
'0:18.406',0.98
'0:18.410',0.76
'0:18.414',0.54
'0:18.418',0.33
'0:18.422',0.15
'0:18.426',0.06
'0:18.430',0.08
'0:18.434',0.25
'0:18.438',0.44
'0:18.441',0.61
'0:18.445',0.75
'0:18.449',0.9
'0:18.453',1.01
'0:18.457',1.14
'0:18.461',1.14
'0:18.465',0.96
'0:18.469',0.67
'0:18.473',0.28
'0:18.477',-0.18
'0:18.480',-0.59
'0:18.484',-1.05
'0:18.488',-1.5
'0:18.492',-1.91
'0:18.496',-2.33
'0:18.500',-2.88
'0:18.504',-3.37
'0:18.508',-3.71
'0:18.512',-3.8
'0:18.516',-3.68
'0:18.520',-3.46
'0:18.523',-3.28
'0:18.527',-3.26
'0:18.531',-3.47
'0:18.535',-3.96
'0:18.539',-4.47
'0:18.543',-4.77
'0:18.547',-4.42
'0:18.551',-3.12
'0:18.555',-0.68
'0:18.559',2.82
'0:18.563',6.97
'0:18.566',9.96
'0:18.570',8.45
'0:18.574',3.27
'0:18.578',-1.55
'0:18.582',-5.32
'0:18.586',-8.39
'0:18.590',-10.29
'0:18.594',-10.65
'0:18.598',-9.68
'0:18.602',-8.01
'0:18.605',-6.11
'0:18.609',-4.28
'0:18.613',-2.78
'0:18.617',-1.61
'0:18.621',-0.69
'0:18.625',-0.03
'0:18.629',0.53
'0:18.633',0.87
'0:18.637',1.12
'0:18.641',1.45
'0:18.645',1.59
'0:18.648',1.71
'0:18.652',1.93
'0:18.656',2.12
'0:18.660',2.41
'0:18.664',2.81
'0:18.668',3.23
'0:18.672',3.62
'0:18.676',3.9
'0:18.680',4.14
'0:18.684',4.31
'0:18.688',4.35
'0:18.691',4.27
'0:18.695',4.1
'0:18.699',3.83
'0:18.703',3.59
'0:18.707',3.37
'0:18.711',3.17
'0:18.715',2.88
'0:18.719',2.72
'0:18.723',2.33
'0:18.727',2.08
'0:18.730',1.82
'0:18.734',1.61
'0:18.738',1.51
'0:18.742',1.35
'0:18.746',1.07
'0:18.750',0.75
'0:18.754',0.5
'0:18.758',0.37
'0:18.762',0.33
'0:18.766',0.28
'0:18.770',0.27
'0:18.773',0.27
'0:18.777',0.27
'0:18.781',0.27
'0:18.785',0.27
'0:18.789',0.28
'0:18.793',0.27
'0:18.797',0.27
'0:18.801',0.27
'0:18.805',0.28
'0:18.809',0.11
'0:18.813',-0.3
'0:18.816',-0.62
'0:18.820',-0.95
'0:18.824',-1.37
'0:18.828',-1.74
'0:18.832',-2.11
'0:18.836',-2.45
'0:18.840',-2.79
'0:18.844',-3.18
'0:18.848',-3.42
'0:18.852',-3.43
'0:18.855',-3.38
'0:18.859',-3.24
'0:18.863',-3.14
'0:18.867',-3.28
'0:18.871',-3.88
'0:18.875',-4.7
'0:18.879',-5.27
'0:18.883',-5
'0:18.887',-3.63
'0:18.891',-1.14
'0:18.895',2.35
'0:18.898',6.63
'0:18.902',10.08
'0:18.906',9.29
'0:18.910',4.41
'0:18.914',-0.43
'0:18.918',-4.25
'0:18.922',-7.38
'0:18.926',-9.41
'0:18.930',-10.2
'0:18.934',-9.73
'0:18.938',-8.36
'0:18.941',-6.5
'0:18.945',-4.64
'0:18.949',-3.03
'0:18.953',-1.78
'0:18.957',-0.89
'0:18.961',-0.24
'0:18.965',0.21
'0:18.969',0.63
'0:18.973',1.01
'0:18.977',1.31
'0:18.980',1.64
'0:18.984',1.76
'0:18.988',1.93
'0:18.992',2.09
'0:18.996',2.39
'0:19.000',2.85
'0:19.004',3.12
'0:19.008',3.29
'0:19.012',3.65
'0:19.016',4.02
'0:19.020',4.26
'0:19.023',4.41
'0:19.027',4.41
'0:19.031',4.39
'0:19.035',4.31
'0:19.039',4.09
'0:19.043',3.79
'0:19.047',3.47
'0:19.051',3.28
'0:19.055',3.01
'0:19.059',2.78
'0:19.063',2.51
'0:19.066',2.28
'0:19.070',2.08
'0:19.074',1.94
'0:19.078',1.72
'0:19.082',1.41
'0:19.086',1.06
'0:19.090',0.59
'0:19.094',0.16
'0:19.098',0.03
'0:19.102',0.15
'0:19.105',0.29
'0:19.109',0.44
'0:19.113',0.49
'0:19.117',0.44
'0:19.121',0.43
'0:19.125',0.53
'0:19.129',0.73
'0:19.133',0.86
'0:19.137',0.88
'0:19.141',0.69
'0:19.145',0.41
'0:19.148',0.09
'0:19.152',-0.23
'0:19.156',-0.55
'0:19.160',-0.91
'0:19.164',-1.45
'0:19.168',-2
'0:19.172',-2.42
'0:19.176',-2.84
'0:19.180',-3.27
'0:19.184',-3.45
'0:19.188',-3.39
'0:19.191',-3.24
'0:19.195',-3.16
'0:19.199',-3.19
'0:19.203',-3.24
'0:19.207',-3.5
'0:19.211',-4.1
'0:19.215',-4.64
'0:19.219',-4.68
'0:19.223',-4.02
'0:19.227',-2.31
'0:19.230',0.54
'0:19.234',4.38
'0:19.238',8.4
'0:19.242',9.64
'0:19.246',6.08
'0:19.250',1.35
'0:19.254',-2.26
'0:19.258',-5.34
'0:19.262',-7.83
'0:19.266',-9.27
'0:19.270',-9.42
'0:19.273',-8.43
'0:19.277',-6.77
'0:19.281',-4.89
'0:19.285',-3.11
'0:19.289',-1.64
'0:19.293',-0.46
'0:19.297',0.4
'0:19.301',0.87
'0:19.305',1.17
'0:19.309',1.48
'0:19.313',1.77
'0:19.316',2.04
'0:19.320',2.25
'0:19.324',2.48
'0:19.328',2.7
'0:19.332',2.81
'0:19.336',2.98
'0:19.340',3.38
'0:19.344',3.82
'0:19.348',4.16
'0:19.352',4.48
'0:19.355',4.75
'0:19.359',4.87
'0:19.363',4.81
'0:19.367',4.62
'0:19.371',4.42
'0:19.375',4.33
'0:19.379',4.22
'0:19.383',3.94
'0:19.387',3.6
'0:19.391',3.3
'0:19.395',3.01
'0:19.398',2.72
'0:19.402',2.35
'0:19.406',2.06
'0:19.410',1.79
'0:19.414',1.49
'0:19.418',1.26
'0:19.422',0.94
'0:19.426',0.52
'0:19.430',0.21
'0:19.434',-0.01
'0:19.438',-0.18
'0:19.441',-0.2
'0:19.445',-0.07
'0:19.449',0
'0:19.453',-0.1
'0:19.457',-0.31
'0:19.461',-0.45
'0:19.465',-0.27
'0:19.469',0.1
'0:19.473',0.28
'0:19.477',0.37
'0:19.480',0.51
'0:19.484',0.54
'0:19.488',0.05
'0:19.492',-0.59
'0:19.496',-1.06
'0:19.500',-1.45
'0:19.504',-1.91
'0:19.508',-2.3
'0:19.512',-2.61
'0:19.516',-2.98
'0:19.520',-3.37
'0:19.523',-3.55
'0:19.527',-3.67
