'0:00.000',6.12
'0:00.004',5.84
'0:00.008',5.59
'0:00.012',5.1
'0:00.016',4.38
'0:00.020',3.26
'0:00.023',2.21
'0:00.027',1.11
'0:00.031',0.14
'0:00.035',-0.37
'0:00.039',-0.33
'0:00.043',0.02
'0:00.047',0.14
'0:00.051',-0.54
'0:00.055',-0.91
'0:00.059',-0.97
'0:00.063',-1.02
'0:00.066',-1.16
'0:00.070',-1.16
'0:00.074',-1.25
'0:00.078',-1.47
'0:00.082',-1.67
'0:00.086',-1.94
'0:00.090',-2.18
'0:00.094',-2.13
'0:00.098',-1.84
'0:00.102',-1.77
'0:00.105',-2.35
'0:00.109',-3.4
'0:00.113',-4.18
'0:00.117',-4.78
'0:00.121',-5.03
'0:00.125',-5.18
'0:00.129',-5.26
'0:00.133',-5.17
'0:00.137',-5.24
'0:00.141',-5.74
'0:00.145',-6.24
'0:00.148',-6.52
'0:00.152',-6.21
'0:00.156',-5.14
'0:00.160',-2.81
'0:00.164',1.51
'0:00.168',7.64
'0:00.172',14.09
'0:00.176',18.99
'0:00.180',21.97
'0:00.184',21.28
'0:00.188',15.07
'0:00.191',5.71
'0:00.195',-2.41
'0:00.199',-7.57
'0:00.203',-10.1
'0:00.207',-11.06
'0:00.211',-11.14
'0:00.215',-10.72
'0:00.219',-10.07
'0:00.223',-9.17
'0:00.227',-8.2
'0:00.230',-7.37
'0:00.234',-6.72
'0:00.238',-6.35
'0:00.242',-5.94
'0:00.246',-5.44
'0:00.250',-4.85
'0:00.254',-4.35
'0:00.258',-4.09
'0:00.262',-3.83
'0:00.266',-3.54
'0:00.270',-3.03
'0:00.273',-2.31
'0:00.277',-1.62
'0:00.281',-0.9
'0:00.285',-0.23
'0:00.289',0.62
'0:00.293',1.26
'0:00.297',1.78
'0:00.301',2.31
'0:00.305',2.99
'0:00.309',3.58
'0:00.313',3.83
'0:00.316',3.88
'0:00.320',3.84
'0:00.324',3.76
'0:00.328',3.57
'0:00.332',2.81
'0:00.336',1.82
'0:00.340',1.19
'0:00.344',0.92
'0:00.348',0.52
'0:00.352',0.06
'0:00.355',-0.09
'0:00.359',-0.35
'0:00.363',-0.42
'0:00.367',-0.11
'0:00.371',0.1
'0:00.375',0.29
'0:00.379',0.55
'0:00.383',0.88
'0:00.387',1.24
'0:00.391',1.37
'0:00.395',1.3
'0:00.398',1.38
'0:00.402',1.55
'0:00.406',1.52
'0:00.410',0.96
'0:00.414',0.16
'0:00.418',-0.58
'0:00.422',-1.05
'0:00.426',-1.35
'0:00.430',-1.5
'0:00.434',-1.94
'0:00.438',-2.2
'0:00.441',-2.31
'0:00.445',-2.36
'0:00.449',-2.26
'0:00.453',-2.15
'0:00.457',-2.33
'0:00.461',-2.51
'0:00.465',-2.09
'0:00.469',-1.13
'0:00.473',0.62
'0:00.477',4.14
'0:00.480',9.38
'0:00.484',14.8
'0:00.488',19.36
'0:00.492',22.74
'0:00.496',23.13
'0:00.500',17.47
'0:00.504',7.44
'0:00.508',-1.4
'0:00.512',-6.9
'0:00.516',-9.73
'0:00.520',-10.62
'0:00.523',-10.52
'0:00.527',-9.81
'0:00.531',-9.02
'0:00.535',-8.57
'0:00.539',-7.95
'0:00.543',-6.99
'0:00.547',-6.26
'0:00.551',-5.94
'0:00.555',-5.64
'0:00.559',-5.19
'0:00.563',-4.62
'0:00.566',-3.9
'0:00.570',-3.27
'0:00.574',-2.89
'0:00.578',-2.66
'0:00.582',-2.42
'0:00.586',-2.15
'0:00.590',-1.78
'0:00.594',-1.25
'0:00.598',-0.38
'0:00.602',0.36
'0:00.605',0.99
'0:00.609',1.84
'0:00.613',2.37
'0:00.617',2.86
'0:00.621',3.28
'0:00.625',3.33
'0:00.629',3.07
'0:00.633',2.54
'0:00.637',2.13
'0:00.641',1.84
'0:00.645',1.32
'0:00.648',0.78
'0:00.652',0.29
'0:00.656',-0.24
'0:00.660',-0.47
'0:00.664',-0.74
'0:00.668',-0.94
'0:00.672',-0.79
'0:00.676',-0.49
'0:00.680',-0.18
'0:00.684',0.09
'0:00.688',0.24
'0:00.691',0.35
'0:00.695',0.42
'0:00.699',0.66
'0:00.703',1.35
'0:00.707',1.87
'0:00.711',1.8
'0:00.715',1.42
'0:00.719',0.98
'0:00.723',0.59
'0:00.727',-0.23
'0:00.730',-0.6
'0:00.734',-0.95
'0:00.738',-1.36
'0:00.742',-1.68
'0:00.746',-1.99
'0:00.750',-2.18
'0:00.754',-2.26
'0:00.758',-2.06
'0:00.762',-1.66
'0:00.766',-1.4
'0:00.770',-1.23
'0:00.773',-1.46
'0:00.777',-1.59
'0:00.781',-1.29
'0:00.785',-0.42
'0:00.789',1.88
'0:00.793',6.65
'0:00.797',12.53
'0:00.801',18.02
'0:00.805',22.38
'0:00.809',24.54
'0:00.813',22.38
'0:00.816',14.95
'0:00.820',6.12
'0:00.824',-0.53
'0:00.828',-4.81
'0:00.832',-7.08
'0:00.836',-7.83
'0:00.840',-7.9
'0:00.844',-7.32
'0:00.848',-6.81
'0:00.852',-6.81
'0:00.855',-6.57
'0:00.859',-6.36
'0:00.863',-6.36
'0:00.867',-5.92
'0:00.871',-5.3
'0:00.875',-4.56
'0:00.879',-3.87
'0:00.883',-3.17
'0:00.887',-2.72
'0:00.891',-2.65
'0:00.895',-2.63
'0:00.898',-2.54
'0:00.902',-2.03
'0:00.906',-1.48
'0:00.910',-0.78
'0:00.914',-0.22
'0:00.918',0.38
'0:00.922',0.95
'0:00.926',1.62
'0:00.930',1.94
'0:00.934',2.07
'0:00.938',2.44
'0:00.941',2.84
'0:00.945',2.79
'0:00.949',2.57
'0:00.953',2.3
'0:00.957',1.79
'0:00.961',0.83
'0:00.965',-0.03
'0:00.969',-0.63
'0:00.973',-0.89
'0:00.977',-0.96
'0:00.980',-0.91
'0:00.984',-0.93
'0:00.988',-1.24
'0:00.992',-0.99
'0:00.996',-0.58
'0:01.000',-0.09
'0:01.004',-0.13
'0:01.008',-0.36
'0:01.012',-0.51
'0:01.016',-0.57
'0:01.020',-0.72
'0:01.023',-0.78
'0:01.027',-0.69
'0:01.031',-0.65
'0:01.035',-0.65
'0:01.039',-0.72
'0:01.043',-1
'0:01.047',-1.32
'0:01.051',-1.61
'0:01.055',-2.03
'0:01.059',-2.33
'0:01.063',-2.52
'0:01.066',-2.65
'0:01.070',-2.44
'0:01.074',-2.2
'0:01.078',-1.98
'0:01.082',-1.97
'0:01.086',-2.38
'0:01.090',-3.11
'0:01.094',-3.38
'0:01.098',-2.84
'0:01.102',-1.35
'0:01.105',1.57
'0:01.109',6.41
'0:01.113',12.4
'0:01.117',17.91
'0:01.121',21.73
'0:01.125',23.65
'0:01.129',21.93
'0:01.133',15.06
'0:01.137',6.05
'0:01.141',-1.3
'0:01.145',-5.94
'0:01.148',-8.42
'0:01.152',-9.49
'0:01.156',-9.71
'0:01.160',-9.49
'0:01.164',-9
'0:01.168',-8.16
'0:01.172',-7.54
'0:01.176',-7.24
'0:01.180',-6.96
'0:01.184',-6.59
'0:01.188',-6.04
'0:01.191',-5.57
'0:01.195',-5.06
'0:01.199',-4.45
'0:01.203',-3.79
'0:01.207',-3.06
'0:01.211',-2.5
'0:01.215',-2.22
'0:01.219',-2.03
'0:01.223',-1.79
'0:01.227',-1.41
'0:01.230',-0.92
'0:01.234',-0.3
'0:01.238',0.47
'0:01.242',1.16
'0:01.246',1.75
'0:01.250',2.27
'0:01.254',2.8
'0:01.258',3.26
'0:01.262',3.35
'0:01.266',3.04
'0:01.270',2.44
'0:01.273',1.92
'0:01.277',1.47
'0:01.281',0.72
'0:01.285',0.01
'0:01.289',-0.83
'0:01.293',-1.62
'0:01.297',-2.36
'0:01.301',-2.65
'0:01.305',-2.73
'0:01.309',-2.62
'0:01.313',-2.35
'0:01.316',-1.99
'0:01.320',-1.49
'0:01.324',-1.01
'0:01.328',-0.62
'0:01.332',-0.53
'0:01.336',-0.4
'0:01.340',-0.17
'0:01.344',0.11
'0:01.348',0.47
'0:01.352',0.93
'0:01.355',1.01
'0:01.359',0.53
'0:01.363',0.1
'0:01.367',-0.18
'0:01.371',-0.46
'0:01.375',-0.65
'0:01.379',-0.74
'0:01.383',-0.44
'0:01.387',3.69
'0:01.391',10.86
'0:01.395',16.8
'0:01.398',20.34
'0:01.402',21.98
'0:01.406',22.26
'0:01.410',21.44
'0:01.414',20.9
'0:01.418',21.26
'0:01.422',23.09
'0:01.426',27.2
'0:01.430',32.47
'0:01.434',36.52
'0:01.438',38.25
'0:01.441',38.24
'0:01.445',36.47
'0:01.449',29.53
'0:01.453',19.27
'0:01.457',10.65
'0:01.461',5.5
'0:01.465',3.13
'0:01.469',2.04
'0:01.473',1.21
'0:01.477',0.79
'0:01.480',0.69
'0:01.484',0.53
'0:01.488',0.11
'0:01.492',-0.19
'0:01.496',-0.02
'0:01.500',0.4
'0:01.504',0.73
'0:01.508',0.64
'0:01.512',-0.8
'0:01.516',-1.22
'0:01.520',-1.42
'0:01.523',-1.46
'0:01.527',-1.32
'0:01.531',-1.03
'0:01.535',-0.71
'0:01.539',-0.39
'0:01.543',-0.12
'0:01.547',-0.05
'0:01.551',0.62
'0:01.555',1.37
'0:01.559',1.49
'0:01.563',1.56
'0:01.566',1.61
'0:01.570',1.23
'0:01.574',0.16
'0:01.578',-0.88
'0:01.582',-1.83
'0:01.586',-2.4
'0:01.590',-2.68
'0:01.594',-3.18
'0:01.598',-3.81
'0:01.602',-4.62
'0:01.605',-5.44
'0:01.609',-5.95
'0:01.613',-6.1
'0:01.617',-5.79
'0:01.621',-5.31
'0:01.625',-4.98
'0:01.629',-5.02
'0:01.633',-5.15
'0:01.637',-5.1
'0:01.641',-4.83
'0:01.645',-4.9
'0:01.648',-4.64
'0:01.652',-3.78
'0:01.656',-3.39
'0:01.660',-3.5
'0:01.664',-3.96
'0:01.668',-4.94
'0:01.672',-5.89
'0:01.676',-6.07
'0:01.680',-6
'0:01.684',-6.52
'0:01.688',-6.93
'0:01.691',-6.98
'0:01.695',-7.3
'0:01.699',-7.73
'0:01.703',-10.71
'0:01.707',-18.22
'0:01.711',-24.87
'0:01.715',-29.19
'0:01.719',-31.86
'0:01.723',-33.08
'0:01.727',-32.66
'0:01.730',-31.06
'0:01.734',-27.98
'0:01.738',-22.89
'0:01.742',-16.2
'0:01.746',-9.9
'0:01.750',-4.88
'0:01.754',-1.13
'0:01.758',-0.72
'0:01.762',-6
'0:01.766',-14.15
'0:01.770',-20.45
'0:01.773',-23.74
'0:01.777',-25.04
'0:01.781',-25.19
'0:01.785',-24.55
'0:01.789',-23.42
'0:01.793',-22.17
'0:01.797',-21.05
'0:01.801',-20.03
'0:01.805',-18.68
'0:01.809',-17.12
'0:01.813',-15.55
'0:01.816',-13.97
'0:01.820',-12.67
'0:01.824',-11.57
'0:01.828',-10.39
'0:01.832',-9.02
'0:01.836',-7.82
'0:01.840',-6.72
'0:01.844',-5.82
'0:01.848',-4.68
'0:01.852',-3.41
'0:01.855',-2.28
'0:01.859',-1.19
'0:01.863',0.12
'0:01.867',1.04
'0:01.871',1.71
'0:01.875',2.66
'0:01.879',3.73
'0:01.883',4.85
'0:01.887',5.69
'0:01.891',6.27
'0:01.895',6.3
'0:01.898',5.86
'0:01.902',5.36
'0:01.906',4.88
'0:01.910',4.57
'0:01.914',4.31
'0:01.918',3.76
'0:01.922',3.29
'0:01.926',3.01
'0:01.930',2.72
'0:01.934',2.6
'0:01.938',2.56
'0:01.941',2.56
'0:01.945',2.49
'0:01.949',2.51
'0:01.953',2.47
'0:01.957',2.55
'0:01.961',2.69
'0:01.965',2.8
'0:01.969',3.02
'0:01.973',3.06
'0:01.977',2.77
'0:01.980',2.6
'0:01.984',2.29
'0:01.988',2
'0:01.992',1.63
'0:01.996',1.18
'0:02.000',0.61
'0:02.004',0.28
'0:02.008',0.18
'0:02.012',0.13
'0:02.016',0.26
'0:02.020',0.46
'0:02.023',0.51
'0:02.027',0.4
'0:02.031',0.33
'0:02.035',0.23
'0:02.039',0.21
'0:02.043',0.56
'0:02.047',1.66
'0:02.051',4.15
'0:02.055',8.57
'0:02.059',14.45
'0:02.063',20.15
'0:02.066',24.55
'0:02.070',26.98
'0:02.074',25.31
'0:02.078',18.16
'0:02.082',8.58
'0:02.086',0.97
'0:02.090',-3.41
'0:02.094',-5.37
'0:02.098',-5.96
'0:02.102',-5.86
'0:02.105',-5.27
'0:02.109',-4.75
'0:02.113',-4.15
'0:02.117',-3.4
'0:02.121',-2.32
'0:02.125',-1.19
'0:02.129',-0.3
'0:02.133',1.19
'0:02.137',6.57
'0:02.141',12.85
'0:02.145',17.52
'0:02.148',20.3
'0:02.152',21.64
'0:02.156',22.02
'0:02.160',21.98
'0:02.164',21.75
'0:02.168',21.3
'0:02.172',20.87
'0:02.176',20.42
'0:02.180',20.11
'0:02.184',20.09
'0:02.188',20.1
'0:02.191',20.01
'0:02.195',19.65
'0:02.199',18.94
'0:02.203',18.14
'0:02.207',17.16
'0:02.211',15.84
'0:02.215',14.32
'0:02.219',12.93
'0:02.223',11.64
'0:02.227',10.32
'0:02.230',9.03
'0:02.234',8.05
'0:02.238',7.26
'0:02.242',6.66
'0:02.246',6.14
'0:02.250',5.63
'0:02.254',4.98
'0:02.258',4.41
'0:02.262',4.03
'0:02.266',3.76
'0:02.270',3.38
'0:02.273',2.83
'0:02.277',2.26
'0:02.281',1.94
'0:02.285',1.63
'0:02.289',1.22
'0:02.293',0.7
'0:02.297',0.31
'0:02.301',0.11
'0:02.305',-0.15
'0:02.309',-0.72
'0:02.313',-1.52
'0:02.316',-2.32
'0:02.320',-3
'0:02.324',-3.5
'0:02.328',-4.09
'0:02.332',-4.67
'0:02.336',-5.11
'0:02.340',-5.11
'0:02.344',-4.99
'0:02.348',-5.07
'0:02.352',-5.41
'0:02.355',-5.6
'0:02.359',-5.42
'0:02.363',-4.74
'0:02.367',-2.92
'0:02.371',1.16
'0:02.375',7.16
'0:02.379',13.23
'0:02.383',17.26
'0:02.387',19.08
'0:02.391',18.76
'0:02.395',13.46
'0:02.398',4.64
'0:02.402',-3.45
'0:02.406',-9.05
'0:02.410',-12.27
'0:02.414',-13.7
'0:02.418',-13.89
'0:02.422',-13.42
'0:02.426',-12.87
'0:02.430',-12.14
'0:02.434',-11.47
'0:02.438',-10.95
'0:02.441',-10.51
'0:02.445',-10.21
'0:02.449',-9.79
'0:02.453',-9.21
'0:02.457',-8.72
'0:02.461',-8.14
'0:02.465',-7.49
'0:02.469',-6.89
'0:02.473',-6.45
'0:02.477',-6.26
'0:02.480',-6.08
'0:02.484',-5.54
'0:02.488',-4.74
'0:02.492',-4.22
'0:02.496',-7.73
'0:02.500',-14.24
'0:02.504',-19.54
'0:02.508',-22.74
'0:02.512',-24.13
'0:02.516',-24.45
'0:02.520',-23.99
'0:02.523',-23.23
'0:02.527',-22.37
'0:02.531',-21.68
'0:02.535',-21.04
'0:02.539',-20.42
'0:02.543',-19.89
'0:02.547',-19.71
'0:02.551',-19.51
'0:02.555',-19.02
'0:02.559',-18.4
'0:02.563',-17.8
'0:02.566',-17.06
'0:02.570',-16.04
'0:02.574',-14.98
'0:02.578',-14.23
'0:02.582',-13.58
'0:02.586',-12.77
'0:02.590',-11.83
'0:02.594',-10.78
'0:02.598',-10.08
'0:02.602',-9.39
'0:02.605',-8.54
'0:02.609',-7.8
'0:02.613',-6.8
'0:02.617',-4.21
'0:02.621',2.33
'0:02.625',8.86
'0:02.629',13.36
'0:02.633',15.95
'0:02.637',16.93
'0:02.641',17.05
'0:02.645',16.62
'0:02.648',16.01
'0:02.652',15.49
'0:02.656',14.87
'0:02.660',14.23
'0:02.664',13.67
'0:02.668',13.02
'0:02.672',12.36
'0:02.676',12.09
'0:02.680',12.54
'0:02.684',14.3
'0:02.688',18.2
'0:02.691',23.62
'0:02.695',28.85
'0:02.699',32.56
'0:02.703',34.02
'0:02.707',31.21
'0:02.711',22.78
'0:02.715',12.47
'0:02.719',4.92
'0:02.723',0.81
'0:02.727',-0.92
'0:02.730',-1.49
'0:02.734',-1.88
'0:02.738',-2.13
'0:02.742',-2.24
'0:02.746',-2.17
'0:02.750',-2.02
'0:02.754',-1.76
'0:02.758',-1.57
'0:02.762',-1.56
'0:02.766',-1.67
'0:02.770',-1.63
'0:02.773',-1.55
'0:02.777',-1.3
'0:02.781',-1.1
'0:02.785',-0.79
'0:02.789',-0.11
'0:02.793',0.4
'0:02.797',0.71
'0:02.801',1.12
'0:02.805',1.54
'0:02.809',1.82
'0:02.813',2.11
'0:02.816',2.51
'0:02.820',2.87
'0:02.824',2.99
'0:02.828',3.16
'0:02.832',3.08
'0:02.836',3.02
'0:02.840',2.91
'0:02.844',2.56
'0:02.848',2.05
'0:02.852',1.58
'0:02.855',1.05
'0:02.859',0.54
'0:02.863',-0.05
'0:02.867',-0.46
'0:02.871',-0.76
'0:02.875',-1.07
'0:02.879',-1.03
'0:02.883',-0.78
'0:02.887',-0.52
'0:02.891',-0.41
'0:02.895',-0.42
'0:02.898',-0.83
'0:02.902',-1.08
'0:02.906',-1.09
'0:02.910',-1.16
'0:02.914',-1.26
'0:02.918',-1.33
'0:02.922',-1.34
'0:02.926',-1.36
'0:02.930',-1.14
'0:02.934',-1.1
'0:02.938',-1.74
'0:02.941',-2.28
'0:02.945',-2.8
'0:02.949',-3.2
'0:02.953',-3.27
'0:02.957',-3.28
'0:02.961',-3.7
'0:02.965',-4.22
'0:02.969',-4.38
'0:02.973',-4.41
'0:02.977',-4.41
'0:02.980',-4.5
'0:02.984',-4.57
'0:02.988',-4.49
'0:02.992',-4.21
'0:02.996',-3.48
'0:03.000',-1.4
'0:03.004',2.93
'0:03.008',9.09
'0:03.012',15.23
'0:03.016',19.93
'0:03.020',22.68
'0:03.023',22.25
'0:03.027',16.7
'0:03.031',7.46
'0:03.035',-0.85
'0:03.039',-6.31
'0:03.043',-8.88
'0:03.047',-9.65
'0:03.051',-9.86
'0:03.055',-9.79
'0:03.059',-9.6
'0:03.063',-9.18
'0:03.066',-9.28
'0:03.070',-9.36
'0:03.074',-8.96
'0:03.078',-8.52
'0:03.082',-7.73
'0:03.086',-6.73
'0:03.090',-6.15
'0:03.094',-5.81
'0:03.098',-5.82
'0:03.102',-5.6
'0:03.105',-4.95
'0:03.109',-4.13
'0:03.113',-3.34
'0:03.117',-2.82
'0:03.121',-2.36
'0:03.125',-1.66
'0:03.129',-1.01
'0:03.133',-0.48
'0:03.137',-0.13
'0:03.141',0.2
'0:03.145',0.2
'0:03.148',0.2
'0:03.152',0.2
'0:03.156',1.66
'0:03.160',1.5
'0:03.164',1.35
'0:03.168',0.93
'0:03.172',0.19
'0:03.176',-0.59
'0:03.180',-1.45
'0:03.184',-2.08
'0:03.188',-2.7
'0:03.191',-6.81
'0:03.195',-13.89
'0:03.199',-19.71
'0:03.203',-23.24
'0:03.207',-25.15
'0:03.211',-25.86
'0:03.215',-25.51
'0:03.219',-24.66
'0:03.223',-23.84
'0:03.227',-22.85
'0:03.230',-21.77
'0:03.234',-20.84
'0:03.238',-19.94
'0:03.242',-19.01
'0:03.246',-18.15
'0:03.250',-17.32
'0:03.254',-16.4
'0:03.258',-15.65
'0:03.262',-15.11
'0:03.266',-14.94
'0:03.270',-14.57
'0:03.273',-14.08
'0:03.277',-13.32
'0:03.281',-12.54
'0:03.285',-12.07
'0:03.289',-11.69
'0:03.293',-11.16
'0:03.297',-10.64
'0:03.301',-10.28
'0:03.305',-9.49
'0:03.309',-8.34
'0:03.313',-6.75
'0:03.316',-4.39
'0:03.320',-0.41
'0:03.324',5.66
'0:03.328',12.56
'0:03.332',18.74
'0:03.336',23.19
'0:03.340',24.43
'0:03.344',20
'0:03.348',10.97
'0:03.352',1.84
'0:03.355',-4.37
'0:03.359',-7.47
'0:03.363',-8.53
'0:03.367',-8.79
'0:03.371',-8.56
'0:03.375',-7.85
'0:03.379',-7
'0:03.383',-6.13
'0:03.387',-5.26
'0:03.391',-4.54
'0:03.395',-3.77
'0:03.398',-2.88
'0:03.402',-2.26
'0:03.406',-1.66
'0:03.410',-0.84
'0:03.414',0.02
'0:03.418',0.79
'0:03.422',1.57
'0:03.426',2.33
'0:03.430',3.18
'0:03.434',4.22
'0:03.438',5.42
'0:03.441',6.7
'0:03.445',7.8
'0:03.449',9.06
'0:03.453',13.61
'0:03.457',20.66
'0:03.461',26.3
'0:03.465',29.64
'0:03.469',31.25
'0:03.473',31.62
'0:03.477',31.12
'0:03.480',30.22
'0:03.484',28.98
'0:03.488',27.31
'0:03.492',25.58
'0:03.496',23.99
'0:03.500',22.43
'0:03.504',20.94
'0:03.508',19.55
'0:03.512',18.28
'0:03.516',17.03
'0:03.520',15.93
'0:03.523',15.06
'0:03.527',14.54
'0:03.531',14.19
'0:03.535',14.02
'0:03.539',13.56
'0:03.543',12.83
'0:03.547',12.07
'0:03.551',11.42
'0:03.555',10.55
'0:03.559',9.41
'0:03.563',8.48
'0:03.566',7.97
'0:03.570',7.39
'0:03.574',6.46
'0:03.578',5.32
'0:03.582',4.35
'0:03.586',3.67
'0:03.590',3.05
'0:03.594',2.58
'0:03.598',2.17
'0:03.602',1.66
'0:03.605',1.03
'0:03.609',0.71
'0:03.613',0.47
'0:03.617',-0.02
'0:03.621',-0.24
'0:03.625',-0.13
'0:03.629',0.77
'0:03.633',3.19
'0:03.637',7.49
'0:03.641',13.19
'0:03.645',18.75
'0:03.648',23.06
'0:03.652',25.06
'0:03.656',22.57
'0:03.660',14.08
'0:03.664',3.56
'0:03.668',-4
'0:03.672',-7.9
'0:03.676',-9.43
'0:03.680',-9.86
'0:03.684',-9.68
'0:03.688',-9.23
'0:03.691',-8.74
'0:03.695',-8.34
'0:03.699',-8.14
'0:03.703',-7.64
'0:03.707',-6.94
'0:03.711',-6.51
'0:03.715',-6.27
'0:03.719',-5.93
'0:03.723',-5.55
'0:03.727',-4.92
'0:03.730',-4.4
'0:03.734',-4.15
'0:03.738',-3.73
'0:03.742',-3.28
'0:03.746',-2.92
'0:03.750',-2.55
'0:03.754',-2.05
'0:03.758',-1.51
'0:03.762',-1.04
'0:03.766',-0.46
'0:03.770',0.29
'0:03.773',0.93
'0:03.777',1.29
'0:03.781',1.57
'0:03.785',1.84
'0:03.789',1.83
'0:03.793',1.46
'0:03.797',0.89
'0:03.801',0.4
'0:03.805',-0.12
'0:03.809',-0.98
'0:03.813',-1.84
'0:03.816',-2.53
'0:03.820',-3.16
'0:03.824',-3.59
'0:03.828',-3.75
'0:03.832',-3.98
'0:03.836',-3.93
'0:03.840',-3.76
'0:03.844',-3.75
'0:03.848',-3.62
'0:03.852',-3.41
'0:03.855',-3.74
'0:03.859',-3.69
'0:03.863',-3.11
'0:03.867',-2.81
'0:03.871',-2.64
'0:03.875',-2.83
'0:03.879',-2.98
'0:03.883',-2.96
'0:03.887',-3.08
'0:03.891',-3.3
'0:03.895',-3.41
'0:03.898',-3.66
'0:03.902',-3.93
'0:03.906',-4.06
'0:03.910',-4.29
'0:03.914',-4.5
'0:03.918',-4.36
'0:03.922',-4.52
'0:03.926',-4.7
'0:03.930',-4.88
'0:03.934',-5.15
'0:03.938',-5.2
'0:03.941',-4.55
'0:03.945',-2.96
'0:03.949',0
'0:03.953',4.52
'0:03.957',9.59
'0:03.961',15.53
'0:03.965',20.27
'0:03.969',22.4
'0:03.973',19.57
'0:03.977',11.73
'0:03.980',2.77
'0:03.984',-7.04
'0:03.988',-18.26
'0:03.992',-26.56
'0:03.996',-31.25
'0:04.000',-33.48
'0:04.004',-33.8
'0:04.008',-32.94
'0:04.012',-31.84
'0:04.016',-30.26
'0:04.020',-29.1
'0:04.023',-27.92
'0:04.027',-26.53
'0:04.031',-25.57
'0:04.035',-24.27
'0:04.039',-22.84
'0:04.043',-21.12
'0:04.047',-19.66
'0:04.051',-18.26
'0:04.055',-17.05
'0:04.059',-16.15
'0:04.063',-14.74
'0:04.066',-13.53
'0:04.070',-12.52
'0:04.074',-11.19
'0:04.078',-9.67
'0:04.082',-7.96
'0:04.086',-6.47
'0:04.090',-5.25
'0:04.094',-4.3
'0:04.098',-3.45
'0:04.102',-2.77
'0:04.105',-2.4
'0:04.109',-2.15
'0:04.113',-1.93
'0:04.117',-1.64
'0:04.121',-1.65
'0:04.125',-1.81
'0:04.129',-2.12
'0:04.133',-2.38
'0:04.137',-2.64
'0:04.141',-2.8
'0:04.145',-2.69
'0:04.148',-2.35
'0:04.152',-1.78
'0:04.156',-1.33
'0:04.160',-0.78
'0:04.164',-0.08
'0:04.168',0.33
'0:04.172',0.43
'0:04.176',0.85
'0:04.180',1.33
'0:04.184',1.56
'0:04.188',1.74
'0:04.191',2.11
'0:04.195',2.36
'0:04.199',2.55
'0:04.203',2.66
'0:04.207',2.61
'0:04.211',2.73
'0:04.215',2.9
'0:04.219',3
'0:04.223',3.28
'0:04.227',3.74
'0:04.230',3.77
'0:04.234',3.75
'0:04.238',4.01
'0:04.242',4.26
'0:04.246',4.33
'0:04.250',4.13
'0:04.254',4.09
'0:04.258',4.42
'0:04.262',5.45
'0:04.266',7.9
'0:04.270',12.33
'0:04.273',18.25
'0:04.277',24.28
'0:04.281',28.76
'0:04.285',31.56
'0:04.289',30.94
'0:04.293',24.87
'0:04.297',15.77
'0:04.301',7.7
'0:04.305',4.11
'0:04.309',6.9
'0:04.313',11.23
'0:04.316',14.49
'0:04.320',16.28
'0:04.324',17.02
'0:04.328',17.08
'0:04.332',16.92
'0:04.336',16.66
'0:04.340',16.13
'0:04.344',15.34
'0:04.348',14.76
'0:04.352',14.34
'0:04.355',14.09
'0:04.359',13.78
'0:04.363',13.32
'0:04.367',12.81
'0:04.371',12.38
'0:04.375',11.96
'0:04.379',11.47
'0:04.383',11.19
'0:04.387',11.26
'0:04.391',11.24
'0:04.395',11.26
'0:04.398',11.34
'0:04.402',11.33
'0:04.406',11.28
'0:04.410',11.1
'0:04.414',10.8
'0:04.418',10.03
'0:04.422',9.12
'0:04.426',8.42
'0:04.430',7.8
'0:04.434',7.2
'0:04.438',6.38
'0:04.441',5.38
'0:04.445',4.47
'0:04.449',3.82
'0:04.453',3.26
'0:04.457',2.77
'0:04.461',2.13
'0:04.465',1.49
'0:04.469',1.08
'0:04.473',1.01
'0:04.477',0.85
'0:04.480',0.72
'0:04.484',0.45
'0:04.488',0.29
'0:04.492',0.06
'0:04.496',-0.3
'0:04.500',-0.61
'0:04.504',-0.89
'0:04.508',-1.14
'0:04.512',-1.31
'0:04.516',-1.43
'0:04.520',-1.55
'0:04.523',-1.78
'0:04.527',-2.19
'0:04.531',-2.54
'0:04.535',-2.95
'0:04.539',-3.22
'0:04.543',-3.49
'0:04.547',-3.65
'0:04.551',-3.88
'0:04.555',-4.22
'0:04.559',-4.31
'0:04.563',-4.24
'0:04.566',-4.37
'0:04.570',-4.61
'0:04.574',-4.77
'0:04.578',-4.48
'0:04.582',-2.99
'0:04.586',0.29
'0:04.590',5.75
'0:04.594',12.25
'0:04.598',18.2
'0:04.602',22.63
'0:04.605',24.27
'0:04.609',20.45
'0:04.613',10.91
'0:04.617',0.55
'0:04.621',-6.59
'0:04.625',-10.32
'0:04.629',-11.6
'0:04.633',-11.91
'0:04.637',-11.77
'0:04.641',-11.44
'0:04.645',-11.26
'0:04.648',-11.06
'0:04.652',-10.63
'0:04.656',-10.01
'0:04.660',-9.47
'0:04.664',-8.96
'0:04.668',-8.51
'0:04.672',-8.04
'0:04.676',-7.48
'0:04.680',-6.91
'0:04.684',-6.35
'0:04.688',-5.82
'0:04.691',-5.12
'0:04.695',-4.41
'0:04.699',-3.65
'0:04.703',-3.16
'0:04.707',-2.65
'0:04.711',-2.22
'0:04.715',-2.07
'0:04.719',-1.97
'0:04.723',-1.76
'0:04.727',-1.25
'0:04.730',-0.5
'0:04.734',0.03
'0:04.738',0.45
'0:04.742',0.21
'0:04.746',-0.29
'0:04.750',-0.83
'0:04.754',-1.07
'0:04.758',-1.11
'0:04.762',-1.84
'0:04.766',-2.8
'0:04.770',-3.11
'0:04.773',-3.27
'0:04.777',-3.96
'0:04.781',-4.26
'0:04.785',-3.83
'0:04.789',-3.68
'0:04.793',-3.59
'0:04.797',-3.45
'0:04.801',-2.82
'0:04.805',-2.66
'0:04.809',-2.97
'0:04.813',-3.04
'0:04.816',-3.29
'0:04.820',-3.2
'0:04.824',-3.1
'0:04.828',-2.68
'0:04.832',-2.29
'0:04.836',-2.56
'0:04.840',-3.32
'0:04.844',-3.67
'0:04.848',-3.89
'0:04.852',-4.34
'0:04.855',-4.75
'0:04.859',-6.23
'0:04.863',-11.46
'0:04.867',-17.43
'0:04.871',-21.94
'0:04.875',-24.78
'0:04.879',-26.36
'0:04.883',-27.03
'0:04.887',-26.87
'0:04.891',-26.13
'0:04.895',-24.68
'0:04.898',-22
'0:04.902',-17.27
'0:04.906',-10.71
'0:04.910',-3.96
'0:04.914',1.61
'0:04.918',5.41
'0:04.922',6.02
'0:04.926',0.92
'0:04.930',-8.03
'0:04.934',-15.38
'0:04.938',-19.28
'0:04.941',-20.61
'0:04.945',-20.27
'0:04.949',-19.01
'0:04.953',-17.36
'0:04.957',-15.73
'0:04.961',-13.84
'0:04.965',-11.68
'0:04.969',-6.1
'0:04.973',1.72
'0:04.977',7.87
'0:04.980',11.74
'0:04.984',13.97
'0:04.988',15.14
'0:04.992',15.86
'0:04.996',16.35
'0:05.000',16.54
'0:05.004',16.31
'0:05.008',15.93
'0:05.012',15.7
'0:05.016',15.58
'0:05.020',15.47
'0:05.023',15.24
'0:05.027',15.07
'0:05.031',14.72
'0:05.035',14.32
'0:05.039',14.25
'0:05.043',14.17
'0:05.047',13.83
'0:05.051',13.23
'0:05.055',12.6
'0:05.059',11.92
'0:05.063',11.05
'0:05.066',10.13
'0:05.070',9.29
'0:05.074',8.36
'0:05.078',7.21
'0:05.082',6.16
'0:05.086',5.39
'0:05.090',4.96
'0:05.094',4.64
'0:05.098',4.5
'0:05.102',4.46
'0:05.105',4.47
'0:05.109',4.39
'0:05.113',4.53
'0:05.117',4.68
'0:05.121',4.57
'0:05.125',4.33
'0:05.129',4.04
'0:05.133',3.75
'0:05.137',3.64
'0:05.141',3.5
'0:05.145',3.37
'0:05.148',3.08
'0:05.152',2.3
'0:05.156',1.43
'0:05.160',0.64
'0:05.164',0.05
'0:05.168',-0.42
'0:05.172',-0.46
'0:05.176',-0.51
'0:05.180',-0.73
'0:05.184',-0.92
'0:05.188',-1.03
'0:05.191',-1.12
'0:05.195',-1.18
'0:05.199',-1.53
'0:05.203',-2.03
'0:05.207',-2.27
'0:05.211',-1.97
'0:05.215',-0.39
'0:05.219',3.21
'0:05.223',8.71
'0:05.227',14.68
'0:05.230',19.56
'0:05.234',23.01
'0:05.238',23.8
'0:05.242',19.17
'0:05.246',10.1
'0:05.250',1.38
'0:05.254',-4.42
'0:05.258',-7.56
'0:05.262',-9
'0:05.266',-9.33
'0:05.270',-9.24
'0:05.273',-8.87
'0:05.277',-8.52
'0:05.281',-8.27
'0:05.285',-7.81
'0:05.289',-7.35
'0:05.293',-6.84
'0:05.297',-6.44
'0:05.301',-6.15
'0:05.305',-5.77
'0:05.309',-5.39
'0:05.313',-5.06
'0:05.316',-4.49
'0:05.320',-3.68
'0:05.324',-3.32
'0:05.328',-3.16
'0:05.332',-2.46
'0:05.336',-1.4
'0:05.340',-0.7
'0:05.344',-0.34
'0:05.348',-0.01
'0:05.352',0.75
'0:05.355',1.77
'0:05.359',2.51
'0:05.363',2.85
'0:05.367',2.81
'0:05.371',2.73
'0:05.375',2.87
'0:05.379',2.75
'0:05.383',2.04
'0:05.387',1
'0:05.391',0.2
'0:05.395',-0.4
'0:05.398',-1.16
'0:05.402',-1.75
'0:05.406',-2.2
'0:05.410',-2.45
'0:05.414',-2.71
'0:05.418',-2.8
'0:05.422',-2.48
'0:05.426',-2.22
'0:05.430',-2.04
'0:05.434',-1.56
'0:05.438',-1.51
'0:05.441',-1.9
'0:05.445',-2.02
'0:05.449',-1.92
'0:05.453',-1.94
'0:05.457',-1.99
'0:05.461',-2.11
'0:05.465',-2.28
'0:05.469',-2.27
'0:05.473',-2.21
'0:05.477',-2.71
'0:05.480',-3.62
'0:05.484',-4.04
'0:05.488',-3.89
'0:05.492',-3.87
'0:05.496',-3.87
'0:05.500',-3.87
'0:05.504',-3.87
'0:05.508',-4.04
'0:05.512',-4.18
'0:05.516',-4.4
'0:05.520',-4.3
'0:05.523',-3.71
'0:05.527',-2.84
'0:05.531',-1.35
'0:05.535',1.97
'0:05.539',7.2
'0:05.543',13.04
'0:05.547',18.1
'0:05.551',21.88
'0:05.555',23
'0:05.559',19.13
'0:05.563',11.01
'0:05.566',2.68
'0:05.570',-3.22
'0:05.574',-10.32
'0:05.578',-19.3
'0:05.582',-25.81
'0:05.586',-29.48
'0:05.590',-31.44
'0:05.594',-32.11
'0:05.598',-31.86
'0:05.602',-30.94
'0:05.605',-29.45
'0:05.609',-27.78
'0:05.613',-26.4
'0:05.617',-25.37
'0:05.621',-24.17
'0:05.625',-22.75
'0:05.629',-21.5
'0:05.633',-20.31
'0:05.637',-19.16
'0:05.641',-17.93
'0:05.645',-16.59
'0:05.648',-15.23
'0:05.652',-13.7
'0:05.656',-12.12
'0:05.660',-10.68
'0:05.664',-9.41
'0:05.668',-8.3
'0:05.672',-7.09
'0:05.676',-6.04
'0:05.680',-5.01
'0:05.684',-4.03
'0:05.688',-3.28
'0:05.691',-2.66
'0:05.695',-2.18
'0:05.699',-2.18
'0:05.703',-2.48
'0:05.707',-2.72
'0:05.711',-2.94
'0:05.715',-3
'0:05.719',-2.97
'0:05.723',-2.73
'0:05.727',-2.58
'0:05.730',-2.47
'0:05.734',-2.16
'0:05.738',-1.44
'0:05.742',-0.57
'0:05.746',0.31
'0:05.750',0.93
'0:05.754',1.03
'0:05.758',1.11
'0:05.762',1.38
'0:05.766',1.74
'0:05.770',2.13
'0:05.773',2.55
'0:05.777',3.03
'0:05.781',3.56
'0:05.785',3.87
'0:05.789',3.74
'0:05.793',3.36
'0:05.797',3.05
'0:05.801',3.25
'0:05.805',3.79
'0:05.809',7.37
'0:05.813',14.07
'0:05.816',19.77
'0:05.820',23.4
'0:05.824',25.43
'0:05.828',26.07
'0:05.832',25.75
'0:05.836',24.94
'0:05.840',23.98
'0:05.844',23.63
'0:05.848',24.22
'0:05.852',26.62
'0:05.855',31.05
'0:05.859',36.34
'0:05.863',40.73
'0:05.867',43.67
'0:05.871',43.62
'0:05.875',37.59
'0:05.879',26.95
'0:05.883',16.65
'0:05.887',9.75
'0:05.891',6.03
'0:05.895',4.18
'0:05.898',3.34
'0:05.902',2.99
'0:05.906',2.91
'0:05.910',2.69
'0:05.914',2.54
'0:05.918',2.42
'0:05.922',2.25
'0:05.926',2.24
'0:05.930',2.43
'0:05.934',2.43
'0:05.938',2.2
'0:05.941',1.94
'0:05.945',1.87
'0:05.949',2.58
'0:05.953',3.11
'0:05.957',3.26
'0:05.961',2.93
'0:05.965',2.31
'0:05.969',2.3
'0:05.973',2.85
'0:05.977',3.5
'0:05.980',4.05
'0:05.984',4.64
'0:05.988',4.94
'0:05.992',5.06
'0:05.996',5.32
'0:06.000',5.63
'0:06.004',5.39
'0:06.008',4.58
'0:06.012',3.76
'0:06.016',3.19
'0:06.020',2.78
'0:06.023',2.2
'0:06.027',1.27
'0:06.031',0.32
'0:06.035',-0.21
'0:06.039',-1.01
'0:06.043',-1.5
'0:06.047',-1.65
'0:06.051',-1.8
'0:06.055',-1.61
'0:06.059',-1.47
'0:06.063',-1.46
'0:06.066',-1.66
'0:06.070',-2.01
'0:06.074',-1.88
'0:06.078',-1.61
'0:06.082',-1.48
'0:06.086',-1.46
'0:06.090',-1.43
'0:06.094',-1.36
'0:06.098',-1.47
'0:06.102',-1.95
'0:06.105',-2.55
'0:06.109',-3.13
'0:06.113',-3.61
'0:06.117',-3.93
'0:06.121',-4.22
'0:06.125',-4.5
'0:06.129',-4.67
'0:06.133',-4.75
'0:06.137',-4.73
'0:06.141',-4.53
'0:06.145',-4.34
'0:06.148',-4.41
'0:06.152',-4.37
'0:06.156',-4.04
'0:06.160',-3.18
'0:06.164',-1.41
'0:06.168',2.45
'0:06.172',8.15
'0:06.176',14.17
'0:06.180',19.03
'0:06.184',21.95
'0:06.188',20.87
'0:06.191',14.2
'0:06.195',4.42
'0:06.199',-3.45
'0:06.203',-8.35
'0:06.207',-10.74
'0:06.211',-11.18
'0:06.215',-10.95
'0:06.219',-10.35
'0:06.223',-9.72
'0:06.227',-8.95
'0:06.230',-8.47
'0:06.234',-7.98
'0:06.238',-7.4
'0:06.242',-7.17
'0:06.246',-6.96
'0:06.250',-6.43
'0:06.254',-5.86
'0:06.258',-5.62
'0:06.262',-5.67
'0:06.266',-5.44
'0:06.270',-4.82
'0:06.273',-4.23
'0:06.277',-3.58
'0:06.281',-3.02
'0:06.285',-2.39
'0:06.289',-1.74
'0:06.293',-1.28
'0:06.297',-0.66
'0:06.301',0.19
'0:06.305',0.97
'0:06.309',1.48
'0:06.313',1.45
'0:06.316',1.09
'0:06.320',0.89
'0:06.324',0.74
'0:06.328',0.52
'0:06.332',0.1
'0:06.336',-0.23
'0:06.340',-0.86
'0:06.344',-1.86
'0:06.348',-2.46
'0:06.352',-3.07
'0:06.355',-3.34
'0:06.359',-3.24
'0:06.363',-3.28
'0:06.367',-3.27
'0:06.371',-2.98
'0:06.375',-4.53
'0:06.379',-10.48
'0:06.383',-16.83
'0:06.387',-21.37
'0:06.391',-23.94
'0:06.395',-25
'0:06.398',-24.84
'0:06.402',-24.22
'0:06.406',-23.5
'0:06.410',-22.69
'0:06.414',-21.94
'0:06.418',-21.37
'0:06.422',-21.03
'0:06.426',-20.93
'0:06.430',-20.68
'0:06.434',-19.97
'0:06.438',-19.31
'0:06.441',-18.94
'0:06.445',-18.55
'0:06.449',-17.92
'0:06.453',-16.94
'0:06.457',-16.01
'0:06.461',-15.23
'0:06.465',-14.37
'0:06.469',-13.57
'0:06.473',-12.43
'0:06.477',-10.6
'0:06.480',-7.99
'0:06.484',-3.74
'0:06.488',2.08
'0:06.492',8.44
'0:06.496',8.75
'0:06.500',8.75
'0:06.504',18.37
'0:06.508',16.07
'0:06.512',8.56
'0:06.516',0.15
'0:06.520',-5.68
'0:06.523',-8.56
'0:06.527',-10.16
'0:06.531',-10.38
'0:06.535',-9.86
'0:06.539',-9.3
'0:06.543',-8.74
'0:06.547',-8.41
'0:06.551',-7.82
'0:06.555',-6.88
'0:06.559',-5.85
'0:06.563',-4.81
'0:06.566',-3.84
'0:06.570',-2.97
'0:06.574',-2.15
'0:06.578',-1.39
'0:06.582',-0.56
'0:06.586',0.22
'0:06.590',1.07
'0:06.594',1.84
'0:06.598',2.39
'0:06.602',3.79
'0:06.605',4.58
'0:06.609',5.6
'0:06.613',6.64
'0:06.617',7.6
'0:06.621',8.11
'0:06.625',8.56
'0:06.629',9.29
'0:06.633',9.67
'0:06.637',9.7
'0:06.641',9.79
'0:06.645',9.62
'0:06.648',9.01
'0:06.652',8.46
'0:06.656',7.87
'0:06.660',7.1
'0:06.664',6.39
'0:06.668',5.91
'0:06.672',5.5
'0:06.676',5.11
'0:06.680',4.89
'0:06.684',4.83
'0:06.688',4.94
'0:06.691',5
'0:06.695',5.04
'0:06.699',5.07
'0:06.703',5.03
'0:06.707',4.88
'0:06.711',4.73
'0:06.715',4.88
'0:06.719',5.25
'0:06.723',5.69
'0:06.727',5.78
'0:06.730',5.47
'0:06.734',4.92
'0:06.738',4.4
'0:06.742',3.96
'0:06.746',3.36
'0:06.750',2.89
'0:06.754',2.55
'0:06.758',2.14
'0:06.762',1.73
'0:06.766',1.42
'0:06.770',1.19
'0:06.773',1.03
'0:06.777',1.07
'0:06.781',0.99
'0:06.785',0.84
'0:06.789',0.64
'0:06.793',0.74
'0:06.797',1.45
'0:06.801',3.23
'0:06.805',6.96
'0:06.809',12.69
'0:06.813',19.13
'0:06.816',24.73
'0:06.820',28.87
'0:06.824',29.89
'0:06.828',24.91
'0:06.832',17.85
'0:06.836',14.77
'0:06.840',14.42
'0:06.844',14.85
'0:06.848',15.17
'0:06.852',15.25
'0:06.855',15.34
'0:06.859',15.19
'0:06.863',14.78
'0:06.867',14.23
'0:06.871',13.83
'0:06.875',13.35
'0:06.879',12.72
'0:06.883',12.22
'0:06.887',11.77
'0:06.891',11.3
'0:06.895',10.86
'0:06.898',10.58
'0:06.902',10.32
'0:06.906',10
'0:06.910',9.71
'0:06.914',9.58
'0:06.918',9.63
'0:06.922',9.58
'0:06.926',9.58
'0:06.930',9.56
'0:06.934',9.63
'0:06.938',9.74
'0:06.941',10.01
'0:06.945',10.06
'0:06.949',9.9
'0:06.953',9.59
'0:06.957',9.07
'0:06.961',8.29
'0:06.965',7.44
'0:06.969',6.67
'0:06.973',5.79
'0:06.977',4.66
'0:06.980',3.48
'0:06.984',2.45
'0:06.988',1.62
'0:06.992',1.1
'0:06.996',0.38
'0:07.000',-0.45
'0:07.004',-1.05
'0:07.008',-1.33
'0:07.012',-1.37
'0:07.016',-1.25
'0:07.020',-1.12
'0:07.023',-1.25
'0:07.027',-1.61
'0:07.031',-1.45
'0:07.035',-1.24
'0:07.039',-1.3
'0:07.043',-1.78
'0:07.047',-2.17
'0:07.051',-2.43
'0:07.055',-2.9
'0:07.059',-3.63
'0:07.063',-4.1
'0:07.066',-4.44
'0:07.070',-4.41
'0:07.074',-4.53
'0:07.078',-5.01
'0:07.082',-5.68
'0:07.086',-6.26
'0:07.090',-6.52
'0:07.094',-6.47
'0:07.098',-6.89
'0:07.102',-7.45
'0:07.105',-7.44
'0:07.109',-6.34
'0:07.113',-4.48
'0:07.117',-1.9
'0:07.121',2.67
'0:07.125',8.28
'0:07.129',13.4
'0:07.133',17.48
'0:07.137',18.39
'0:07.141',13.41
'0:07.145',3.77
'0:07.148',-5.1
'0:07.152',-10.67
'0:07.156',-12.96
'0:07.160',-13.17
'0:07.164',-12.46
'0:07.168',-11.68
'0:07.172',-11.27
'0:07.176',-10.9
'0:07.180',-10.28
'0:07.184',-9.78
'0:07.188',-9.32
'0:07.191',-8.88
'0:07.195',-9.23
'0:07.199',-14.71
'0:07.203',-22.06
'0:07.207',-27.46
'0:07.211',-30.07
'0:07.215',-30.62
'0:07.219',-30.23
'0:07.223',-29.28
'0:07.227',-27.96
'0:07.230',-26.89
'0:07.234',-25.51
'0:07.238',-23.8
'0:07.242',-21.89
'0:07.246',-19.96
'0:07.250',-18.32
'0:07.254',-16.81
'0:07.258',-15.39
'0:07.262',-14.23
'0:07.266',-13.24
'0:07.270',-12.44
'0:07.273',-11.95
'0:07.277',-11.58
'0:07.281',-11.24
'0:07.285',-10.81
'0:07.289',-10.74
'0:07.293',-10.74
'0:07.297',-10.43
'0:07.301',-10.11
'0:07.305',-9.78
'0:07.309',-9.38
'0:07.313',-8.86
'0:07.316',-8.26
'0:07.320',-7.51
'0:07.324',-6.38
'0:07.328',-5.39
'0:07.332',-4.72
'0:07.336',-4.19
'0:07.340',-3.67
'0:07.344',-2.97
'0:07.348',-2.45
'0:07.352',-1.84
'0:07.355',-1.32
'0:07.359',-0.81
'0:07.363',-0.62
'0:07.367',-0.81
'0:07.371',-0.94
'0:07.375',-0.99
'0:07.379',-0.9
'0:07.383',-0.83
'0:07.387',-0.73
'0:07.391',-0.64
'0:07.395',-0.39
'0:07.398',-0.01
'0:07.402',0.38
'0:07.406',0.9
'0:07.410',1.33
'0:07.414',1.49
'0:07.418',1.73
'0:07.422',2.05
'0:07.426',2.93
'0:07.430',4.79
'0:07.434',8.27
'0:07.438',13.43
'0:07.441',19.72
'0:07.445',25.35
'0:07.449',29.67
'0:07.453',34.85
'0:07.457',37.3
'0:07.461',33.63
'0:07.465',27.41
'0:07.469',22.28
'0:07.473',18.98
'0:07.477',17.07
'0:07.480',15.82
'0:07.484',14.64
'0:07.488',13.7
'0:07.492',13.05
'0:07.496',12.66
'0:07.500',12.34
'0:07.504',12.15
'0:07.508',11.93
'0:07.512',11.26
'0:07.516',10.53
'0:07.520',9.95
'0:07.523',9.72
'0:07.527',9.43
'0:07.531',8.97
'0:07.535',8.61
'0:07.539',8.65
'0:07.543',6.21
'0:07.547',0.15
'0:07.551',-5.53
'0:07.555',-9.19
'0:07.559',-11.36
'0:07.563',-12.55
'0:07.566',-12.77
'0:07.570',-12.28
'0:07.574',-11.43
'0:07.578',-10.44
'0:07.582',-9.54
'0:07.586',-9.09
'0:07.590',-8.82
'0:07.594',-8.7
'0:07.598',-8.6
'0:07.602',-8.77
'0:07.605',-9.01
'0:07.609',-9.28
'0:07.613',-9.5
'0:07.617',-9.11
'0:07.621',-7.97
'0:07.625',-6.44
'0:07.629',-4.44
'0:07.633',0.65
'0:07.637',6.67
'0:07.641',11.15
'0:07.645',13.97
'0:07.648',15.46
'0:07.652',15.96
'0:07.656',15.8
'0:07.660',15.34
'0:07.664',14.84
'0:07.668',14.3
'0:07.672',13.53
'0:07.676',12.59
'0:07.680',11.58
'0:07.684',10.78
'0:07.688',9.75
'0:07.691',8.71
'0:07.695',7.71
'0:07.699',6.92
'0:07.703',6.45
'0:07.707',5.69
'0:07.711',4.86
'0:07.715',4.03
'0:07.719',3.54
'0:07.723',3.37
'0:07.727',3.36
'0:07.730',3.09
'0:07.734',2.58
'0:07.738',2.25
'0:07.742',2.5
'0:07.746',3.42
'0:07.750',5.79
'0:07.754',10.11
'0:07.758',15.44
'0:07.762',20.84
'0:07.766',25.02
'0:07.770',27.09
'0:07.773',25.46
'0:07.777',17.8
'0:07.781',7.65
'0:07.785',-0.18
'0:07.789',-4.79
'0:07.793',-7.12
'0:07.797',-8
'0:07.801',-8.15
'0:07.805',-8.21
'0:07.809',-8.07
'0:07.813',-7.68
'0:07.816',-7.45
'0:07.820',-7.29
'0:07.824',-6.98
'0:07.828',-6.52
'0:07.832',-6.1
'0:07.836',-5.82
'0:07.840',-5.68
'0:07.844',-5.56
'0:07.848',-5.39
'0:07.852',-5.06
'0:07.855',-4.55
'0:07.859',-3.87
'0:07.863',-3.18
'0:07.867',-2.53
'0:07.871',-1.87
'0:07.875',-1.49
'0:07.879',-1.19
'0:07.883',-0.72
'0:07.887',-0.84
'0:07.891',-0.69
'0:07.895',-0.3
'0:07.898',0.07
'0:07.902',0.08
'0:07.906',-0.12
'0:07.910',-0.14
'0:07.914',-0.47
'0:07.918',-1.05
'0:07.922',-1.77
'0:07.926',-2.6
'0:07.930',-4.16
'0:07.934',-9.23
'0:07.938',-15.52
'0:07.941',-20.63
'0:07.945',-23.43
'0:07.949',-24.76
'0:07.953',-25.2
'0:07.957',-24.8
'0:07.961',-23.74
'0:07.965',-22.68
'0:07.969',-22.07
'0:07.973',-21.65
'0:07.977',-21.04
'0:07.980',-20.13
'0:07.984',-19.08
'0:07.988',-18.29
'0:07.992',-17.73
'0:07.996',-17.17
'0:08.000',-16.46
'0:08.004',-15.69
'0:08.008',-15.07
'0:08.012',-14.88
'0:08.016',-14.78
'0:08.020',-14.36
'0:08.023',-13.76
'0:08.027',-13.31
'0:08.031',-13.01
'0:08.035',-12.8
'0:08.039',-12.23
'0:08.043',-11.69
'0:08.047',-11.33
'0:08.051',-11.04
'0:08.055',-10.45
'0:08.059',-9.53
'0:08.063',-8.1
'0:08.066',-5.25
'0:08.070',0.08
'0:08.074',6.74
'0:08.078',13.01
'0:08.082',17.93
'0:08.086',20.66
'0:08.090',18.49
'0:08.094',10.55
'0:08.098',0.88
'0:08.102',-6.16
'0:08.105',-9.83
'0:08.109',-10.9
'0:08.113',-10.66
'0:08.117',-10.15
'0:08.121',-9.57
'0:08.125',-8.89
'0:08.129',-7.73
'0:08.133',-6.4
'0:08.137',-5.25
'0:08.141',-3.96
'0:08.145',-2.93
'0:08.148',-2.42
'0:08.152',-2.01
'0:08.156',-1.25
'0:08.160',-0.32
'0:08.164',0.42
'0:08.168',1.12
'0:08.172',1.94
'0:08.176',2.73
'0:08.180',3.56
'0:08.184',4.88
'0:08.188',10.75
'0:08.191',18.38
'0:08.195',24.24
'0:08.199',27.76
'0:08.203',29.72
'0:08.207',30.39
'0:08.211',30.03
'0:08.215',29.14
'0:08.219',28.28
'0:08.223',27.34
'0:08.227',26.09
'0:08.230',24.53
'0:08.234',22.9
'0:08.238',21.3
'0:08.242',19.71
'0:08.246',18.16
'0:08.250',16.76
'0:08.254',15.49
'0:08.258',14.34
'0:08.262',13.23
'0:08.266',12.31
'0:08.270',11.74
'0:08.273',11.44
'0:08.277',11.13
'0:08.281',10.58
'0:08.285',9.71
'0:08.289',9.09
'0:08.293',8.71
'0:08.297',8.4
'0:08.301',7.98
'0:08.305',7.48
'0:08.309',6.96
'0:08.313',6.29
'0:08.316',5.43
'0:08.320',4.31
'0:08.324',3.28
'0:08.328',2.55
'0:08.332',1.95
'0:08.336',1.34
'0:08.340',0.82
'0:08.344',0.46
'0:08.348',0.13
'0:08.352',0.06
'0:08.355',0.07
'0:08.359',-0.08
'0:08.363',-0.31
'0:08.367',-0.59
'0:08.371',-0.66
'0:08.375',-0.19
'0:08.379',1.27
'0:08.383',4.82
'0:08.387',10.13
'0:08.391',16.1
'0:08.395',20.69
'0:08.398',23.7
'0:08.402',23.47
'0:08.406',17.2
'0:08.410',7.2
'0:08.414',-1.05
'0:08.418',-5.94
'0:08.422',-8.2
'0:08.426',-9.06
'0:08.430',-9.33
'0:08.434',-9.12
'0:08.438',-8.68
'0:08.441',-8.46
'0:08.445',-7.98
'0:08.449',-7.44
'0:08.453',-7.12
'0:08.457',-6.76
'0:08.461',-6.34
'0:08.465',-6.19
'0:08.469',-6.03
'0:08.473',-5.52
'0:08.477',-4.82
'0:08.480',-3.97
'0:08.484',-3.38
'0:08.488',-3.03
'0:08.492',-2.73
'0:08.496',-2.49
'0:08.500',-2.72
'0:08.504',-2.68
'0:08.508',-2.01
'0:08.512',-0.81
'0:08.516',-0.03
'0:08.520',0.23
'0:08.523',0.29
'0:08.527',0.62
'0:08.531',0.83
'0:08.535',0.95
'0:08.539',0.65
'0:08.543',0.03
'0:08.547',-0.31
'0:08.551',-0.83
'0:08.555',-1.25
'0:08.559',-2.1
'0:08.563',-2.88
'0:08.566',-3.32
'0:08.570',-3.56
'0:08.574',-3.93
'0:08.578',-3.93
'0:08.582',-3.92
'0:08.586',-4.08
'0:08.590',-4.02
'0:08.594',-3.63
'0:08.598',-3.81
'0:08.602',-3.95
'0:08.605',-3.71
'0:08.609',-3.6
'0:08.613',-3.49
'0:08.617',-3.03
'0:08.621',-2.75
'0:08.625',-3.09
'0:08.629',-3.64
'0:08.633',-3.87
'0:08.637',-4.26
'0:08.641',-4.88
'0:08.645',-5.37
'0:08.648',-5.74
'0:08.652',-5.96
'0:08.656',-7.32
'0:08.660',-12.83
'0:08.664',-18.67
'0:08.668',-23.05
'0:08.672',-26.12
'0:08.676',-27.72
'0:08.680',-27.97
'0:08.684',-27.46
'0:08.688',-26.69
'0:08.691',-25.48
'0:08.695',-23.32
'0:08.699',-19.43
'0:08.703',-13.26
'0:08.707',-6.16
'0:08.711',0.01
'0:08.715',4.23
'0:08.719',5.8
'0:08.723',2.9
'0:08.727',-4.27
'0:08.730',-12.36
'0:08.734',-18.12
'0:08.738',-20.74
'0:08.742',-20.75
'0:08.746',-20.76
'0:08.750',-20.75
'0:08.754',-20.75
'0:08.758',-20.75
'0:08.762',-17.8
'0:08.766',-16.75
'0:08.770',-15.66
'0:08.773',-14.7
'0:08.777',-13.46
'0:08.781',-12.05
'0:08.785',-10.78
'0:08.789',-9.75
'0:08.793',-9.01
'0:08.797',-8.12
'0:08.801',-7.19
'0:08.805',-6.54
'0:08.809',-5.8
'0:08.813',-4.86
'0:08.816',-3.76
'0:08.820',-2.68
'0:08.824',-1.61
'0:08.828',-0.71
'0:08.832',0.47
'0:08.836',1.84
'0:08.840',2.8
'0:08.844',3.53
'0:08.848',4.2
'0:08.852',4.63
'0:08.855',4.73
'0:08.859',4.62
'0:08.863',4.31
'0:08.867',3.87
'0:08.871',3.59
'0:08.875',3.19
'0:08.879',2.56
'0:08.883',2.06
'0:08.887',1.88
'0:08.891',2.04
'0:08.895',2.1
'0:08.898',2.02
'0:08.902',2.35
'0:08.906',2.82
'0:08.910',3.13
'0:08.914',3.47
'0:08.918',4.02
'0:08.922',4.55
'0:08.926',4.91
'0:08.930',5.47
'0:08.934',5.93
'0:08.938',6.02
'0:08.941',5.91
'0:08.945',5.88
'0:08.949',6.07
'0:08.953',6.35
'0:08.957',7.97
'0:08.961',13.51
'0:08.965',19.31
'0:08.969',23.16
'0:08.973',25.15
'0:08.977',25.81
'0:08.980',25.64
'0:08.984',25.23
'0:08.988',24.72
'0:08.992',23.61
'0:08.996',22.02
'0:09.000',20.46
'0:09.004',19.36
'0:09.008',18.94
'0:09.012',19.37
'0:09.016',20.74
'0:09.020',23.84
'0:09.023',28.56
'0:09.027',33.68
'0:09.031',37.5
'0:09.035',39.52
'0:09.039',37.77
'0:09.043',30.26
'0:09.047',19.37
'0:09.051',10.26
'0:09.055',4.63
'0:09.059',1.75
'0:09.063',0.63
'0:09.066',0.24
'0:09.070',0.15
'0:09.074',-0.02
'0:09.078',-0.23
'0:09.082',-0.33
'0:09.086',-0.26
'0:09.090',-0.08
'0:09.094',0.04
'0:09.098',-0.28
'0:09.102',-0.6
'0:09.105',-0.89
'0:09.109',-1.02
'0:09.113',-0.98
'0:09.117',-0.57
'0:09.121',-0.58
'0:09.125',-0.35
'0:09.129',-0.07
'0:09.133',0
'0:09.137',0.07
'0:09.141',0.52
'0:09.145',1.06
'0:09.148',1.6
'0:09.152',1.89
'0:09.156',2.33
'0:09.160',2.95
'0:09.164',3.38
'0:09.168',3.48
'0:09.172',3.25
'0:09.176',2.8
'0:09.180',2.07
'0:09.184',1.29
'0:09.188',0.75
'0:09.191',0.05
'0:09.195',-1.08
'0:09.199',-1.95
'0:09.203',-2.44
'0:09.207',-2.79
'0:09.211',-2.96
'0:09.215',-2.93
'0:09.219',-2.85
'0:09.223',-2.73
'0:09.227',-2.75
'0:09.230',-2.66
'0:09.234',-2.49
'0:09.238',-2.33
'0:09.242',-1.98
'0:09.246',-2.04
'0:09.250',-2.61
'0:09.254',-3.19
'0:09.258',-3.53
'0:09.262',-3.14
'0:09.266',-2.7
'0:09.270',-3.07
'0:09.273',-3.87
'0:09.277',-4.68
'0:09.281',-5.2
'0:09.285',-5.43
'0:09.289',-5.36
'0:09.293',-5.7
'0:09.297',-6.09
'0:09.301',-6
'0:09.305',-5.83
'0:09.309',-5.77
'0:09.313',-5.73
'0:09.316',-5.51
'0:09.320',-5.29
'0:09.324',-5
'0:09.328',-4.23
'0:09.332',-1.67
'0:09.336',3.19
'0:09.340',8.96
'0:09.344',13.89
'0:09.348',17.75
'0:09.352',19.64
'0:09.355',16.8
'0:09.359',8.79
'0:09.363',-0.01
'0:09.367',-5.89
'0:09.371',-8.73
'0:09.375',-9.59
'0:09.379',-9.77
'0:09.383',-10.24
'0:09.387',-10.12
'0:09.391',-9.82
'0:09.395',-9.58
'0:09.398',-8.99
'0:09.402',-8.49
'0:09.406',-8.29
'0:09.410',-8.05
'0:09.414',-7.77
'0:09.418',-7.77
'0:09.422',-6.4
'0:09.426',-5.55
'0:09.430',-4.98
'0:09.434',-4.56
'0:09.438',-4.26
'0:09.441',-3.88
'0:09.445',-6.8
'0:09.449',-13.05
'0:09.453',-18.51
'0:09.457',-21.86
'0:09.461',-22.92
'0:09.465',-22.38
'0:09.469',-21.6
'0:09.473',-20.9
'0:09.477',-19.81
'0:09.480',-18.83
'0:09.484',-18.63
'0:09.488',-18.92
'0:09.492',-18.66
'0:09.496',-17.86
'0:09.500',-17.4
'0:09.504',-17.42
'0:09.508',-17.16
'0:09.512',-16.42
'0:09.516',-15.54
'0:09.520',-14.76
'0:09.523',-14.12
'0:09.527',-13.49
'0:09.531',-13.37
'0:09.535',-12.25
'0:09.539',-11.42
'0:09.543',-10.83
'0:09.547',-9.97
'0:09.551',-8.94
'0:09.555',-7.93
'0:09.559',-6.91
'0:09.563',-6.7
'0:09.566',-6.3
'0:09.570',-5.69
'0:09.574',-5.27
'0:09.578',-5.14
'0:09.582',-4.81
'0:09.586',-4.44
'0:09.590',-4.02
'0:09.594',-3.52
'0:09.598',-3.11
'0:09.602',-3.07
'0:09.605',-2.95
'0:09.609',-2.64
'0:09.613',-2.23
'0:09.617',-1.77
'0:09.621',-1.34
'0:09.625',-0.72
'0:09.629',-0.13
'0:09.633',0.38
'0:09.637',0.83
'0:09.641',1.95
'0:09.645',3.88
'0:09.648',7.7
'0:09.652',13.87
'0:09.656',23.1
'0:09.660',34.29
'0:09.664',43.08
'0:09.668',47.92
'0:09.672',46.7
'0:09.676',39.37
'0:09.680',30.13
'0:09.684',22.7
'0:09.688',18.01
'0:09.691',15.46
'0:09.695',13.53
'0:09.699',12.31
'0:09.703',11.69
'0:09.707',11.3
'0:09.711',11.06
'0:09.715',10.68
'0:09.719',10.32
'0:09.723',10.02
'0:09.727',9.81
'0:09.730',9.68
'0:09.734',9.41
'0:09.738',9.19
'0:09.742',8.93
'0:09.746',8.57
'0:09.750',8.27
'0:09.754',7.95
'0:09.758',7.85
'0:09.762',7.87
'0:09.766',7.87
'0:09.770',7.84
'0:09.773',7.75
'0:09.777',7.56
'0:09.781',7.39
'0:09.785',7.34
'0:09.789',7.52
'0:09.793',7.79
'0:09.797',8.01
'0:09.801',7.95
'0:09.805',7.61
'0:09.809',7.1
'0:09.813',6.27
'0:09.816',5.27
'0:09.820',4.31
'0:09.824',3.53
'0:09.828',2.94
'0:09.832',2.31
'0:09.836',1.47
'0:09.840',0.48
'0:09.844',0.01
'0:09.848',-0.17
'0:09.852',-0.27
'0:09.855',-0.2
'0:09.859',-0.03
'0:09.863',0.05
'0:09.867',-0.09
'0:09.871',-0.19
'0:09.875',-0.27
'0:09.879',-0.24
'0:09.883',0
'0:09.887',0.31
'0:09.891',0.47
'0:09.895',0
'0:09.898',-0.64
'0:09.902',-1.22
'0:09.906',-1.75
'0:09.910',-2.41
'0:09.914',-3.1
'0:09.918',-3.62
'0:09.922',-3.94
'0:09.926',-3.97
'0:09.930',-4.11
'0:09.934',-4.33
'0:09.938',-4.41
'0:09.941',-4.43
'0:09.945',-4.55
'0:09.949',-4.77
'0:09.953',-4.87
'0:09.957',-4.73
'0:09.961',-3.93
'0:09.965',-1.62
'0:09.969',3.13
'0:09.973',9.78
'0:09.977',16.37
'0:09.980',19.25
'0:09.984',25.03
'0:09.988',22.05
'0:09.992',13.04
'0:09.996',2.59
'0:10.000',-4.96
'0:10.004',-9.14
'0:10.008',-11.09
'0:10.012',-11.54
'0:10.016',-11.27
'0:10.020',-10.78
'0:10.023',-10.27
'0:10.027',-9.83
'0:10.031',-9.46
'0:10.035',-8.89
'0:10.039',-8.09
'0:10.043',-7.73
'0:10.047',-7.65
'0:10.051',-7.34
'0:10.055',-6.86
'0:10.059',-6.28
'0:10.063',-5.58
'0:10.066',-4.98
'0:10.070',-4.66
'0:10.074',-4.53
'0:10.078',-4.23
'0:10.082',-3.58
'0:10.086',-2.73
'0:10.090',-1.99
'0:10.094',-1.22
'0:10.098',-0.41
'0:10.102',0.21
'0:10.105',0.57
'0:10.109',0.87
'0:10.113',1.26
'0:10.117',1.44
'0:10.121',1.37
'0:10.125',1.25
'0:10.129',0.84
'0:10.133',0.45
'0:10.137',-0.11
'0:10.141',-0.96
'0:10.145',-2.18
'0:10.148',-3.13
'0:10.152',-3.46
'0:10.156',-3.39
'0:10.160',-3.5
'0:10.164',-3.55
'0:10.168',-3.6
'0:10.172',-3.37
'0:10.176',-2.75
'0:10.180',-2.37
'0:10.184',-2.19
'0:10.188',-2.43
'0:10.191',-2.43
'0:10.195',-2.43
'0:10.199',-2.47
'0:10.203',-2.23
'0:10.207',-2.87
'0:10.211',-8.24
'0:10.215',-15.15
'0:10.219',-20.16
'0:10.223',-23.27
'0:10.227',-25.14
'0:10.230',-26.07
'0:10.234',-26.23
'0:10.238',-25.97
'0:10.242',-25.4
'0:10.246',-24.53
'0:10.250',-23.59
'0:10.254',-22.42
'0:10.258',-21.52
'0:10.262',-20.85
'0:10.266',-20.07
'0:10.270',-18.83
'0:10.273',-16.79
'0:10.277',-13.96
'0:10.281',-9.3
'0:10.285',-2.97
'0:10.289',3.41
'0:10.293',8.19
'0:10.297',10.94
'0:10.301',10.27
'0:10.305',4.45
'0:10.309',-4.39
'0:10.313',-11.33
'0:10.316',-14.83
'0:10.320',-15.68
'0:10.324',-15.24
'0:10.328',-14.33
'0:10.332',-13.16
'0:10.336',-12.25
'0:10.340',-11.26
'0:10.344',-10.04
'0:10.348',-8.94
'0:10.352',-8.27
'0:10.355',-7.78
'0:10.359',-7.18
'0:10.363',-6.1
'0:10.367',-4.73
'0:10.371',-3.59
'0:10.375',-2.7
'0:10.379',-1.99
'0:10.383',-1.28
'0:10.387',-0.48
'0:10.391',0.37
'0:10.395',1.06
'0:10.398',1.82
'0:10.402',2.82
'0:10.406',3.76
'0:10.410',4.65
'0:10.414',5.54
'0:10.418',5.94
'0:10.422',6.29
'0:10.426',6.99
'0:10.430',7.66
'0:10.434',7.75
'0:10.438',7.5
'0:10.441',7.28
'0:10.445',7.53
'0:10.449',11.79
'0:10.453',18.21
'0:10.457',23.14
'0:10.461',25.94
'0:10.465',26.95
'0:10.469',26.91
'0:10.473',26.42
'0:10.477',25.7
'0:10.480',24.89
'0:10.484',24.02
'0:10.488',23.21
'0:10.492',22.49
'0:10.496',21.8
'0:10.500',20.93
'0:10.504',19.86
'0:10.508',18.91
'0:10.512',18.1
'0:10.516',17.24
'0:10.520',16.3
'0:10.523',15.08
'0:10.527',13.79
'0:10.531',12.82
'0:10.535',11.85
'0:10.539',11.16
'0:10.543',10.39
'0:10.547',9.55
'0:10.551',8.66
'0:10.555',7.58
'0:10.559',6.53
'0:10.563',5.94
'0:10.566',5.64
'0:10.570',5.44
'0:10.574',5.02
'0:10.578',4.46
'0:10.582',3.93
'0:10.586',4.08
'0:10.590',4.86
'0:10.594',7.19
'0:10.598',11.83
'0:10.602',17.55
'0:10.605',22.83
'0:10.609',26.63
'0:10.613',28.31
'0:10.617',25.39
'0:10.621',17.07
'0:10.625',7.19
'0:10.629',-0.07
'0:10.633',-4.38
'0:10.637',-6.5
'0:10.641',-7.61
'0:10.645',-7.85
'0:10.648',-7.74
'0:10.652',-7.56
'0:10.656',-7.32
'0:10.660',-7.09
'0:10.664',-6.67
'0:10.668',-6.11
'0:10.672',-5.45
'0:10.676',-4.98
'0:10.680',-4.8
'0:10.684',-4.59
'0:10.688',-4.26
'0:10.691',-3.97
'0:10.695',-3.49
'0:10.699',-3.26
'0:10.703',-3.05
'0:10.707',-2.76
'0:10.711',-2.39
'0:10.715',-1.91
'0:10.719',-1.68
'0:10.723',-1.19
'0:10.727',-0.13
'0:10.730',0.45
'0:10.734',0.63
'0:10.738',0.82
'0:10.742',1.07
'0:10.746',1.29
'0:10.750',1.01
'0:10.754',0.83
'0:10.758',0.09
'0:10.762',-1.2
'0:10.766',-2.17
'0:10.770',-2.82
'0:10.773',-3.16
'0:10.777',-3.33
'0:10.781',-3.48
'0:10.785',-3.33
'0:10.789',-3.74
'0:10.793',-4.25
'0:10.797',-4.08
'0:10.801',-3.73
'0:10.805',-3.65
'0:10.809',-3.84
'0:10.813',-3.8
'0:10.816',-3.8
'0:10.820',-3.61
'0:10.824',-3.48
'0:10.828',-3.74
'0:10.832',-3.92
'0:10.836',-3.9
'0:10.840',-3.94
'0:10.844',-4.25
'0:10.848',-4.6
'0:10.852',-4.75
'0:10.855',-5.1
'0:10.859',-5.36
'0:10.863',-5.01
'0:10.867',-5.13
'0:10.871',-5.56
'0:10.875',-5.75
'0:10.879',-5.74
'0:10.883',-5.68
'0:10.887',-5.18
'0:10.891',-5.33
'0:10.895',-5.52
'0:10.898',-5.74
'0:10.902',-5.19
'0:10.906',-3.78
'0:10.910',-1.06
'0:10.914',3.03
'0:10.918',4.74
'0:10.922',4.25
'0:10.926',3.21
'0:10.930',1.95
'0:10.934',-1.22
'0:10.938',-8.15
'0:10.941',-16.86
'0:10.945',-23.82
'0:10.949',-27.74
'0:10.953',-29.45
'0:10.957',-29.7
'0:10.961',-29.2
'0:10.965',-28.42
'0:10.969',-27.41
'0:10.973',-26.22
'0:10.977',-24.88
'0:10.980',-23.35
'0:10.984',-21.98
'0:10.988',-20.98
'0:10.992',-19.93
'0:10.996',-18.79
'0:11.000',-17.62
'0:11.004',-16.33
'0:11.008',-15.06
'0:11.012',-13.83
'0:11.016',-12.51
'0:11.020',-11.23
'0:11.023',-10.12
'0:11.027',-9.04
'0:11.031',-8.03
'0:11.035',-6.8
'0:11.039',-5.51
'0:11.043',-4.22
'0:11.047',-3.07
'0:11.051',-1.9
'0:11.055',-0.66
'0:11.059',0.34
'0:11.063',0.65
'0:11.066',0.83
'0:11.070',1.21
'0:11.074',1.56
'0:11.078',1.76
'0:11.082',1.92
'0:11.086',1.77
'0:11.090',1.42
'0:11.094',1.24
'0:11.098',1.29
'0:11.102',1.42
'0:11.105',1.49
'0:11.109',1.54
'0:11.113',1.88
'0:11.117',2.38
'0:11.121',2.7
'0:11.125',2.99
'0:11.129',3.52
'0:11.133',4.2
'0:11.137',4.72
'0:11.141',4.97
'0:11.145',5.14
'0:11.148',5.38
'0:11.152',7.51
'0:11.156',13.63
'0:11.160',19.35
'0:11.164',22.85
'0:11.168',24.31
'0:11.172',24.55
'0:11.176',24.27
'0:11.180',23.69
'0:11.184',22.9
'0:11.188',22.9
'0:11.191',22.89
'0:11.195',22.9
'0:11.199',18.97
'0:11.203',17.95
'0:11.207',16.96
'0:11.211',15.85
'0:11.215',14.88
'0:11.219',14.41
'0:11.223',14.64
'0:11.227',16.21
'0:11.230',19.89
'0:11.234',25.08
'0:11.238',30.34
'0:11.242',34.54
'0:11.246',36.89
'0:11.250',35.14
'0:11.254',27.18
'0:11.258',16.3
'0:11.262',7.52
'0:11.266',2.04
'0:11.270',-0.84
'0:11.273',-2.19
'0:11.277',-2.58
'0:11.281',-2.65
'0:11.285',-2.65
'0:11.289',-2.62
'0:11.293',-2.53
'0:11.297',-2.56
'0:11.301',-2.58
'0:11.305',-2.55
'0:11.309',-2.49
'0:11.313',-2.44
'0:11.316',-2.2
'0:11.320',-1.93
'0:11.324',-1.43
'0:11.328',-0.96
'0:11.332',-0.73
'0:11.336',-0.71
'0:11.340',-0.39
'0:11.344',0.04
'0:11.348',0.5
'0:11.352',0.8
'0:11.355',1.18
'0:11.359',1.81
'0:11.363',2.2
'0:11.367',2.6
'0:11.371',2.92
'0:11.375',3.12
'0:11.379',3.03
'0:11.383',2.76
'0:11.387',2.54
'0:11.391',2.3
'0:11.395',1.8
'0:11.398',0.95
'0:11.402',-0.13
'0:11.406',-1.11
'0:11.410',-1.72
'0:11.414',-2.23
'0:11.418',-2.7
'0:11.422',-2.9
'0:11.426',-2.92
'0:11.430',-2.89
'0:11.434',-2.92
'0:11.438',-2.74
'0:11.441',-2.51
'0:11.445',-2.48
'0:11.449',-2.34
'0:11.453',-2.17
'0:11.457',-1.99
'0:11.461',-1.97
'0:11.465',-2.18
'0:11.469',-2.42
'0:11.473',-2.5
'0:11.477',-2.31
'0:11.480',-2.19
'0:11.484',-2.7
'0:11.488',-3.09
'0:11.492',-2.81
'0:11.496',-3.41
'0:11.500',-4.69
'0:11.504',-5.56
'0:11.508',-5.54
'0:11.512',-5.26
'0:11.516',-5.4
'0:11.520',-5.52
'0:11.523',-5.5
'0:11.527',-5.32
'0:11.531',-5.05
'0:11.535',-4.24
'0:11.539',-2.63
'0:11.543',0.66
'0:11.547',5.87
'0:11.551',11.59
'0:11.555',16.55
'0:11.559',20.16
'0:11.563',21.27
'0:11.566',17.4
'0:11.570',8.1
'0:11.574',-1.49
'0:11.578',-7.9
'0:11.582',-10.6
'0:11.586',-11.08
'0:11.590',-10.87
'0:11.594',-10.75
'0:11.598',-10.55
'0:11.602',-10.33
'0:11.605',-9.98
'0:11.609',-9.41
'0:11.613',-8.78
'0:11.617',-8.08
'0:11.621',-7.33
'0:11.625',-6.46
'0:11.629',-5.72
'0:11.633',-4.99
'0:11.637',-4.23
'0:11.641',-3.62
'0:11.645',-2.85
'0:11.648',-2.16
'0:11.652',-2
'0:11.656',-2.09
'0:11.660',-2.02
'0:11.664',-1.55
'0:11.668',-0.7
'0:11.672',-0.13
'0:11.676',0.17
'0:11.680',0.39
'0:11.684',0.65
'0:11.688',1.1
'0:11.691',1.65
'0:11.695',1.79
'0:11.699',1.53
'0:11.703',1.39
'0:11.707',1.21
'0:11.711',0.92
'0:11.715',0.4
'0:11.719',-0.68
'0:11.723',-4.83
'0:11.727',-12.08
'0:11.730',-18.15
'0:11.734',-21.77
'0:11.738',-23.98
'0:11.742',-25.19
'0:11.746',-25.34
'0:11.750',-24.93
'0:11.754',-24.09
'0:11.758',-23.28
'0:11.762',-22.15
'0:11.766',-21.05
'0:11.770',-19.83
'0:11.773',-18.71
'0:11.777',-17.83
'0:11.781',-17.02
'0:11.785',-16.15
'0:11.789',-15.56
'0:11.793',-14.95
'0:11.797',-14.36
'0:11.801',-13.75
'0:11.805',-13.3
'0:11.809',-13.15
'0:11.813',-12.78
'0:11.816',-12.21
'0:11.820',-11.59
'0:11.824',-10.88
'0:11.828',-10.28
'0:11.832',-9.51
'0:11.836',-8.79
'0:11.840',-8.26
'0:11.844',-7.9
'0:11.848',-7.23
'0:11.852',-6
'0:11.855',-4.01
'0:11.859',-0.48
'0:11.863',5.15
'0:11.867',11.53
'0:11.871',16.97
'0:11.875',20.91
'0:11.879',22.27
'0:11.883',18.69
'0:11.887',10.81
'0:11.891',2.69
'0:11.895',-2.76
'0:11.898',-5.13
'0:11.902',-5.92
'0:11.906',-6
'0:11.910',-5.48
'0:11.914',-4.93
'0:11.918',-4.66
'0:11.922',-4.02
'0:11.926',-2.83
'0:11.930',-1.94
'0:11.934',-1.59
'0:11.938',-1.18
'0:11.941',-0.45
'0:11.945',0.16
'0:11.949',0.62
'0:11.953',1.08
'0:11.957',1.69
'0:11.961',2.28
'0:11.965',2.6
'0:11.969',3.01
'0:11.973',3.5
'0:11.977',4.2
'0:11.980',4.83
'0:11.984',5.23
'0:11.988',5.61
'0:11.992',6.18
'0:11.996',6.86
'0:12.000',7.42
'0:12.004',7.95
'0:12.008',8.46
'0:12.012',8.94
'0:12.016',9.19
'0:12.020',9.19
'0:12.023',10.08
'0:12.027',14.69
'0:12.031',19.69
'0:12.035',22.95
'0:12.039',24.34
'0:12.043',24.46
'0:12.047',23.84
'0:12.051',22.96
'0:12.055',22.07
'0:12.059',21.19
'0:12.063',20.53
'0:12.066',19.83
'0:12.070',19.05
'0:12.074',18.27
'0:12.078',17.3
'0:12.082',16.25
'0:12.086',15.37
'0:12.090',14.66
'0:12.094',13.73
'0:12.098',12.58
'0:12.102',11.53
'0:12.105',10.75
'0:12.109',10.13
'0:12.113',9.5
'0:12.117',8.68
'0:12.121',7.78
'0:12.125',6.94
'0:12.129',6.32
'0:12.133',6.01
'0:12.137',5.57
'0:12.141',4.85
'0:12.145',4.11
'0:12.148',3.4
'0:12.152',2.93
'0:12.156',2.67
'0:12.160',1.88
'0:12.164',1.07
'0:12.168',0.9
'0:12.172',1.8
'0:12.176',4.23
'0:12.180',8.85
'0:12.184',14.68
'0:12.188',20.09
'0:12.191',24.33
'0:12.195',26.91
'0:12.199',25.37
'0:12.203',18
'0:12.207',8.01
'0:12.211',-0.11
'0:12.215',-4.87
'0:12.219',-7.26
'0:12.223',-8.15
'0:12.227',-8.28
'0:12.230',-8.21
'0:12.234',-8.16
'0:12.238',-7.85
'0:12.242',-7.5
'0:12.246',-7.24
'0:12.250',-6.9
'0:12.254',-6.84
'0:12.258',-6.81
'0:12.262',-6.58
'0:12.266',-5.98
'0:12.270',-5.37
'0:12.273',-4.98
'0:12.277',-4.52
'0:12.281',-3.98
'0:12.285',-3.35
'0:12.289',-2.62
'0:12.293',-2.26
'0:12.297',-2.05
'0:12.301',-1.46
'0:12.305',-0.58
'0:12.309',0.24
'0:12.313',0.7
'0:12.316',0.83
'0:12.320',0.98
'0:12.324',0.88
'0:12.328',0.68
'0:12.332',0.57
'0:12.336',0.42
'0:12.340',0.16
'0:12.344',-0.32
'0:12.348',-0.93
'0:12.352',-1.71
'0:12.355',-2.32
'0:12.359',-2.95
'0:12.363',-3.47
'0:12.367',-3.72
'0:12.371',-3.63
'0:12.375',-3.55
'0:12.379',-3.63
'0:12.383',-3.63
'0:12.387',-3.61
'0:12.391',-3.59
'0:12.395',-3.51
'0:12.398',-3.39
'0:12.402',-3.07
'0:12.406',-2.56
'0:12.410',-2.22
'0:12.414',-2.22
'0:12.418',-2.32
'0:12.422',-2.69
'0:12.426',-3.25
'0:12.430',-3.64
'0:12.434',-4.1
'0:12.438',-4.92
'0:12.441',-5.45
'0:12.445',-5.41
'0:12.449',-5.57
'0:12.453',-5.84
'0:12.457',-5.9
'0:12.461',-5.42
'0:12.465',-4.81
'0:12.469',-4.39
'0:12.473',-4.36
'0:12.477',-4.52
'0:12.480',-4.6
'0:12.484',-4.7
'0:12.488',-7.86
'0:12.492',-10.22
'0:12.496',-9.47
'0:12.500',-6.59
'0:12.504',-3.35
'0:12.508',-1.27
'0:12.512',-2.9
'0:12.516',-9.51
'0:12.520',-18.32
'0:12.523',-24.91
'0:12.527',-28.07
'0:12.531',-28.67
'0:12.535',-28.03
'0:12.539',-26.97
'0:12.543',-25.69
'0:12.547',-24.49
'0:12.551',-23.23
'0:12.555',-22.19
'0:12.559',-21.24
'0:12.563',-20.29
'0:12.566',-19.36
'0:12.570',-18.04
'0:12.574',-16.5
'0:12.578',-15.01
'0:12.582',-13.58
'0:12.586',-12.47
'0:12.590',-11.57
'0:12.594',-10.62
'0:12.598',-9.62
'0:12.602',-8.37
'0:12.605',-7.02
'0:12.609',-5.85
'0:12.613',-4.82
'0:12.617',-3.68
'0:12.621',-2.42
'0:12.625',-1.14
'0:12.629',-0.04
'0:12.633',0.7
'0:12.637',1.35
'0:12.641',1.87
'0:12.645',2.14
'0:12.648',2.29
'0:12.652',2.34
'0:12.656',2.09
'0:12.660',1.74
'0:12.664',1.32
'0:12.668',1.1
'0:12.672',1.11
'0:12.676',1.22
'0:12.680',1.53
'0:12.684',1.85
'0:12.688',1.89
'0:12.691',1.81
'0:12.695',2.07
'0:12.699',2.71
'0:12.703',3.31
'0:12.707',3.43
'0:12.711',3.56
'0:12.715',3.75
'0:12.719',4.04
'0:12.723',4.26
'0:12.727',4.47
'0:12.730',4.41
'0:12.734',4.4
'0:12.738',4.25
'0:12.742',3.93
'0:12.746',3.33
'0:12.750',2.7
'0:12.754',2.23
'0:12.758',1.75
'0:12.762',1.7
'0:12.766',2.31
'0:12.770',3.11
'0:12.773',3.44
'0:12.777',3.18
'0:12.781',2.87
'0:12.785',2.12
'0:12.789',1.51
'0:12.793',1.39
'0:12.797',1.93
'0:12.801',3.17
'0:12.805',5.93
'0:12.809',10.59
'0:12.813',16.16
'0:12.816',21.1
'0:12.820',24.91
'0:12.824',26.72
'0:12.828',23.66
'0:12.832',15.49
'0:12.836',6.6
'0:12.840',0.33
'0:12.844',-3.39
'0:12.848',-5.28
'0:12.852',-5.82
'0:12.855',-5.61
'0:12.859',-5.06
'0:12.863',-4.24
'0:12.867',-3.55
'0:12.871',-2.82
'0:12.875',-1.55
'0:12.879',3.19
'0:12.883',9.95
'0:12.887',15.52
'0:12.891',18.95
'0:12.895',20.79
'0:12.898',21.69
'0:12.902',22.17
'0:12.906',22.27
'0:12.910',21.49
'0:12.914',20.7
'0:12.918',20.37
'0:12.922',20.34
'0:12.926',20.03
'0:12.930',19.98
'0:12.934',19.59
'0:12.938',18.18
'0:12.941',17.1
'0:12.945',16.43
'0:12.949',14.48
'0:12.953',8.5
'0:12.957',1.57
'0:12.961',-3.6
'0:12.965',-6.15
'0:12.969',-7.68
'0:12.973',-9.5
'0:12.977',-10.69
'0:12.980',-11.26
'0:12.984',-11.86
'0:12.988',-12.32
'0:12.992',-11.82
'0:12.996',-10.98
'0:13.000',-10.99
'0:13.004',-10.96
'0:13.008',-10.25
'0:13.012',-9.18
'0:13.016',-8.88
'0:13.020',-8.89
'0:13.023',-8.54
'0:13.027',-8.14
'0:13.031',-7.97
'0:13.035',-7.59
'0:13.039',-7.17
'0:13.043',-6.73
'0:13.047',-5.68
'0:13.051',-4.38
'0:13.055',-4.75
'0:13.059',-6.63
'0:13.063',-8.42
'0:13.066',-9.22
'0:13.070',-9.19
'0:13.074',-8.85
'0:13.078',-8.32
'0:13.082',-8.23
'0:13.086',-8.21
'0:13.090',-7.9
'0:13.094',-7.46
'0:13.098',-7.21
'0:13.102',-7.46
'0:13.105',-7.48
'0:13.109',-6.24
'0:13.113',-5.26
'0:13.117',-3.67
'0:13.121',0
'0:13.125',5.54
'0:13.129',11.43
'0:13.133',16.47
'0:13.137',20.3
'0:13.141',21.82
'0:13.145',18.31
'0:13.148',10.39
'0:13.152',2.13
'0:13.156',-3.98
'0:13.160',-7.77
'0:13.164',-9.1
'0:13.168',-9.73
'0:13.172',-10.16
'0:13.176',-9.79
'0:13.180',-9.31
'0:13.184',-8.85
'0:13.188',-8.1
'0:13.191',-7.56
'0:13.195',-7.04
'0:13.199',-6.39
'0:13.203',-5.73
'0:13.207',-5.01
'0:13.211',-4.27
'0:13.215',-3.76
'0:13.219',-3.36
'0:13.223',-2.86
'0:13.227',-2.39
'0:13.230',-1.83
'0:13.234',-1.21
'0:13.238',-0.67
'0:13.242',0.11
'0:13.246',0.94
'0:13.250',1.62
'0:13.254',2.37
'0:13.258',2.57
'0:13.262',2.75
'0:13.266',3.09
'0:13.270',3.38
'0:13.273',3.75
'0:13.277',4.13
'0:13.281',4.27
'0:13.285',3.98
'0:13.289',3.18
'0:13.293',2.5
'0:13.297',1.75
'0:13.301',0.78
'0:13.305',0.26
'0:13.309',-0.04
'0:13.313',-0.37
'0:13.316',-0.6
'0:13.320',-0.71
'0:13.324',-0.63
'0:13.328',-0.13
'0:13.332',0.59
'0:13.336',0.99
'0:13.340',0.9
'0:13.344',0.78
'0:13.348',1.25
'0:13.352',2.29
'0:13.355',2.32
'0:13.359',2.25
'0:13.363',1.91
'0:13.367',2.01
'0:13.371',2.05
'0:13.375',1.57
'0:13.379',0.82
'0:13.383',-0.24
'0:13.387',-1.13
'0:13.391',-1.51
'0:13.395',-1.46
'0:13.398',-1.63
'0:13.402',-1.59
'0:13.406',-1.34
'0:13.410',-1.19
'0:13.414',-1.22
'0:13.418',-1.45
'0:13.422',-1.82
'0:13.426',-1.9
'0:13.430',-1.33
'0:13.434',0.24
'0:13.438',3.17
'0:13.441',8.01
'0:13.445',14.2
'0:13.449',20.08
'0:13.453',24.5
'0:13.457',26.82
'0:13.461',24.47
'0:13.465',16.51
'0:13.469',6.53
'0:13.473',-1.06
'0:13.477',-5.57
'0:13.480',-7.83
'0:13.484',-8.71
'0:13.488',-8.46
'0:13.492',-7.81
'0:13.496',-7.12
'0:13.500',-6.6
'0:13.504',-6.07
'0:13.508',-5.73
'0:13.512',-5.34
'0:13.516',-4.86
'0:13.520',-4.37
'0:13.523',-3.81
'0:13.527',-3.39
'0:13.531',-2.82
'0:13.535',-2.22
'0:13.539',-1.85
'0:13.543',-1.49
'0:13.547',-0.98
'0:13.551',-0.56
'0:13.555',0.04
'0:13.559',0.58
'0:13.563',0.97
'0:13.566',1.38
'0:13.570',1.91
'0:13.574',2.6
'0:13.578',3.48
'0:13.582',4.14
'0:13.586',4.12
'0:13.590',4.03
'0:13.594',3.95
'0:13.598',3.92
'0:13.602',3.32
'0:13.605',2.45
'0:13.609',1.48
'0:13.613',0.91
'0:13.617',0.85
'0:13.621',0.78
'0:13.625',0.33
'0:13.629',-0.11
'0:13.633',-0.38
'0:13.637',-0.43
'0:13.641',-0.36
'0:13.645',-0.29
'0:13.648',-0.31
'0:13.652',-0.09
'0:13.656',0.2
'0:13.660',0.39
'0:13.664',0.55
'0:13.668',0.52
'0:13.672',0.35
'0:13.676',0.1
'0:13.680',-0.14
'0:13.684',-0.29
'0:13.688',-0.43
'0:13.691',-0.68
'0:13.695',-1.15
'0:13.699',-1.63
'0:13.703',-1.8
'0:13.707',-1.63
'0:13.711',-1.6
'0:13.715',-2.11
'0:13.719',-2.5
'0:13.723',-2.91
'0:13.727',-2.97
'0:13.730',-2.97
'0:13.734',-2.91
'0:13.738',-2.51
'0:13.742',-1.79
'0:13.746',-0.98
'0:13.750',0.86
'0:13.754',4.43
'0:13.758',9.71
'0:13.762',15.46
'0:13.766',20.37
'0:13.770',23.79
'0:13.773',23.37
'0:13.777',17.01
'0:13.781',7.15
'0:13.785',-1.04
'0:13.789',-5.73
'0:13.793',-7.54
'0:13.797',-7.41
'0:13.801',-7.04
'0:13.805',-6.64
'0:13.809',-6.19
'0:13.813',-5.71
'0:13.816',-5.02
'0:13.820',-4.44
'0:13.824',-4.05
'0:13.828',-3.88
'0:13.832',-3.29
'0:13.836',-2.49
'0:13.840',-1.73
'0:13.844',-0.67
'0:13.848',-0.18
'0:13.852',0.18
'0:13.855',0.58
'0:13.859',1.29
'0:13.863',1.92
'0:13.867',1.69
'0:13.871',1.63
'0:13.875',1.97
'0:13.879',2.41
'0:13.883',3.16
'0:13.887',3.83
'0:13.891',4.1
'0:13.895',4.63
'0:13.898',5.16
'0:13.902',5.24
'0:13.906',5.31
'0:13.910',5.22
'0:13.914',4.95
'0:13.918',4.31
'0:13.922',3.63
'0:13.926',3.03
'0:13.930',2.11
'0:13.934',1.37
'0:13.938',0.79
'0:13.941',0.64
'0:13.945',0.43
'0:13.949',-0.06
'0:13.953',-0.29
'0:13.957',-0.39
'0:13.961',-0.32
'0:13.965',-0.19
'0:13.969',0.24
'0:13.973',0.8
'0:13.977',1.29
'0:13.980',1.17
'0:13.984',0.64
'0:13.988',0.57
'0:13.992',0.54
'0:13.996',0.15
'0:14.000',-0.19
'0:14.004',-0.91
'0:14.008',-1.54
'0:14.012',-1.9
'0:14.016',-2.12
'0:14.020',-2.16
'0:14.023',-2.02
'0:14.027',-2.51
'0:14.031',-2.67
'0:14.035',-2.75
'0:14.039',-3.18
'0:14.043',-3.43
'0:14.047',-3.38
'0:14.051',-3.41
'0:14.055',-4.18
'0:14.059',-4.38
'0:14.063',-3.22
'0:14.066',-0.61
'0:14.070',3.43
'0:14.074',9.17
'0:14.078',15.59
'0:14.082',20.95
'0:14.086',24.02
'0:14.090',23.47
'0:14.094',17.73
'0:14.098',8.4
'0:14.102',-0.15
'0:14.105',-5.52
'0:14.109',-8.51
'0:14.113',-9.76
'0:14.117',-10.05
'0:14.121',-9.89
'0:14.125',-9.14
'0:14.129',-8.58
'0:14.133',-8.18
'0:14.137',-7.82
'0:14.141',-7.31
'0:14.145',-6.55
'0:14.148',-5.61
'0:14.152',-4.68
'0:14.156',-3.94
'0:14.160',-3.14
'0:14.164',-2.41
'0:14.168',-1.71
'0:14.172',-1.21
'0:14.176',-0.92
'0:14.180',-0.36
'0:14.184',0.58
'0:14.188',1.37
'0:14.191',2.02
'0:14.195',1.95
'0:14.199',2
'0:14.203',2.98
'0:14.207',4.26
'0:14.211',4.65
'0:14.215',4.1
'0:14.219',3.51
'0:14.223',2.93
'0:14.227',2.63
'0:14.230',2.47
'0:14.234',2.09
'0:14.238',1.59
'0:14.242',1.07
'0:14.246',0.68
'0:14.250',0.3
'0:14.254',-0.09
'0:14.258',-0.4
'0:14.262',-0.51
'0:14.266',-0.43
'0:14.270',-0.36
'0:14.273',-0.09
'0:14.277',0.46
'0:14.281',0.25
'0:14.285',-0.26
'0:14.289',-0.43
'0:14.293',-0.26
'0:14.297',-0.03
'0:14.301',-0.18
'0:14.305',-0.43
'0:14.309',-0.53
'0:14.313',-0.56
'0:14.316',-0.56
'0:14.320',-0.68
'0:14.324',-0.99
'0:14.328',-1.56
'0:14.332',-2.36
'0:14.336',-2.75
'0:14.340',-2.73
'0:14.344',-2.63
'0:14.348',-2.77
'0:14.352',-2.97
'0:14.355',-3.19
'0:14.359',-3.33
'0:14.363',-3.6
'0:14.367',-3.96
'0:14.371',-4.02
'0:14.375',-3.44
'0:14.379',-1.97
'0:14.383',1.03
'0:14.387',6.23
'0:14.391',12.73
'0:14.395',18.7
'0:14.398',23.41
'0:14.402',25.79
'0:14.406',23.23
'0:14.410',15
'0:14.414',4.98
'0:14.418',-2.48
'0:14.422',-6.71
'0:14.426',-8.69
'0:14.430',-9.4
'0:14.434',-9.57
'0:14.438',-9.57
'0:14.441',-9.35
'0:14.445',-8.85
'0:14.449',-8.2
'0:14.453',-7.45
'0:14.457',-6.73
'0:14.461',-6.14
'0:14.465',-5.53
'0:14.469',-4.9
'0:14.473',-4.14
'0:14.477',-3.72
'0:14.480',-3.41
'0:14.484',-3.14
'0:14.488',-2.82
'0:14.492',-2.17
'0:14.496',-1.73
'0:14.500',-1.46
'0:14.504',-0.92
'0:14.508',-0.22
'0:14.512',0.34
'0:14.516',0.97
'0:14.520',1.73
'0:14.523',2.51
'0:14.527',2.93
'0:14.531',3.24
'0:14.535',3.56
'0:14.539',3.54
'0:14.543',3.34
'0:14.547',2.61
'0:14.551',1.98
'0:14.555',1.78
'0:14.559',1.46
'0:14.563',0.86
'0:14.566',0.06
'0:14.570',-0.58
'0:14.574',-1.07
'0:14.578',-1.28
'0:14.582',-1.21
'0:14.586',-1.16
'0:14.590',-1.09
'0:14.594',-1.09
'0:14.598',-1.26
'0:14.602',-1.32
'0:14.605',-1.16
'0:14.609',-0.7
'0:14.613',-0.58
'0:14.617',-0.94
'0:14.621',-1.05
'0:14.625',-1.12
'0:14.629',-1.43
'0:14.633',-1.39
'0:14.637',-1.94
'0:14.641',-2.29
'0:14.645',-2.44
'0:14.648',-3.22
'0:14.652',-3.72
'0:14.656',-3.57
'0:14.660',-3.29
'0:14.664',-3.11
'0:14.668',-3.1
'0:14.672',-3.11
'0:14.676',-3.02
'0:14.680',-3
'0:14.684',-3.23
'0:14.688',-2.73
'0:14.691',-0.75
'0:14.695',2.42
'0:14.699',7.09
'0:14.703',13.03
'0:14.707',18.54
'0:14.711',21.77
'0:14.715',23.07
'0:14.719',19.7
'0:14.723',10.34
'0:14.727',0.71
'0:14.730',-5.31
'0:14.734',-8.16
'0:14.738',-9.06
'0:14.742',-9.37
'0:14.746',-9.13
'0:14.750',-8.48
'0:14.754',-7.82
'0:14.758',-7.6
'0:14.762',-7.34
'0:14.766',-6.77
'0:14.770',-6.11
'0:14.773',-5.31
'0:14.777',-4.77
'0:14.781',-5.09
'0:14.785',-5.14
'0:14.789',-4.8
'0:14.793',-4.59
'0:14.797',-4.08
'0:14.801',-3.34
'0:14.805',-2.75
'0:14.809',-2.27
'0:14.813',-1.84
'0:14.816',-1.41
'0:14.820',-1.04
'0:14.824',-0.51
'0:14.828',0.05
'0:14.832',0.66
'0:14.836',1.26
'0:14.840',1.51
'0:14.844',1.44
'0:14.848',1.39
'0:14.852',0.98
'0:14.855',0.69
'0:14.859',-0.04
'0:14.863',-0.95
'0:14.867',-1.48
'0:14.871',-1.94
'0:14.875',-2.36
'0:14.879',-2.87
'0:14.883',-3.33
'0:14.887',-3.19
'0:14.891',-3.29
'0:14.895',-3.48
'0:14.898',-3.43
'0:14.902',-3.18
'0:14.906',-2.85
'0:14.910',-2.41
'0:14.914',-2.1
'0:14.918',-1.97
'0:14.922',-1.65
'0:14.926',-1.16
'0:14.930',-0.75
'0:14.934',-0.49
'0:14.938',-0.58
'0:14.941',-0.58
'0:14.945',-0.42
'0:14.949',-0.49
'0:14.953',-0.59
'0:14.957',-0.82
'0:14.961',-0.92
'0:14.965',-0.97
'0:14.969',-1.09
'0:14.973',-1.35
'0:14.977',-1.31
'0:14.980',-1.02
'0:14.984',-0.5
'0:14.988',-0.12
'0:14.992',0
'0:14.996',0.1
'0:15.000',0.25
'0:15.004',0.76
'0:15.008',2.33
'0:15.012',5.78
'0:15.016',10.91
'0:15.020',16.66
'0:15.023',21.55
'0:15.027',25.11
'0:15.031',26.17
'0:15.035',22.03
'0:15.039',13.34
'0:15.043',4.65
'0:15.047',-1.08
'0:15.051',-4.13
'0:15.055',-5.44
'0:15.059',-5.77
'0:15.063',-5.67
'0:15.066',-5.24
'0:15.070',-4.82
'0:15.074',-4.36
'0:15.078',-3.9
'0:15.082',-3.53
'0:15.086',-3.26
'0:15.090',-2.97
'0:15.094',-2.44
'0:15.098',-1.89
'0:15.102',-1.34
'0:15.105',-0.71
'0:15.109',-0.09
'0:15.113',-0.14
'0:15.117',-0.44
'0:15.121',-0.46
'0:15.125',-0.05
'0:15.129',0.25
'0:15.133',0.54
'0:15.137',1.22
'0:15.141',1.86
'0:15.145',2.49
'0:15.148',3
'0:15.152',3.63
'0:15.156',4.05
'0:15.160',4.1
'0:15.164',4
'0:15.168',3.99
'0:15.172',3.73
'0:15.176',3.04
'0:15.180',2.29
'0:15.184',1.44
'0:15.188',0.63
'0:15.191',0.18
'0:15.195',0.08
'0:15.199',-0.06
'0:15.203',-0.36
'0:15.207',-0.59
'0:15.211',-0.78
'0:15.215',-1.1
'0:15.219',-1.35
'0:15.223',-1.36
'0:15.227',-1.12
'0:15.230',-0.75
'0:15.234',-0.56
'0:15.238',-0.44
'0:15.242',-0.42
'0:15.246',-0.58
'0:15.250',-0.8
'0:15.254',-0.59
'0:15.258',-0.7
'0:15.262',-1.14
'0:15.266',-1.68
'0:15.270',-1.99
'0:15.273',-2.21
'0:15.277',-2.79
'0:15.281',-3.31
'0:15.285',-3.13
'0:15.289',-2.82
'0:15.293',-2.92
'0:15.297',-2.75
'0:15.301',-2.7
'0:15.305',-2.68
'0:15.309',-3.04
'0:15.313',-3.6
'0:15.316',-3.3
'0:15.320',-1.75
'0:15.324',0.81
'0:15.328',5.34
'0:15.332',11.44
'0:15.336',17.42
'0:15.340',22.15
'0:15.344',24.93
'0:15.348',23.9
'0:15.352',17.54
'0:15.355',8.22
'0:15.359',0.09
'0:15.363',-5.02
'0:15.367',-7.53
'0:15.371',-8.47
'0:15.375',-8.71
'0:15.379',-8.7
'0:15.383',-8.59
'0:15.387',-8.25
'0:15.391',-7.71
'0:15.395',-7.4
'0:15.398',-7.18
'0:15.402',-6.75
'0:15.406',-6.16
'0:15.410',-5.31
'0:15.414',-4.4
'0:15.418',-3.66
'0:15.422',-3.48
'0:15.426',-3.5
'0:15.430',-3.33
'0:15.434',-2.89
'0:15.438',-2.33
'0:15.441',-1.63
'0:15.445',-1.19
'0:15.449',-0.71
'0:15.453',0.15
'0:15.457',1.05
'0:15.461',1.71
'0:15.465',2.35
'0:15.469',2.95
'0:15.473',3.29
'0:15.477',3.2
'0:15.480',3
'0:15.484',2.83
'0:15.488',2.56
'0:15.492',2.14
'0:15.496',1.53
'0:15.500',0.46
'0:15.504',-0.45
'0:15.508',-0.9
'0:15.512',-1.26
'0:15.516',-1.66
'0:15.520',-2.2
'0:15.523',-2.6
'0:15.527',-2.33
'0:15.531',-1.88
'0:15.535',-1.63
'0:15.539',-1.19
'0:15.543',-1.48
'0:15.547',-1.79
'0:15.551',-1.8
'0:15.555',-1.9
'0:15.559',-2.17
'0:15.563',-2.36
'0:15.566',-2.39
'0:15.570',-2.19
'0:15.574',-1.96
'0:15.578',-2.13
'0:15.582',-2.34
'0:15.586',-2.87
'0:15.590',-3.61
'0:15.594',-4.24
'0:15.598',-4.56
'0:15.602',-5.18
'0:15.605',-5.72
'0:15.609',-5.68
'0:15.613',-5.46
'0:15.617',-5.36
'0:15.621',-5.39
'0:15.625',-5.53
'0:15.629',-6.13
'0:15.633',-6.55
'0:15.637',-5.67
'0:15.641',-3.35
'0:15.645',1.02
'0:15.648',6.97
'0:15.652',12.94
'0:15.656',17.98
'0:15.660',21.41
'0:15.664',21.19
'0:15.668',15.06
'0:15.672',5.17
'0:15.676',-3.17
'0:15.680',-8.34
'0:15.684',-10.91
'0:15.688',-11.84
'0:15.691',-11.84
'0:15.695',-11.69
'0:15.699',-11.49
'0:15.703',-11.05
'0:15.707',-10.6
'0:15.711',-9.97
'0:15.715',-9.47
'0:15.719',-8.65
'0:15.723',-8.02
'0:15.727',-8.01
'0:15.730',-6.72
'0:15.734',-6.43
'0:15.738',-5.99
'0:15.742',-5.5
'0:15.746',-5.01
'0:15.750',-4.25
'0:15.754',-3.39
'0:15.758',-2.51
'0:15.762',-1.66
'0:15.766',-0.78
'0:15.770',0.1
'0:15.773',0.71
'0:15.777',1.4
'0:15.781',2.09
'0:15.785',2.44
'0:15.789',2.93
'0:15.793',3.46
'0:15.797',3.99
'0:15.801',4.21
'0:15.805',4.15
'0:15.809',3.86
'0:15.813',3.51
'0:15.816',2.71
'0:15.820',1.78
'0:15.824',1.12
'0:15.828',0.64
'0:15.832',0.39
'0:15.836',0.35
'0:15.840',0.42
'0:15.844',0.52
'0:15.848',0.78
'0:15.852',1.2
'0:15.855',1.42
'0:15.859',1.61
'0:15.863',1.78
'0:15.867',1.91
'0:15.871',2
'0:15.875',2.15
'0:15.879',2.37
'0:15.883',2.53
'0:15.887',2.39
'0:15.891',2.37
'0:15.895',2.58
'0:15.898',2.1
'0:15.902',1.32
'0:15.906',0.93
'0:15.910',0.52
'0:15.914',0.2
'0:15.918',0.04
'0:15.922',-0.09
'0:15.926',-0.31
'0:15.930',-0.63
'0:15.934',-1.09
'0:15.938',-1.56
'0:15.941',-1.84
'0:15.945',-1.74
'0:15.949',-1.09
'0:15.953',0.2
'0:15.957',2.79
'0:15.961',7.59
'0:15.965',13.53
'0:15.969',19
'0:15.973',22.87
'0:15.977',24.38
'0:15.980',21.04
'0:15.984',12.51
'0:15.988',3.01
'0:15.992',-3.3
'0:15.996',-6.59
'0:16.000',-7.65
'0:16.004',-7.73
'0:16.008',-7.48
'0:16.012',-7.4
'0:16.016',-7.38
'0:16.020',-7.31
'0:16.023',-6.91
'0:16.027',-6.28
'0:16.031',-5.7
'0:16.035',-5.08
'0:16.039',-4.35
'0:16.043',-3.49
'0:16.047',-2.95
'0:16.051',-2.41
'0:16.055',-1.82
'0:16.059',-1.14
'0:16.063',-0.46
'0:16.066',0.01
'0:16.070',0.37
'0:16.074',0.81
'0:16.078',1.47
'0:16.082',2.25
'0:16.086',2.92
'0:16.090',3.63
'0:16.094',4.3
'0:16.098',4.93
'0:16.102',5.22
'0:16.105',5.07
'0:16.109',4.92
'0:16.113',4.83
'0:16.117',4.49
'0:16.121',3.99
'0:16.125',3.68
'0:16.129',3.46
'0:16.133',2.98
'0:16.137',2.6
'0:16.141',2.08
'0:16.145',1.64
'0:16.148',1.41
'0:16.152',1.22
'0:16.156',1.2
'0:16.160',1.44
'0:16.164',1.85
'0:16.168',2.22
'0:16.172',2.41
'0:16.176',2.64
'0:16.180',3.14
'0:16.184',3.41
'0:16.188',3.63
'0:16.191',4.13
'0:16.195',4.14
'0:16.199',3.78
'0:16.203',3.25
'0:16.207',2.29
'0:16.211',1.68
'0:16.215',1.12
'0:16.219',0.46
'0:16.223',-0.22
'0:16.227',-0.59
'0:16.230',-0.55
'0:16.234',-0.43
'0:16.238',-0.61
'0:16.242',-1.01
'0:16.246',-0.83
'0:16.250',-0.97
'0:16.254',-1.48
'0:16.258',-1.65
'0:16.262',-1.53
'0:16.266',-1.44
'0:16.270',-0.51
'0:16.273',1.95
'0:16.277',6.96
'0:16.281',13.3
'0:16.285',19
'0:16.289',23.04
'0:16.293',24.78
'0:16.297',22.15
'0:16.301',14.57
'0:16.305',5.53
'0:16.309',-1.38
'0:16.313',-5.6
'0:16.316',-7.7
'0:16.320',-8.32
'0:16.324',-8.72
'0:16.328',-8.74
'0:16.332',-8.47
'0:16.336',-7.91
'0:16.340',-7.58
'0:16.344',-7.33
'0:16.348',-7.08
'0:16.352',-6.53
'0:16.355',-5.91
'0:16.359',-5.52
'0:16.363',-5.11
'0:16.367',-4.73
'0:16.371',-4.24
'0:16.375',-3.6
'0:16.379',-3.11
'0:16.383',-2.7
'0:16.387',-2.14
'0:16.391',-1.63
'0:16.395',-1.46
'0:16.398',-1.17
'0:16.402',-1.07
'0:16.406',-1.14
'0:16.410',-0.92
'0:16.414',-0.44
'0:16.418',0.08
'0:16.422',0.07
'0:16.426',-0.27
'0:16.430',-0.39
'0:16.434',-0.8
'0:16.438',-1.41
'0:16.441',-1.9
'0:16.445',-2.5
'0:16.449',-3.21
'0:16.453',-3.82
'0:16.457',-4.16
'0:16.461',-4.21
'0:16.465',-4.12
'0:16.469',-4.24
'0:16.473',-4.33
'0:16.477',-4.16
'0:16.480',-3.9
'0:16.484',-3.62
'0:16.488',-3.26
'0:16.492',-2.58
'0:16.496',-2
'0:16.500',-2.22
'0:16.504',-2.38
'0:16.508',-2.16
'0:16.512',-1.64
'0:16.516',-1.3
'0:16.520',-1.21
'0:16.523',-1.35
'0:16.527',-1.58
'0:16.531',-1.95
'0:16.535',-2.24
'0:16.539',-2.42
'0:16.543',-2.62
'0:16.547',-2.73
'0:16.551',-2.77
'0:16.555',-2.87
'0:16.559',-2.97
'0:16.563',-2.8
'0:16.566',-2.58
'0:16.570',-2.5
'0:16.574',-2.69
'0:16.578',-2.86
'0:16.582',-2.62
'0:16.586',-1.41
'0:16.590',1.51
'0:16.594',6.54
'0:16.598',12.97
'0:16.602',18.96
'0:16.605',23.36
'0:16.609',25.85
'0:16.613',24.39
'0:16.617',17.25
'0:16.621',7.19
'0:16.625',-0.82
'0:16.629',-5.45
'0:16.633',-7.77
'0:16.637',-8.59
'0:16.641',-8.74
'0:16.645',-8.69
'0:16.648',-8.45
'0:16.652',-8.15
'0:16.656',-7.86
'0:16.660',-7.3
'0:16.664',-6.63
'0:16.668',-5.99
'0:16.672',-5.28
'0:16.676',-4.63
'0:16.680',-4.06
'0:16.684',-3.55
'0:16.688',-2.95
'0:16.691',-2.48
'0:16.695',-2.12
'0:16.699',-1.68
'0:16.703',-1.03
'0:16.707',-0.26
'0:16.711',0.64
'0:16.715',1.53
'0:16.719',2.13
'0:16.723',2.56
'0:16.727',2.92
'0:16.730',3.24
'0:16.734',3.51
'0:16.738',3.61
'0:16.742',3.66
'0:16.746',3.76
'0:16.750',3.65
'0:16.754',3.53
'0:16.758',3.42
'0:16.762',2.93
'0:16.766',1.93
'0:16.770',1.01
'0:16.773',0.17
'0:16.777',-0.66
'0:16.781',-1.31
'0:16.785',-1.7
'0:16.789',-1.77
'0:16.793',-1.6
'0:16.797',-1.38
'0:16.801',-1.1
'0:16.805',-1.06
'0:16.809',-1.33
'0:16.813',-1.53
'0:16.816',-1.94
'0:16.820',-2.24
'0:16.824',-2.29
'0:16.828',-2.21
'0:16.832',-2.07
'0:16.836',-2.21
'0:16.840',-2.68
'0:16.844',-3.07
'0:16.848',-3.27
'0:16.852',-3.55
'0:16.855',-3.75
'0:16.859',-3.82
'0:16.863',-3.67
'0:16.867',-3.65
'0:16.871',-3.8
'0:16.875',-3.9
'0:16.879',-3.72
'0:16.883',-3.6
'0:16.887',-3.61
'0:16.891',-3.51
'0:16.895',-3.26
'0:16.898',-2.39
'0:16.902',-0.3
'0:16.906',3.62
'0:16.910',9.32
'0:16.914',15
'0:16.918',19.28
'0:16.922',21.95
'0:16.926',21.21
'0:16.930',14.84
'0:16.934',4.86
'0:16.938',-3.11
'0:16.941',-7.39
'0:16.945',-9.13
'0:16.949',-9.41
'0:16.953',-9.01
'0:16.957',-8.27
'0:16.961',-7.37
'0:16.965',-6.45
'0:16.969',-5.8
'0:16.973',-5.22
'0:16.977',-4.57
'0:16.980',-3.88
'0:16.984',-3.34
'0:16.988',-2.97
'0:16.992',-2.64
'0:16.996',-2.12
'0:17.000',-1.52
'0:17.004',-0.87
'0:17.008',-0.24
'0:17.012',0.23
'0:17.016',0.13
'0:17.020',0.16
'0:17.023',0.66
'0:17.027',1.35
'0:17.031',2.29
'0:17.035',3.42
'0:17.039',4.54
'0:17.043',5.49
'0:17.047',5.68
'0:17.051',5.49
'0:17.055',5.49
'0:17.059',5.81
'0:17.063',5.94
'0:17.066',5.58
'0:17.070',5.07
'0:17.074',4.06
'0:17.078',2.81
'0:17.082',1.74
'0:17.086',0.9
'0:17.090',0.27
'0:17.094',0.13
'0:17.098',0.12
'0:17.102',-0.47
'0:17.105',-0.81
'0:17.109',-0.72
'0:17.113',-0.29
'0:17.117',-0.05
'0:17.121',-0.63
'0:17.125',-0.61
'0:17.129',-0.27
'0:17.133',-0.06
'0:17.137',0.23
'0:17.141',-0.17
'0:17.145',-0.58
'0:17.148',-0.45
'0:17.152',-0.11
'0:17.156',-0.42
'0:17.160',-1.33
'0:17.164',-2.22
'0:17.168',-2.58
'0:17.172',-2.6
'0:17.176',-2.81
'0:17.180',-3.65
'0:17.184',-4.7
'0:17.188',-5.19
'0:17.191',-5.52
'0:17.195',-5.44
'0:17.199',-5.27
'0:17.203',-5.34
'0:17.207',-5.16
'0:17.211',-4.67
'0:17.215',-4.02
'0:17.219',-2.73
'0:17.223',3.56
'0:17.227',8.81
'0:17.230',13.31
'0:17.234',17.01
'0:17.238',18.56
'0:17.242',14.79
'0:17.246',6.03
'0:17.250',-2.76
'0:17.254',-8.57
'0:17.258',-11.39
'0:17.262',-13.01
'0:17.266',-13.53
'0:17.270',-13.29
'0:17.273',-12.59
'0:17.277',-11.81
'0:17.281',-11.49
'0:17.285',-11.14
'0:17.289',-10.37
'0:17.293',-9.68
'0:17.297',-9.06
'0:17.301',-8.58
'0:17.305',-7.92
'0:17.309',-6.86
'0:17.313',-5.8
'0:17.316',-5.45
'0:17.320',-5.12
'0:17.324',-4.47
'0:17.328',-3.61
'0:17.332',-2.71
'0:17.336',-1.85
'0:17.340',-1.11
'0:17.344',-0.38
'0:17.348',0.36
'0:17.352',1.17
'0:17.355',2
'0:17.359',2.62
'0:17.363',3.13
'0:17.367',3.3
'0:17.371',3.59
'0:17.375',3.81
'0:17.379',4.07
'0:17.383',4.01
'0:17.387',3.36
'0:17.391',2.84
'0:17.395',1.88
'0:17.398',1.15
'0:17.402',0.79
'0:17.406',0.52
'0:17.410',0.84
'0:17.414',1.47
'0:17.418',1.91
'0:17.422',2.18
'0:17.426',2.69
'0:17.430',2.98
'0:17.434',2.94
'0:17.438',2.88
'0:17.441',2.88
'0:17.445',2.88
'0:17.449',3.75
'0:17.453',3.79
'0:17.457',3.54
'0:17.461',3.42
'0:17.465',3.57
'0:17.469',3.49
'0:17.473',3.44
'0:17.477',3.68
'0:17.480',3.59
'0:17.484',3.28
'0:17.488',3
'0:17.492',2.85
'0:17.496',2.91
'0:17.500',2.96
'0:17.504',3
'0:17.508',2.93
'0:17.512',2.64
'0:17.516',2.26
'0:17.520',1.95
'0:17.523',1.98
'0:17.527',3.12
'0:17.531',6.01
'0:17.535',10.79
'0:17.539',16.67
'0:17.543',22.05
'0:17.547',25.79
'0:17.551',27.17
'0:17.555',24.22
'0:17.559',16.51
'0:17.563',7.57
'0:17.566',0.96
'0:17.570',-3.27
'0:17.574',-5.66
'0:17.578',-6.78
'0:17.582',-7.13
'0:17.586',-6.98
'0:17.590',-6.69
'0:17.594',-6.44
'0:17.598',-6.06
'0:17.602',-5.5
'0:17.605',-5.01
'0:17.609',-4.69
'0:17.613',-4.28
'0:17.617',-3.79
'0:17.621',-3.37
'0:17.625',-3.09
'0:17.629',-2.79
'0:17.633',-2.35
'0:17.637',-1.69
'0:17.641',-0.92
'0:17.645',-0.48
'0:17.648',-0.31
'0:17.652',-0.31
'0:17.656',-0.41
'0:17.660',-0.35
'0:17.664',-0.01
'0:17.668',0.75
'0:17.672',1.81
'0:17.676',2.76
'0:17.680',3.33
'0:17.684',3.58
'0:17.688',3.38
'0:17.691',2.95
'0:17.695',2.58
'0:17.699',2.17
'0:17.703',1.77
'0:17.707',1.33
'0:17.711',0.8
'0:17.715',0.29
'0:17.719',-0.4
'0:17.723',-1.13
'0:17.727',-1.58
'0:17.730',-1.73
'0:17.734',-1.85
'0:17.738',-1.92
'0:17.742',-1.74
'0:17.746',-1.43
'0:17.750',-1.23
'0:17.754',-1.04
'0:17.758',-1.02
'0:17.762',-0.97
'0:17.766',-0.7
'0:17.770',-0.64
'0:17.773',-0.75
'0:17.777',-0.75
'0:17.781',-0.9
'0:17.785',-1.17
'0:17.789',-1.43
'0:17.793',-1.68
'0:17.797',-1.87
'0:17.801',-1.81
'0:17.805',-1.8
'0:17.809',-2
'0:17.813',-2.17
'0:17.816',-2.63
'0:17.820',-2.55
'0:17.824',-2.64
'0:17.828',-3.34
'0:17.832',-3.87
'0:17.836',-3.64
'0:17.840',-2.56
'0:17.844',-0.46
'0:17.848',3.62
'0:17.852',9.45
'0:17.855',15.52
'0:17.859',20.31
'0:17.863',23.06
'0:17.867',21.78
'0:17.871',14.4
'0:17.875',3.73
'0:17.879',-4.47
'0:17.883',-8.93
'0:17.887',-10.91
'0:17.891',-11.37
'0:17.895',-11
'0:17.898',-10.37
'0:17.902',-9.93
'0:17.906',-9.39
'0:17.910',-8.74
'0:17.914',-8.05
'0:17.918',-7.5
'0:17.922',-7.02
'0:17.926',-7.12
'0:17.930',-7.31
'0:17.934',-6.66
'0:17.938',-5.88
'0:17.941',-5.46
'0:17.945',-5.67
'0:17.949',-5.6
'0:17.953',-5.27
'0:17.957',-4.33
'0:17.961',-3.66
'0:17.965',-4.5
'0:17.969',-5.55
'0:17.973',-5.5
'0:17.977',-5.29
'0:17.980',-5.08
'0:17.984',-4.55
'0:17.988',-3.82
'0:17.992',-3.38
'0:17.996',-3.22
'0:18.000',-3.02
'0:18.004',-3.24
'0:18.008',-3.33
'0:18.012',-3.48
'0:18.016',-3.66
'0:18.020',-4.07
'0:18.023',-4.82
'0:18.027',-5.23
'0:18.031',-5.36
'0:18.035',-5.31
'0:18.039',-5.42
'0:18.043',-6.39
'0:18.047',-7.01
'0:18.051',-6.44
'0:18.055',-5.74
'0:18.059',-4.9
'0:18.063',-4.31
'0:18.066',-4.06
'0:18.070',-3.55
'0:18.074',-2.97
'0:18.078',-2.74
'0:18.082',-2.68
'0:18.086',-2.55
'0:18.090',-2.09
'0:18.094',-1.84
'0:18.098',-2.02
'0:18.102',-2.46
'0:18.105',-2.6
'0:18.109',-2.62
'0:18.113',-2.58
'0:18.117',-2.48
'0:18.121',-2.14
'0:18.125',-2.37
'0:18.129',-2.58
'0:18.133',-2.7
'0:18.137',-2.53
'0:18.141',-2.63
'0:18.145',-2.62
'0:18.148',-2.08
'0:18.152',-1.25
'0:18.156',0.16
'0:18.160',3.33
'0:18.164',8.4
'0:18.168',14.05
'0:18.172',19.22
'0:18.176',22.72
'0:18.180',23.4
'0:18.184',18.95
'0:18.188',10.64
'0:18.191',2.76
'0:18.195',-2.25
'0:18.199',-4.77
'0:18.203',-5.47
'0:18.207',-4.98
'0:18.211',-4.25
'0:18.215',-3.06
'0:18.219',-1.67
'0:18.223',-0.78
'0:18.227',-0.75
'0:18.230',-0.68
'0:18.234',-0.28
'0:18.238',0.28
'0:18.242',0.82
'0:18.246',1.55
'0:18.250',2.17
'0:18.254',2.48
'0:18.258',2.96
'0:18.262',3.67
'0:18.266',4.32
'0:18.270',4.7
'0:18.273',4.95
'0:18.277',5.4
'0:18.281',6.08
'0:18.285',6.8
'0:18.289',7.2
'0:18.293',7.54
'0:18.297',7.96
'0:18.301',8.15
'0:18.305',8.18
'0:18.309',8.12
'0:18.313',7.93
'0:18.316',7.57
'0:18.320',7.13
'0:18.324',6.72
'0:18.328',5.94
'0:18.332',5.06
'0:18.336',4.26
'0:18.340',3.64
'0:18.344',3.04
'0:18.348',2.41
'0:18.352',1.85
'0:18.355',1.16
'0:18.359',0.84
'0:18.363',1.11
'0:18.367',1.81
'0:18.371',2.24
'0:18.375',1.75
'0:18.379',0.87
'0:18.383',0.24
'0:18.387',0.09
'0:18.391',0.21
'0:18.395',0.13
'0:18.398',-0.07
'0:18.402',-0.09
'0:18.406',0.1
'0:18.410',0.1
'0:18.414',-0.19
'0:18.418',-0.61
'0:18.422',-0.9
'0:18.426',-1.09
'0:18.430',-1.26
'0:18.434',-1.55
'0:18.438',-1.72
'0:18.441',-1.6
'0:18.445',-1.41
'0:18.449',-1.39
'0:18.453',-1.47
'0:18.457',-1.73
'0:18.461',-1.94
'0:18.465',-1.72
'0:18.469',-0.66
'0:18.473',1.7
'0:18.477',6.02
'0:18.480',12.07
'0:18.484',18.22
'0:18.488',23.01
'0:18.492',25.48
'0:18.496',24.69
'0:18.500',18.75
'0:18.504',9.04
'0:18.508',0.12
'0:18.512',-5.49
'0:18.516',-8.37
'0:18.520',-9.8
'0:18.523',-10.37
'0:18.527',-10.14
'0:18.531',-9.61
'0:18.535',-9
'0:18.539',-8.39
'0:18.543',-7.62
'0:18.547',-7.29
'0:18.551',-7.21
'0:18.555',-6.97
'0:18.559',-6.28
'0:18.563',-5.68
'0:18.566',-5.01
'0:18.570',-5.02
'0:18.574',-5.03
'0:18.578',-4.45
'0:18.582',-4.02
'0:18.586',-3.62
'0:18.590',-2.94
'0:18.594',-2.53
'0:18.598',-1.95
'0:18.602',-1.01
'0:18.605',-0.52
'0:18.609',-0.06
'0:18.613',0.73
'0:18.617',1.42
'0:18.621',2.06
'0:18.625',2.29
'0:18.629',2.28
'0:18.633',2.4
'0:18.637',1.77
'0:18.641',0.99
'0:18.645',0.29
'0:18.648',-0.22
'0:18.652',-0.94
'0:18.656',-1.81
'0:18.660',-2.56
'0:18.664',-2.98
'0:18.668',-3.21
'0:18.672',-3.28
'0:18.676',-3.08
'0:18.680',-2.84
'0:18.684',-2.83
'0:18.688',-2.84
'0:18.691',-2.53
'0:18.695',-2.09
'0:18.699',-1.88
'0:18.703',-1.65
'0:18.707',-1.93
'0:18.711',-2.46
'0:18.715',-2.7
'0:18.719',-2.78
'0:18.723',-2.92
'0:18.727',-2.95
'0:18.730',-3.23
'0:18.734',-3.5
'0:18.738',-3.88
'0:18.742',-4.31
'0:18.746',-4.67
'0:18.750',-5.15
'0:18.754',-5.75
'0:18.758',-5.75
'0:18.762',-5.21
'0:18.766',-4.95
'0:18.770',-5.46
'0:18.773',-5.77
'0:18.777',-5.64
'0:18.781',-4.86
'0:18.785',-3.38
'0:18.789',-0.03
'0:18.793',5.35
'0:18.797',11.45
'0:18.801',16.54
'0:18.805',20.2
'0:18.809',21.28
'0:18.813',16.86
'0:18.816',7.52
'0:18.820',-1.6
'0:18.824',-7.32
'0:18.828',-10.03
'0:18.832',-11
'0:18.836',-10.71
'0:18.840',-10.27
'0:18.844',-9.86
'0:18.848',-9.15
'0:18.852',-8.48
'0:18.855',-7.75
'0:18.859',-6.83
'0:18.863',-5.99
'0:18.867',-5.6
'0:18.871',-5.27
'0:18.875',-4.88
'0:18.879',-4.5
'0:18.883',-4.05
'0:18.887',-3.51
'0:18.891',-2.82
'0:18.895',-2.33
'0:18.898',-1.94
'0:18.902',-1.28
'0:18.906',-0.44
'0:18.910',0.33
'0:18.914',0.94
'0:18.918',1.57
'0:18.922',2.24
'0:18.926',3.01
'0:18.930',3.84
'0:18.934',4.56
'0:18.938',5.09
'0:18.941',5.24
'0:18.945',5.09
'0:18.949',4.75
'0:18.953',4.41
'0:18.957',3.84
'0:18.961',3.14
'0:18.965',2.86
'0:18.969',2.87
'0:18.973',2.48
'0:18.977',1.66
'0:18.980',0.89
'0:18.984',0.54
'0:18.988',0.69
'0:18.992',0.76
'0:18.996',0.79
'0:19.000',0.91
'0:19.004',1.03
'0:19.008',0.93
'0:19.012',1.01
'0:19.016',1.13
'0:19.020',1.18
'0:19.023',1.29
'0:19.027',1.31
'0:19.031',1.11
'0:19.035',0.65
'0:19.039',0.09
'0:19.043',-0.63
'0:19.047',-1.02
'0:19.051',-0.78
'0:19.055',-0.83
'0:19.059',-1
'0:19.063',-0.9
'0:19.066',-1.1
'0:19.070',-1.44
'0:19.074',-2.05
'0:19.078',-2.36
'0:19.082',-2.32
'0:19.086',-2.52
'0:19.090',-2.53
'0:19.094',-2.16
'0:19.098',-0.95
'0:19.102',2.25
'0:19.105',7.71
'0:19.109',13.74
'0:19.113',18.86
'0:19.117',22.84
'0:19.121',24.71
'0:19.125',21.7
'0:19.129',13.36
'0:19.133',3.9
'0:19.137',-3.08
'0:19.141',-7.04
'0:19.145',-8.66
'0:19.148',-9.09
'0:19.152',-9.12
'0:19.156',-8.65
'0:19.160',-7.87
'0:19.164',-7.12
'0:19.168',-6.54
'0:19.172',-5.94
'0:19.176',-5.17
'0:19.180',-4.18
'0:19.184',-3.63
'0:19.188',-3.31
'0:19.191',-2.87
'0:19.195',-2.65
'0:19.199',-2.71
'0:19.203',-2.42
'0:19.207',-1.59
'0:19.211',-0.79
'0:19.215',-0.23
'0:19.219',0.37
'0:19.223',0.84
'0:19.227',1.48
'0:19.230',2.46
'0:19.234',3.33
'0:19.238',3.86
'0:19.242',4.4
'0:19.246',5.28
'0:19.250',6.46
'0:19.254',6.57
'0:19.258',5.61
'0:19.262',4.59
'0:19.266',4.04
'0:19.270',3.22
'0:19.273',2.09
'0:19.277',0.96
'0:19.281',-0.17
'0:19.285',-0.43
'0:19.289',-0.3
'0:19.293',-0.48
'0:19.297',-0.26
'0:19.301',-0.05
'0:19.305',-0.05
'0:19.309',-0.12
'0:19.313',-0.04
'0:19.316',-0.17
'0:19.320',-0.38
'0:19.324',-0.29
'0:19.328',-0.05
'0:19.332',0.1
'0:19.336',0.22
'0:19.340',0.34
'0:19.344',0.05
'0:19.348',-0.24
'0:19.352',-0.44
'0:19.355',-0.71
'0:19.359',-1.23
'0:19.363',-1.66
'0:19.367',-1.76
'0:19.371',-2.18
'0:19.375',-2.43
'0:19.379',-2.31
'0:19.383',-2.56
'0:19.387',-2.61
'0:19.391',-3
'0:19.395',-3.16
'0:19.398',-3.02
'0:19.402',-3.19
'0:19.406',-3.21
'0:19.410',-2.73
'0:19.414',-1.24
'0:19.418',1.9
'0:19.422',6.95
'0:19.426',12.72
'0:19.430',17.84
'0:19.434',21.14
'0:19.438',21.79
'0:19.441',18.22
'0:19.445',10.49
'0:19.449',1.84
'0:19.453',-4.69
'0:19.457',-8.75
'0:19.461',-10.4
'0:19.465',-10.48
'0:19.469',-10.09
'0:19.473',-9.51
'0:19.477',-9.28
'0:19.480',-9.23
'0:19.484',-8.72
'0:19.488',-7.93
'0:19.492',-7.61
'0:19.496',-7.36
'0:19.500',-6.91
'0:19.504',-5.83
'0:19.508',-4.88
'0:19.512',-4.15
'0:19.516',-3.68
'0:19.520',-3.46
'0:19.523',-3.11
'0:19.527',-2.59
