'0:00.000',-0.66
'0:00.004',-0.5
'0:00.008',-0.21
'0:00.012',0.06
'0:00.016',0.47
'0:00.020',1.08
'0:00.023',1.23
'0:00.027',0.9
'0:00.031',0.8
'0:00.035',0.96
'0:00.039',0.96
'0:00.043',0.88
'0:00.047',0.72
'0:00.051',0.77
'0:00.055',1.02
'0:00.059',1.33
'0:00.063',1.35
'0:00.066',1.25
'0:00.070',1.09
'0:00.074',0.87
'0:00.078',0.22
'0:00.082',-0.4
'0:00.086',-1.03
'0:00.090',-1.42
'0:00.094',-1.57
'0:00.098',-1.89
'0:00.102',-2.38
'0:00.105',-2.82
'0:00.109',-2.9
'0:00.113',-2.82
'0:00.117',-3.07
'0:00.121',-3.31
'0:00.125',-3.27
'0:00.129',-3.1
'0:00.133',-3.13
'0:00.137',-3.32
'0:00.141',-3.5
'0:00.145',-2.91
'0:00.148',-1.15
'0:00.152',1.61
'0:00.156',4.75
'0:00.160',6.75
'0:00.164',7.88
'0:00.168',7.07
'0:00.172',4.07
'0:00.176',0.84
'0:00.180',-1.74
'0:00.184',-3.63
'0:00.188',-4.5
'0:00.191',-4.65
'0:00.195',-4.44
'0:00.199',-3.82
'0:00.203',-3.2
'0:00.207',-2.57
'0:00.211',-2.15
'0:00.215',-2.04
'0:00.219',-2.12
'0:00.223',-1.96
'0:00.227',-1.57
'0:00.230',-1.31
'0:00.234',-1.13
'0:00.238',-0.91
'0:00.242',-0.71
'0:00.246',-0.49
'0:00.250',-0.2
'0:00.254',-0.07
'0:00.258',0.26
'0:00.262',0.73
'0:00.266',0.99
'0:00.270',0.92
'0:00.273',0.78
'0:00.277',0.77
'0:00.281',0.85
'0:00.285',0.96
'0:00.289',1.32
'0:00.293',1.62
'0:00.297',1.7
'0:00.301',1.68
'0:00.305',1.79
'0:00.309',1.77
'0:00.313',1.49
'0:00.316',1.08
'0:00.320',0.77
'0:00.324',0.34
'0:00.328',-0.12
'0:00.332',-0.34
'0:00.336',-0.46
'0:00.340',-0.44
'0:00.344',-0.41
'0:00.348',-0.62
'0:00.352',-0.68
'0:00.355',-0.78
'0:00.359',-0.91
'0:00.363',-0.86
'0:00.367',-0.56
'0:00.371',-0.26
'0:00.375',0.02
'0:00.379',0.25
'0:00.383',0.4
'0:00.387',0.55
'0:00.391',0.71
'0:00.395',0.62
'0:00.398',0.54
'0:00.402',0.6
'0:00.406',0.78
'0:00.410',1.01
'0:00.414',1.1
'0:00.418',1.13
'0:00.422',1.17
'0:00.426',1.33
'0:00.430',1.37
'0:00.434',1.33
'0:00.438',1.04
'0:00.441',0.5
'0:00.445',-0.23
'0:00.449',-1.02
'0:00.453',-1.51
'0:00.457',-1.74
'0:00.461',-2.01
'0:00.465',-2.23
'0:00.469',-2.47
'0:00.473',-2.68
'0:00.477',-3.09
'0:00.480',-3.41
'0:00.484',-3.43
'0:00.488',-3.43
'0:00.492',-3.42
'0:00.496',-3.85
'0:00.500',-3.91
'0:00.504',-3.14
'0:00.508',-1.12
'0:00.512',1.7
'0:00.516',4.76
'0:00.520',6.89
'0:00.523',7.8
'0:00.527',6.88
'0:00.531',3.66
'0:00.535',0.17
'0:00.539',-2.7
'0:00.543',-4.74
'0:00.547',-5.9
'0:00.551',-6.32
'0:00.555',-6.3
'0:00.559',-5.86
'0:00.563',-5.22
'0:00.566',-4.67
'0:00.570',-4.25
'0:00.574',-3.61
'0:00.578',-3.44
'0:00.582',-3.39
'0:00.586',-3.11
'0:00.590',-3.01
'0:00.594',-2.82
'0:00.598',-2.44
'0:00.602',-2.03
'0:00.605',-1.69
'0:00.609',-1.63
'0:00.613',-1.46
'0:00.617',-0.91
'0:00.621',-0.24
'0:00.625',0.31
'0:00.629',0.41
'0:00.633',0.55
'0:00.637',0.68
'0:00.641',0.61
'0:00.645',0.44
'0:00.648',0.59
'0:00.652',0.93
'0:00.656',1.18
'0:00.660',1.41
'0:00.664',1.42
'0:00.668',1.21
'0:00.672',0.98
'0:00.676',1.13
'0:00.680',1.39
'0:00.684',1.24
'0:00.688',0.54
'0:00.691',-0.29
'0:00.695',-0.8
'0:00.699',-1.12
'0:00.703',-1.29
'0:00.707',-1.37
'0:00.711',-1.55
'0:00.715',-1.65
'0:00.719',-1.54
'0:00.723',-1.51
'0:00.727',-1.55
'0:00.730',-1.54
'0:00.734',-1.3
'0:00.738',-1.36
'0:00.742',-1.64
'0:00.746',-1.4
'0:00.750',-0.79
'0:00.754',-0.54
'0:00.758',-0.67
'0:00.762',-1.06
'0:00.766',-1.31
'0:00.770',-1.14
'0:00.773',-0.69
'0:00.777',-0.31
'0:00.781',0.02
'0:00.785',-0.15
'0:00.789',-0.31
'0:00.793',-0.47
'0:00.797',-0.72
'0:00.801',-0.98
'0:00.805',-1.2
'0:00.809',-1.71
'0:00.813',-2.39
'0:00.816',-2.93
'0:00.820',-3.47
'0:00.824',-3.88
'0:00.828',-4.08
'0:00.832',-4.16
'0:00.836',-4.26
'0:00.840',-4.18
'0:00.844',-4.15
'0:00.848',-4.25
'0:00.852',-4.23
'0:00.855',-4.22
'0:00.859',-4.55
'0:00.863',-4.34
'0:00.867',-3.29
'0:00.871',-1.88
'0:00.875',0.01
'0:00.879',2.41
'0:00.883',4.46
'0:00.887',5.5
'0:00.891',6.08
'0:00.895',4.65
'0:00.898',1.17
'0:00.902',-2.19
'0:00.906',-4.46
'0:00.910',-5.27
'0:00.914',-5.29
'0:00.918',-4.91
'0:00.922',-4.22
'0:00.926',-3.44
'0:00.930',-2.52
'0:00.934',-1.65
'0:00.938',-1.25
'0:00.941',-1.28
'0:00.945',-1.12
'0:00.949',-0.78
'0:00.953',-0.34
'0:00.957',0
'0:00.961',0.15
'0:00.965',0.21
'0:00.969',0.33
'0:00.973',0.55
'0:00.977',0.83
'0:00.980',1.26
'0:00.984',1.61
'0:00.988',1.85
'0:00.992',1.97
'0:00.996',2.16
'0:01.000',2.53
'0:01.004',2.91
'0:01.008',3.09
'0:01.012',3.19
'0:01.016',3.17
'0:01.020',3.01
'0:01.023',2.73
'0:01.027',2.43
'0:01.031',2.29
'0:01.035',2.25
'0:01.039',2.22
'0:01.043',2.11
'0:01.047',1.73
'0:01.051',1.49
'0:01.055',1.44
'0:01.059',1.46
'0:01.063',1.51
'0:01.066',1.46
'0:01.070',1.41
'0:01.074',1.48
'0:01.078',1.6
'0:01.082',1.61
'0:01.086',1.57
'0:01.090',1.45
'0:01.094',1.19
'0:01.098',1.02
'0:01.102',1.09
'0:01.105',1.26
'0:01.109',1.5
'0:01.113',1.68
'0:01.117',1.72
'0:01.121',1.55
'0:01.125',1.39
'0:01.129',1.44
'0:01.133',1.44
'0:01.137',1.48
'0:01.141',1.75
'0:01.145',2.24
'0:01.148',2.64
'0:01.152',2.58
'0:01.156',2.29
'0:01.160',1.83
'0:01.164',1.35
'0:01.168',0.7
'0:01.172',0.09
'0:01.176',-0.46
'0:01.180',-0.85
'0:01.184',-1.19
'0:01.188',-1.55
'0:01.191',-1.74
'0:01.195',-1.86
'0:01.199',-1.86
'0:01.203',-1.75
'0:01.207',-1.53
'0:01.211',-1.21
'0:01.215',-0.95
'0:01.219',-0.83
'0:01.223',-0.94
'0:01.227',-0.77
'0:01.230',-0.22
'0:01.234',0.74
'0:01.238',2.28
'0:01.242',4.79
'0:01.246',7.19
'0:01.250',8.28
'0:01.254',8.26
'0:01.258',6.8
'0:01.262',3.59
'0:01.266',0.65
'0:01.270',-1.29
'0:01.273',-2.46
'0:01.277',-2.75
'0:01.281',-2.4
'0:01.285',-1.84
'0:01.289',-1.1
'0:01.293',-0.41
'0:01.297',0.1
'0:01.301',0.38
'0:01.305',0.62
'0:01.309',0.76
'0:01.313',0.87
'0:01.316',0.95
'0:01.320',1.06
'0:01.324',1.25
'0:01.328',1.57
'0:01.332',1.81
'0:01.336',2.02
'0:01.340',2.03
'0:01.344',2
'0:01.348',1.97
'0:01.352',1.95
'0:01.355',1.99
'0:01.359',2.29
'0:01.363',2.7
'0:01.367',3.18
'0:01.371',3.59
'0:01.375',3.77
'0:01.379',3.8
'0:01.383',3.78
'0:01.387',3.96
'0:01.391',4.08
'0:01.395',4.37
'0:01.398',4.51
'0:01.402',4.35
'0:01.406',4.02
'0:01.410',3.83
'0:01.414',3.76
'0:01.418',3.64
'0:01.422',3.5
'0:01.426',3.24
'0:01.430',2.93
'0:01.434',2.46
'0:01.438',2.09
'0:01.441',2.04
'0:01.445',2.15
'0:01.449',2.19
'0:01.453',2.24
'0:01.457',2.22
'0:01.461',1.93
'0:01.465',1.68
'0:01.469',1.64
'0:01.473',1.49
'0:01.477',1.52
'0:01.480',1.51
'0:01.484',1.45
'0:01.488',1.34
'0:01.492',1.21
'0:01.496',1
'0:01.500',1.01
'0:01.504',1.23
'0:01.508',1.37
'0:01.512',1.41
'0:01.516',1.3
'0:01.520',1.15
'0:01.523',0.99
'0:01.527',0.65
'0:01.531',0.28
'0:01.535',-0.32
'0:01.539',-0.94
'0:01.543',-1.15
'0:01.547',-1.5
'0:01.551',-2.16
'0:01.555',-2.74
'0:01.559',-3.12
'0:01.563',-3.33
'0:01.566',-3.25
'0:01.570',-2.94
'0:01.574',-2.73
'0:01.578',-2.84
'0:01.582',-3.27
'0:01.586',-3.95
'0:01.590',-4.43
'0:01.594',-4.21
'0:01.598',-3.42
'0:01.602',-1.64
'0:01.605',0.61
'0:01.609',3.27
'0:01.613',5.4
'0:01.617',6.73
'0:01.621',6.74
'0:01.625',4.01
'0:01.629',0.33
'0:01.633',-2.76
'0:01.637',-5.03
'0:01.641',-6.17
'0:01.645',-6.21
'0:01.648',-5.6
'0:01.652',-4.53
'0:01.656',-3.45
'0:01.660',-2.79
'0:01.664',-2.62
'0:01.668',-2.36
'0:01.672',-1.99
'0:01.676',-1.81
'0:01.680',-1.68
'0:01.684',-1.61
'0:01.688',-1.54
'0:01.691',-1.32
'0:01.695',-0.9
'0:01.699',-0.48
'0:01.703',-0.33
'0:01.707',-0.19
'0:01.711',-0.21
'0:01.715',-0.14
'0:01.719',0.35
'0:01.723',1.01
'0:01.727',1.48
'0:01.730',1.72
'0:01.734',1.83
'0:01.738',1.68
'0:01.742',1.25
'0:01.746',1.07
'0:01.750',1.39
'0:01.754',1.9
'0:01.758',2.27
'0:01.762',2.17
'0:01.766',1.86
'0:01.770',1.58
'0:01.773',1.42
'0:01.777',1.5
'0:01.781',1.63
'0:01.785',1.45
'0:01.789',1.22
'0:01.793',1.16
'0:01.797',1.07
'0:01.801',1.08
'0:01.805',0.97
'0:01.809',0.63
'0:01.813',0.26
'0:01.816',-0.05
'0:01.820',-0.18
'0:01.824',-0.05
'0:01.828',0.12
'0:01.832',0.34
'0:01.836',0.5
'0:01.840',0.63
'0:01.844',0.59
'0:01.848',0.38
'0:01.852',0.47
'0:01.855',0.68
'0:01.859',0.64
'0:01.863',0.61
'0:01.867',0.78
'0:01.871',1.1
'0:01.875',1.34
'0:01.879',1.37
'0:01.883',1.18
'0:01.887',0.9
'0:01.891',0.52
'0:01.895',-0.01
'0:01.898',-0.64
'0:01.902',-1.34
'0:01.906',-1.8
'0:01.910',-1.95
'0:01.914',-2.1
'0:01.918',-2.57
'0:01.922',-3.12
'0:01.926',-3.38
'0:01.930',-3.39
'0:01.934',-3.43
'0:01.938',-3.46
'0:01.941',-3.48
'0:01.945',-3.77
'0:01.949',-4.19
'0:01.953',-4.47
'0:01.957',-4.21
'0:01.961',-3.07
'0:01.965',-1.15
'0:01.969',1.71
'0:01.973',5.22
'0:01.977',7.85
'0:01.980',9.04
'0:01.984',8.07
'0:01.988',4.43
'0:01.992',0.15
'0:01.996',-3.58
'0:02.000',-6.09
'0:02.004',-7.24
'0:02.008',-7.44
'0:02.012',-7.14
'0:02.016',-6.68
'0:02.020',-6.09
'0:02.023',-5.4
'0:02.027',-4.78
'0:02.031',-4.34
'0:02.035',-3.88
'0:02.039',-3.4
'0:02.043',-3.04
'0:02.047',-2.75
'0:02.051',-2.34
'0:02.055',-2.02
'0:02.059',-1.72
'0:02.063',-1.62
'0:02.066',-1.66
'0:02.070',-1.5
'0:02.074',-1.32
'0:02.078',-1.18
'0:02.082',-0.91
'0:02.086',-0.85
'0:02.090',-1.01
'0:02.094',-1.06
'0:02.098',-0.69
'0:02.102',-0.33
'0:02.105',0.03
'0:02.109',0.23
'0:02.113',0.43
'0:02.117',0.7
'0:02.121',0.89
'0:02.125',0.93
'0:02.129',0.9
'0:02.133',0.69
'0:02.137',0.38
'0:02.141',0.33
'0:02.145',0.29
'0:02.148',0.17
'0:02.152',0.25
'0:02.156',0.1
'0:02.160',-0.22
'0:02.164',-0.76
'0:02.168',-1.36
'0:02.172',-1.64
'0:02.176',-1.82
'0:02.180',-1.67
'0:02.184',-1.54
'0:02.188',-1.64
'0:02.191',-1.74
'0:02.195',-1.44
'0:02.199',-1.18
'0:02.203',-1.12
'0:02.207',-1
'0:02.211',-0.89
'0:02.215',-0.7
'0:02.219',-0.27
'0:02.223',0.22
'0:02.227',0.45
'0:02.230',0.31
'0:02.234',0.39
'0:02.238',0.69
'0:02.242',0.66
'0:02.246',0.25
'0:02.250',0.2
'0:02.254',0.21
'0:02.258',0.22
'0:02.262',0.21
'0:02.266',-0.31
'0:02.270',-1.23
'0:02.273',-2.07
'0:02.277',-2.55
'0:02.281',-2.97
'0:02.285',-3.16
'0:02.289',-3.21
'0:02.293',-3.03
'0:02.297',-3.05
'0:02.301',-3.31
'0:02.305',-3.54
'0:02.309',-3.64
'0:02.313',-3.85
'0:02.316',-4.2
'0:02.320',-4.21
'0:02.324',-3.62
'0:02.328',-2.61
'0:02.332',-1.01
'0:02.336',1.63
'0:02.340',4.19
'0:02.344',5.41
'0:02.348',5.56
'0:02.352',3.52
'0:02.355',0.01
'0:02.359',-2.98
'0:02.363',-4.94
'0:02.367',-6.06
'0:02.371',-6.54
'0:02.375',-6.47
'0:02.379',-6.08
'0:02.383',-5.29
'0:02.387',-4.55
'0:02.391',-4.26
'0:02.395',-3.99
'0:02.398',-3.63
'0:02.402',-3.29
'0:02.406',-2.8
'0:02.410',-2.36
'0:02.414',-1.99
'0:02.418',-1.78
'0:02.422',-1.73
'0:02.426',-1.67
'0:02.430',-1.86
'0:02.434',-2.15
'0:02.438',-2.02
'0:02.441',-1.67
'0:02.445',-1.36
'0:02.449',-1.02
'0:02.453',-0.57
'0:02.457',0.03
'0:02.461',0.61
'0:02.465',0.81
'0:02.469',0.77
'0:02.473',0.89
'0:02.477',1.26
'0:02.480',1.7
'0:02.484',2.13
'0:02.488',2.35
'0:02.492',2.51
'0:02.496',2.35
'0:02.500',2.01
'0:02.504',1.79
'0:02.508',1.6
'0:02.512',1.24
'0:02.516',0.63
'0:02.520',0.02
'0:02.523',-0.26
'0:02.527',-0.35
'0:02.531',-0.52
'0:02.535',-0.7
'0:02.539',-0.65
'0:02.543',-0.29
'0:02.547',0.16
'0:02.551',0.66
'0:02.555',0.76
'0:02.559',0.74
'0:02.563',0.91
'0:02.566',1.11
'0:02.570',1.22
'0:02.574',0.95
'0:02.578',0.74
'0:02.582',1.06
'0:02.586',1.26
'0:02.590',1.32
'0:02.594',1.41
'0:02.598',1.48
'0:02.602',1.64
'0:02.605',1.89
'0:02.609',2.13
'0:02.613',1.83
'0:02.617',1.55
'0:02.621',1.38
'0:02.625',1.12
'0:02.629',0.69
'0:02.633',0.43
'0:02.637',0.29
'0:02.641',-0.04
'0:02.645',-0.42
'0:02.648',-0.47
'0:02.652',-0.54
'0:02.656',-0.71
'0:02.660',-0.9
'0:02.664',-1.03
'0:02.668',-1.16
'0:02.672',-1.24
'0:02.676',-1.4
'0:02.680',-1.68
'0:02.684',-1.97
'0:02.688',-1.7
'0:02.691',-0.69
'0:02.695',0.94
'0:02.699',3.13
'0:02.703',4.81
'0:02.707',5.39
'0:02.711',5.26
'0:02.715',3.4
'0:02.719',0.36
'0:02.723',-2.17
'0:02.727',-3.87
'0:02.730',-4.54
'0:02.734',-4.27
'0:02.738',-3.64
'0:02.742',-2.96
'0:02.746',-2.38
'0:02.750',-1.72
'0:02.754',-0.99
'0:02.758',-0.34
'0:02.762',-0.09
'0:02.766',0.01
'0:02.770',0.28
'0:02.773',0.38
'0:02.777',0.6
'0:02.781',0.73
'0:02.785',0.83
'0:02.789',0.99
'0:02.793',1.32
'0:02.797',1.63
'0:02.801',1.87
'0:02.805',2.08
'0:02.809',2.37
'0:02.813',2.6
'0:02.816',2.77
'0:02.820',3.07
'0:02.824',3.41
'0:02.828',3.71
'0:02.832',4.02
'0:02.836',4.16
'0:02.840',4.06
'0:02.844',4.01
'0:02.848',4.18
'0:02.852',4.37
'0:02.855',4.68
'0:02.859',4.93
'0:02.863',5.02
'0:02.867',4.96
'0:02.871',4.81
'0:02.875',4.75
'0:02.879',4.67
'0:02.883',4.29
'0:02.887',3.81
'0:02.891',3.45
'0:02.895',3.19
'0:02.898',2.83
'0:02.902',2.57
'0:02.906',2.46
'0:02.910',2.28
'0:02.914',2.2
'0:02.918',2.23
'0:02.922',2
'0:02.926',2.06
'0:02.930',2.22
'0:02.934',2.28
'0:02.938',2.29
'0:02.941',2.22
'0:02.945',2.13
'0:02.949',2.03
'0:02.953',2.02
'0:02.957',2.05
'0:02.961',2.08
'0:02.965',2.16
'0:02.969',2.42
'0:02.973',2.71
'0:02.977',2.83
'0:02.980',2.74
'0:02.984',2.4
'0:02.988',1.89
'0:02.992',1.21
'0:02.996',0.66
'0:03.000',0.4
'0:03.004',0.13
'0:03.008',-0.15
'0:03.012',-0.35
'0:03.016',-0.59
'0:03.020',-0.71
'0:03.023',-0.64
'0:03.027',-0.8
'0:03.031',-0.79
'0:03.035',-1.01
'0:03.039',-1.52
'0:03.043',-2.07
'0:03.047',-2.18
'0:03.051',-1.72
'0:03.055',-0.69
'0:03.059',1.05
'0:03.063',3.75
'0:03.066',6.64
'0:03.070',8.54
'0:03.074',9.53
'0:03.078',8.38
'0:03.082',4.91
'0:03.086',1.51
'0:03.090',-1.04
'0:03.094',-2.67
'0:03.098',-3.54
'0:03.102',-3.77
'0:03.105',-3.58
'0:03.109',-3.01
'0:03.113',-2.4
'0:03.117',-1.83
'0:03.121',-1.45
'0:03.125',-1.18
'0:03.129',-0.72
'0:03.133',-0.17
'0:03.137',-0.02
'0:03.141',-0.09
'0:03.145',-0.21
'0:03.148',-0.47
'0:03.152',-0.66
'0:03.156',-0.62
'0:03.160',-0.59
'0:03.164',-0.4
'0:03.168',-0.04
'0:03.172',0.31
'0:03.176',0.53
'0:03.180',0.56
'0:03.184',0.51
'0:03.188',0.6
'0:03.191',0.7
'0:03.195',0.95
'0:03.199',1.11
'0:03.203',1.26
'0:03.207',1.65
'0:03.211',2.11
'0:03.215',2.04
'0:03.219',1.89
'0:03.223',1.63
'0:03.227',1.46
'0:03.230',1.32
'0:03.234',1.26
'0:03.238',1.18
'0:03.242',0.72
'0:03.246',0.22
'0:03.250',-0.06
'0:03.254',-0.3
'0:03.258',-0.54
'0:03.262',-0.74
'0:03.266',-0.91
'0:03.270',-0.91
'0:03.273',-1.14
'0:03.277',-1.26
'0:03.281',-0.89
'0:03.285',-0.76
'0:03.289',-0.3
'0:03.293',0.29
'0:03.297',0.58
'0:03.301',0.48
'0:03.305',0.12
'0:03.309',0.11
'0:03.313',0.29
'0:03.316',0.26
'0:03.320',0.31
'0:03.324',0.36
'0:03.328',0.63
'0:03.332',1.23
'0:03.336',1.45
'0:03.340',1.01
'0:03.344',0.5
'0:03.348',-0.05
'0:03.352',-0.49
'0:03.355',-0.8
'0:03.359',-0.95
'0:03.363',-0.92
'0:03.367',-0.92
'0:03.371',-0.96
'0:03.375',-1.3
'0:03.379',-2.07
'0:03.383',-2.59
'0:03.387',-2.78
'0:03.391',-3.2
'0:03.395',-3.23
'0:03.398',-3.05
'0:03.402',-3.05
'0:03.406',-3.09
'0:03.410',-2.89
'0:03.414',-2.52
'0:03.418',-1.75
'0:03.422',-0.23
'0:03.426',2.04
'0:03.430',5.32
'0:03.434',8
'0:03.438',9.56
'0:03.441',9.19
'0:03.445',5.92
'0:03.449',2.03
'0:03.453',-1.54
'0:03.457',-4.18
'0:03.461',-5.37
'0:03.465',-5.42
'0:03.469',-5
'0:03.473',-4.58
'0:03.477',-4.12
'0:03.480',-3.77
'0:03.484',-3.71
'0:03.488',-3.55
'0:03.492',-3.28
'0:03.496',-3.01
'0:03.500',-2.81
'0:03.504',-2.53
'0:03.508',-2.28
'0:03.512',-2.08
'0:03.516',-1.86
'0:03.520',-1.76
'0:03.523',-1.59
'0:03.527',-1.22
'0:03.531',-1
'0:03.535',-1.05
'0:03.539',-1.01
'0:03.543',-0.79
'0:03.547',-0.4
'0:03.551',0.01
'0:03.555',0.13
'0:03.559',0.05
'0:03.563',0.06
'0:03.566',0.26
'0:03.570',0.37
'0:03.574',0.36
'0:03.578',0.12
'0:03.582',-0.16
'0:03.586',-0.29
'0:03.590',-0.24
'0:03.594',-0.28
'0:03.598',-0.42
'0:03.602',-0.67
'0:03.605',-0.86
'0:03.609',-0.96
'0:03.613',-1.2
'0:03.617',-1.51
'0:03.621',-1.67
'0:03.625',-1.86
'0:03.629',-2.07
'0:03.633',-2.13
'0:03.637',-2.4
'0:03.641',-2.48
'0:03.645',-2.57
'0:03.648',-2.66
'0:03.652',-2.65
'0:03.656',-2.48
'0:03.660',-2.03
'0:03.664',-1.69
'0:03.668',-1.4
'0:03.672',-1.26
'0:03.676',-1.12
'0:03.680',-0.87
'0:03.684',-0.62
'0:03.688',-0.02
'0:03.691',0.58
'0:03.695',0.83
'0:03.699',0.81
'0:03.703',0.96
'0:03.707',1.1
'0:03.711',1.14
'0:03.715',0.88
'0:03.719',0.42
'0:03.723',0.07
'0:03.727',-0.16
'0:03.730',-0.37
'0:03.734',-0.68
'0:03.738',-0.81
'0:03.742',-0.73
'0:03.746',-0.61
'0:03.750',-0.61
'0:03.754',-0.87
'0:03.758',-1.33
'0:03.762',-1.9
'0:03.766',-2.58
'0:03.770',-3.27
'0:03.773',-3.96
'0:03.777',-4.15
'0:03.781',-3.64
'0:03.785',-2.57
'0:03.789',-0.89
'0:03.793',1.76
'0:03.797',4.31
'0:03.801',5.69
'0:03.805',6.07
'0:03.809',4.44
'0:03.813',1.27
'0:03.816',-1.86
'0:03.820',-4.41
'0:03.824',-5.69
'0:03.828',-6.31
'0:03.832',-6.08
'0:03.836',-5.4
'0:03.840',-4.84
'0:03.844',-3.95
'0:03.848',-3.29
'0:03.852',-3.07
'0:03.855',-3.06
'0:03.859',-3.19
'0:03.863',-3.11
'0:03.867',-2.75
'0:03.871',-2.45
'0:03.875',-2.29
'0:03.879',-2.18
'0:03.883',-1.85
'0:03.887',-1.38
'0:03.891',-0.72
'0:03.895',-0.46
'0:03.898',-0.14
'0:03.902',0.27
'0:03.906',0.4
'0:03.910',0.72
'0:03.914',1.12
'0:03.918',1.57
'0:03.922',1.89
'0:03.926',2.08
'0:03.930',2.31
'0:03.934',2.48
'0:03.938',2.67
'0:03.941',3.05
'0:03.945',3.4
'0:03.949',3.49
'0:03.953',3.3
'0:03.957',2.8
'0:03.961',1.96
'0:03.965',0.99
'0:03.969',0.35
'0:03.973',0.33
'0:03.977',0.44
'0:03.980',0.29
'0:03.984',0.05
'0:03.988',-0.44
'0:03.992',-1.14
'0:03.996',-1.51
'0:04.000',-1.35
'0:04.004',-1.1
'0:04.008',-0.79
'0:04.012',-0.63
'0:04.016',-0.69
'0:04.020',-0.45
'0:04.023',-0.47
'0:04.027',-0.73
'0:04.031',-0.74
'0:04.035',-0.68
'0:04.039',-0.75
'0:04.043',-0.69
'0:04.047',-0.6
'0:04.051',-0.7
'0:04.055',-0.59
'0:04.059',-0.43
'0:04.063',-0.33
'0:04.066',-0.23
'0:04.070',0.07
'0:04.074',0.04
'0:04.078',-0.28
'0:04.082',-0.84
'0:04.086',-1.33
'0:04.090',-1.75
'0:04.094',-2.13
'0:04.098',-2.78
'0:04.102',-3.38
'0:04.105',-4.59
'0:04.109',-15.41
'0:04.113',-27.58
'0:04.117',-30.92
'0:04.121',-20.82
'0:04.125',-10.69
'0:04.129',-3.93
'0:04.133',-0.24
'0:04.137',1.32
'0:04.141',2.15
'0:04.145',2.95
'0:04.148',3.94
'0:04.152',5.18
'0:04.156',7.14
'0:04.160',8.96
'0:04.164',9.61
'0:04.168',9.55
'0:04.172',8.2
'0:04.176',4.97
'0:04.180',2.01
'0:04.184',0.25
'0:04.188',-0.52
'0:04.191',-0.78
'0:04.195',-0.53
'0:04.199',-0.23
'0:04.203',0.15
'0:04.207',0.76
'0:04.211',1.57
'0:04.215',2
'0:04.219',1.8
'0:04.223',1.78
'0:04.227',2.26
'0:04.230',2.95
'0:04.234',3.65
'0:04.238',3.99
'0:04.242',3.8
'0:04.246',3.23
'0:04.250',2.74
'0:04.254',2.93
'0:04.258',3.21
'0:04.262',3.38
'0:04.266',3.58
'0:04.270',3.85
'0:04.273',4.08
'0:04.277',4.34
'0:04.281',4.53
'0:04.285',4.47
'0:04.289',4.25
'0:04.293',4.28
'0:04.297',4.65
'0:04.301',5.07
'0:04.305',5.41
'0:04.309',5.73
'0:04.313',5.9
'0:04.316',5.62
'0:04.320',5.13
'0:04.324',4.66
'0:04.328',4.36
'0:04.332',4.04
'0:04.336',3.62
'0:04.340',3.04
'0:04.344',2.45
'0:04.348',1.88
'0:04.352',1.52
'0:04.355',1.28
'0:04.359',1.03
'0:04.363',0.87
'0:04.367',1.07
'0:04.371',1.32
'0:04.375',1.37
'0:04.379',1.45
'0:04.383',1.61
'0:04.387',1.66
'0:04.391',1.63
'0:04.395',1.7
'0:04.398',1.78
'0:04.402',1.78
'0:04.406',1.67
'0:04.410',1.59
'0:04.414',1.59
'0:04.418',1.49
'0:04.422',1.28
'0:04.426',1.23
'0:04.430',1.48
'0:04.434',1.57
'0:04.438',1.23
'0:04.441',0.61
'0:04.445',-0.19
'0:04.449',-0.97
'0:04.453',-1.5
'0:04.457',-1.74
'0:04.461',-1.91
'0:04.465',-2.18
'0:04.469',-2.45
'0:04.473',-2.46
'0:04.477',-2.41
'0:04.480',-2.43
'0:04.484',-2.48
'0:04.488',-2.43
'0:04.492',-2.58
'0:04.496',-3.12
'0:04.500',-3.97
'0:04.504',-4.36
'0:04.508',-3.95
'0:04.512',-2.84
'0:04.516',-1.06
'0:04.520',1.71
'0:04.523',5.36
'0:04.527',8.22
'0:04.531',9.9
'0:04.535',9.77
'0:04.539',6.67
'0:04.543',2.97
'0:04.547',-0.14
'0:04.551',-2.08
'0:04.555',-2.62
'0:04.559',-2.8
'0:04.563',-2.48
'0:04.566',-1.92
'0:04.570',-1.51
'0:04.574',-1.26
'0:04.578',-1.51
'0:04.582',-1.79
'0:04.586',-1.8
'0:04.590',-1.63
'0:04.594',-1.24
'0:04.598',-1.21
'0:04.602',-1.53
'0:04.605',-1.7
'0:04.609',-1.45
'0:04.613',-1.14
'0:04.617',-0.66
'0:04.621',-0.41
'0:04.625',-0.37
'0:04.629',-0.35
'0:04.633',-0.09
'0:04.637',0.32
'0:04.641',0.53
'0:04.645',0.79
'0:04.648',1.01
'0:04.652',1.23
'0:04.656',1.01
'0:04.660',0.7
'0:04.664',0.74
'0:04.668',1.11
'0:04.672',1.39
'0:04.676',1.35
'0:04.680',1.18
'0:04.684',0.8
'0:04.688',0.41
'0:04.691',0.18
'0:04.695',0.31
'0:04.699',0.45
'0:04.703',0.56
'0:04.707',0.56
'0:04.711',0.72
'0:04.715',0.72
'0:04.719',0.54
'0:04.723',0.49
'0:04.727',0.51
'0:04.730',0.65
'0:04.734',1.02
'0:04.738',1.41
'0:04.742',1.1
'0:04.746',0.77
'0:04.750',0.74
'0:04.754',0.97
'0:04.758',1.6
'0:04.762',1.51
'0:04.766',1.08
'0:04.770',0.57
'0:04.773',0.34
'0:04.777',0.71
'0:04.781',0.95
'0:04.785',0.79
'0:04.789',0.74
'0:04.793',1.06
'0:04.797',1.16
'0:04.801',0.71
'0:04.805',0.06
'0:04.809',-0.64
'0:04.813',-1.09
'0:04.816',-1.09
'0:04.820',-1.52
'0:04.824',-2.31
'0:04.828',-2.92
'0:04.832',-3.2
'0:04.836',-3.4
'0:04.840',-3.53
'0:04.844',-3.43
'0:04.848',-3.36
'0:04.852',-3.77
'0:04.855',-4.04
'0:04.859',-4.08
'0:04.863',-4.52
'0:04.867',-5.09
'0:04.871',-5.41
'0:04.875',-5.06
'0:04.879',-3.6
'0:04.883',-1.12
'0:04.887',2.34
'0:04.891',5.04
'0:04.895',6.33
'0:04.898',6.44
'0:04.902',3.87
'0:04.906',0.12
'0:04.910',-3.18
'0:04.914',-5.51
'0:04.918',-6.83
'0:04.922',-7.17
'0:04.926',-7.14
'0:04.930',-7.01
'0:04.934',-6.74
'0:04.938',-6.16
'0:04.941',-5.41
'0:04.945',-4.73
'0:04.949',-4.37
'0:04.953',-4.35
'0:04.957',-4.45
'0:04.961',-4.35
'0:04.965',-4.09
'0:04.969',-3.86
'0:04.973',-3.85
'0:04.977',-3.65
'0:04.980',-2.9
'0:04.984',-2.26
'0:04.988',-2.01
'0:04.992',-1.72
'0:04.996',-1.29
'0:05.000',-0.67
'0:05.004',-0.25
'0:05.008',-0.15
'0:05.012',-0.04
'0:05.016',0.05
'0:05.020',-0.01
'0:05.023',0.02
'0:05.027',0.32
'0:05.031',0.6
'0:05.035',0.91
'0:05.039',1.18
'0:05.043',1.35
'0:05.047',1.51
'0:05.051',1.31
'0:05.055',0.87
'0:05.059',0.48
'0:05.063',0.28
'0:05.066',0.11
'0:05.070',-0.11
'0:05.074',-0.44
'0:05.078',-0.67
'0:05.082',-0.9
'0:05.086',-1.13
'0:05.090',-0.95
'0:05.094',-0.48
'0:05.098',-0.22
'0:05.102',-0.34
'0:05.105',-0.54
'0:05.109',-0.36
'0:05.113',0.12
'0:05.117',0.61
'0:05.121',1.01
'0:05.125',1.1
'0:05.129',0.93
'0:05.133',0.5
'0:05.137',0.3
'0:05.141',0.2
'0:05.145',0.06
'0:05.148',0.05
'0:05.152',0.21
'0:05.156',0.32
'0:05.160',0.3
'0:05.164',-0.03
'0:05.168',-0.4
'0:05.172',-0.47
'0:05.176',-0.69
'0:05.180',-1.08
'0:05.184',-1.55
'0:05.188',-2.18
'0:05.191',-2.75
'0:05.195',-3
'0:05.199',-3.07
'0:05.203',-3.07
'0:05.207',-3.1
'0:05.211',-3.02
'0:05.215',-3.09
'0:05.219',-3.18
'0:05.223',-3.44
'0:05.227',-4.05
'0:05.230',-4.79
'0:05.234',-4.78
'0:05.238',-3.77
'0:05.242',-2.06
'0:05.246',0.08
'0:05.250',2.67
'0:05.254',4.72
'0:05.258',5.69
'0:05.262',5.61
'0:05.266',3.13
'0:05.270',-0.55
'0:05.273',-3.43
'0:05.277',-5.4
'0:05.281',-6.45
'0:05.285',-6.78
'0:05.289',-6.61
'0:05.293',-5.99
'0:05.297',-5.11
'0:05.301',-4.1
'0:05.305',-3
'0:05.309',-1.97
'0:05.313',-1.19
'0:05.316',-0.65
'0:05.320',-0.49
'0:05.324',-0.53
'0:05.328',-0.36
'0:05.332',-0.04
'0:05.336',0.23
'0:05.340',0.5
'0:05.344',0.81
'0:05.348',1.36
'0:05.352',1.78
'0:05.355',1.97
'0:05.359',2.14
'0:05.363',2.54
'0:05.367',2.95
'0:05.371',3.42
'0:05.375',3.72
'0:05.379',3.68
'0:05.383',3.96
'0:05.387',4.49
'0:05.391',4.73
'0:05.395',4.54
'0:05.398',4.37
'0:05.402',4.13
'0:05.406',3.86
'0:05.410',3.85
'0:05.414',3.72
'0:05.418',3.05
'0:05.422',2.32
'0:05.426',1.94
'0:05.430',1.74
'0:05.434',1.61
'0:05.438',1.33
'0:05.441',1
'0:05.445',0.65
'0:05.449',0.23
'0:05.453',-0.15
'0:05.457',-0.31
'0:05.461',-0.4
'0:05.465',-0.46
'0:05.469',-0.34
'0:05.473',-0.16
'0:05.477',0.18
'0:05.480',0.5
'0:05.484',0.59
'0:05.488',0.19
'0:05.492',-0.05
'0:05.496',0.42
'0:05.500',1.09
'0:05.504',1.64
'0:05.508',1.74
'0:05.512',1.41
'0:05.516',1.11
'0:05.520',1.1
'0:05.523',1.1
'0:05.527',1
'0:05.531',0.9
'0:05.535',0.88
'0:05.539',0.72
'0:05.543',0.32
'0:05.547',-0.14
'0:05.551',-0.67
'0:05.555',-1.04
'0:05.559',-1.14
'0:05.563',-1.03
'0:05.566',-0.9
'0:05.570',-1.01
'0:05.574',-1.23
'0:05.578',-1.26
'0:05.582',-1.18
'0:05.586',-0.8
'0:05.590',-0.68
'0:05.594',-0.95
'0:05.598',-1.02
'0:05.602',-0.56
'0:05.605',0.43
'0:05.609',2.4
'0:05.613',5.1
'0:05.617',6.58
'0:05.621',6.34
'0:05.625',5.49
'0:05.629',3.25
'0:05.633',-0.09
'0:05.637',-2.82
'0:05.641',-4.3
'0:05.645',-4.67
'0:05.648',-4.43
'0:05.652',-3.75
'0:05.656',-2.77
'0:05.660',-1.97
'0:05.664',-1.52
'0:05.668',-1.4
'0:05.672',-1.18
'0:05.676',-0.66
'0:05.680',-0.3
'0:05.684',-0.03
'0:05.688',-0.02
'0:05.691',0.04
'0:05.695',0
'0:05.699',0.04
'0:05.703',0.41
'0:05.707',0.86
'0:05.711',0.97
'0:05.715',1.21
'0:05.719',1.34
'0:05.723',1.21
'0:05.727',1.14
'0:05.730',1.55
'0:05.734',2.05
'0:05.738',2.59
'0:05.742',2.82
'0:05.746',2.8
'0:05.750',2.8
'0:05.754',3.02
'0:05.758',3.23
'0:05.762',3.46
'0:05.766',3.42
'0:05.770',3.27
'0:05.773',3.31
'0:05.777',3.27
'0:05.781',3.15
'0:05.785',2.87
'0:05.789',2.39
'0:05.793',1.93
'0:05.797',1.64
'0:05.801',1.45
'0:05.805',1.48
'0:05.809',1.35
'0:05.813',0.97
'0:05.816',0.87
'0:05.820',1.12
'0:05.824',1.12
'0:05.828',0.95
'0:05.832',0.83
'0:05.836',1.1
'0:05.840',1.68
'0:05.844',2.06
'0:05.848',2.07
'0:05.852',2.14
'0:05.855',2.52
'0:05.859',2.75
'0:05.863',2.48
'0:05.867',2.15
'0:05.871',1.86
'0:05.875',1.58
'0:05.879',1.32
'0:05.883',1.21
'0:05.887',1.43
'0:05.891',1.58
'0:05.895',1.54
'0:05.898',1.09
'0:05.902',0.24
'0:05.906',-0.57
'0:05.910',-1.21
'0:05.914',-1.59
'0:05.918',-1.73
'0:05.922',-2.01
'0:05.926',-2.17
'0:05.930',-1.89
'0:05.934',-1.36
'0:05.938',-1
'0:05.941',-0.79
'0:05.945',-0.89
'0:05.949',-1.29
'0:05.953',-1.73
'0:05.957',-2.4
'0:05.961',-2.79
'0:05.965',-2.46
'0:05.969',-1.16
'0:05.973',1.01
'0:05.977',4.13
'0:05.980',6.89
'0:05.984',8.29
'0:05.988',8.61
'0:05.992',6.52
'0:05.996',2.64
'0:06.000',-0.8
'0:06.004',-2.9
'0:06.008',-3.78
'0:06.012',-4.02
'0:06.016',-3.95
'0:06.020',-3.55
'0:06.023',-3.03
'0:06.027',-2.53
'0:06.031',-2.34
'0:06.035',-2.24
'0:06.039',-2.01
'0:06.043',-1.36
'0:06.047',-0.63
'0:06.051',-0.43
'0:06.055',-0.59
'0:06.059',-0.84
'0:06.063',-1.04
'0:06.066',-0.98
'0:06.070',-0.72
'0:06.074',-0.43
'0:06.078',-0.22
'0:06.082',0.16
'0:06.086',0.33
'0:06.090',0.36
'0:06.094',0.69
'0:06.098',0.99
'0:06.102',0.92
'0:06.105',1.09
'0:06.109',1.36
'0:06.113',1.72
'0:06.117',2.27
'0:06.121',2.58
'0:06.125',2.45
'0:06.129',2.04
'0:06.133',1.79
'0:06.137',1.38
'0:06.141',0.96
'0:06.145',0.94
'0:06.148',1.1
'0:06.152',1.25
'0:06.156',0.87
'0:06.160',0.4
'0:06.164',0.23
'0:06.168',0.15
'0:06.172',0.03
'0:06.176',-0.07
'0:06.180',0.16
'0:06.184',0.58
'0:06.188',0.96
'0:06.191',0.8
'0:06.195',0.31
'0:06.199',0.08
'0:06.203',0.15
'0:06.207',0.13
'0:06.211',0.05
'0:06.215',0.07
'0:06.219',0.54
'0:06.223',1.05
'0:06.227',1.36
'0:06.230',1.5
'0:06.234',1.58
'0:06.238',1.91
'0:06.242',1.91
'0:06.246',1.62
'0:06.250',1.33
'0:06.254',1.08
'0:06.258',0.72
'0:06.262',0.22
'0:06.266',-0.32
'0:06.270',-1.01
'0:06.273',-1.8
'0:06.277',-2.04
'0:06.281',-2.2
'0:06.285',-2.29
'0:06.289',-2.35
'0:06.293',-2.55
'0:06.297',-2.46
'0:06.301',-2.24
'0:06.305',-2.28
'0:06.309',-2.5
'0:06.313',-2.97
'0:06.316',-3.65
'0:06.320',-3.94
'0:06.324',-3.54
'0:06.328',-2.65
'0:06.332',-1.24
'0:06.336',1.17
'0:06.340',4.84
'0:06.344',8.31
'0:06.348',10.62
'0:06.352',10.95
'0:06.355',7.96
'0:06.359',3.81
'0:06.363',0.16
'0:06.367',-2.6
'0:06.371',-4.57
'0:06.375',-5.89
'0:06.379',-6.05
'0:06.383',-5.37
'0:06.387',-4.58
'0:06.391',-3.94
'0:06.395',-3.51
'0:06.398',-3.64
'0:06.402',-3.96
'0:06.406',-3.93
'0:06.410',-3.76
'0:06.414',-3.47
'0:06.418',-3.09
'0:06.422',-2.67
'0:06.426',-2.19
'0:06.430',-1.6
'0:06.434',-0.83
'0:06.438',-0.32
'0:06.441',-0.4
'0:06.445',-0.83
'0:06.449',-1.3
'0:06.453',-1.3
'0:06.457',-0.87
'0:06.461',-0.67
'0:06.465',-0.9
'0:06.469',-0.38
'0:06.473',-0.36
'0:06.477',-0.49
'0:06.480',-0.47
'0:06.484',-0.37
'0:06.488',-0.06
'0:06.492',0.19
'0:06.496',0.16
'0:06.500',-0.04
'0:06.504',-0.3
'0:06.508',-0.66
'0:06.512',-0.85
'0:06.516',-0.87
'0:06.520',-0.96
'0:06.523',-1.23
'0:06.527',-1.51
'0:06.531',-1.58
'0:06.535',-1.47
'0:06.539',-1.2
'0:06.543',-1.21
'0:06.547',-1.15
'0:06.551',-0.95
'0:06.555',-0.87
'0:06.559',-0.88
'0:06.563',-1.17
'0:06.566',-1.53
'0:06.570',-1.68
'0:06.574',-1.47
'0:06.578',-1.34
'0:06.582',-1.53
'0:06.586',-1.49
'0:06.590',-0.96
'0:06.594',-0.47
'0:06.598',0.06
'0:06.602',0.22
'0:06.605',0.27
'0:06.609',0.41
'0:06.613',0.84
'0:06.617',1.4
'0:06.621',1.47
'0:06.625',1.06
'0:06.629',0.37
'0:06.633',-0.27
'0:06.637',-0.74
'0:06.641',-1.12
'0:06.645',-1.24
'0:06.648',-1.14
'0:06.652',-1.28
'0:06.656',-1.77
'0:06.660',-2.41
'0:06.664',-3.07
'0:06.668',-3.43
'0:06.672',-3.32
'0:06.676',-3.07
'0:06.680',-3.06
'0:06.684',-3.07
'0:06.688',-3.02
'0:06.691',-2.65
'0:06.695',-1.48
'0:06.699',0.43
'0:06.703',3.18
'0:06.707',5.98
'0:06.711',7.71
'0:06.715',8.45
'0:06.719',6.79
'0:06.723',2.69
'0:06.727',-0.81
'0:06.730',-3.14
'0:06.734',-4.35
'0:06.738',-4.95
'0:06.742',-5.15
'0:06.746',-4.69
'0:06.750',-3.8
'0:06.754',-2.8
'0:06.758',-1.82
'0:06.762',-1.15
'0:06.766',-0.79
'0:06.770',-0.49
'0:06.773',-0.25
'0:06.777',0.19
'0:06.781',0.39
'0:06.785',0.09
'0:06.789',-0.26
'0:06.793',-0.25
'0:06.797',-0.21
'0:06.801',-0.19
'0:06.805',-0.04
'0:06.809',0.2
'0:06.813',0.29
'0:06.816',0.46
'0:06.820',0.68
'0:06.824',1.13
'0:06.828',1.86
'0:06.832',2.56
'0:06.836',2.92
'0:06.840',3.09
'0:06.844',3.05
'0:06.848',2.96
'0:06.852',3.07
'0:06.855',3.16
'0:06.859',2.91
'0:06.863',2.5
'0:06.867',2.23
'0:06.871',1.91
'0:06.875',1.52
'0:06.879',1.03
'0:06.883',0.76
'0:06.887',0.73
'0:06.891',0.54
'0:06.895',0.16
'0:06.898',-0.33
'0:06.902',-0.63
'0:06.906',-0.47
'0:06.910',-0.15
'0:06.914',-0.07
'0:06.918',-0.19
'0:06.922',-0.02
'0:06.926',0.12
'0:06.930',0.33
'0:06.934',0.58
'0:06.938',0.78
'0:06.941',0.8
'0:06.945',1.01
'0:06.949',1.46
'0:06.953',1.37
'0:06.957',1.03
'0:06.961',0.86
'0:06.965',1.19
'0:06.969',1.66
'0:06.973',2.07
'0:06.977',2.2
'0:06.980',1.98
'0:06.984',1.88
'0:06.988',1.97
'0:06.992',1.76
'0:06.996',1.26
'0:07.000',0.83
'0:07.004',0.64
'0:07.008',0.44
'0:07.012',0.27
'0:07.016',0.28
'0:07.020',0.18
'0:07.023',-0.15
'0:07.027',-0.69
'0:07.031',-1.15
'0:07.035',-1.67
'0:07.039',-2.04
'0:07.043',-2.19
'0:07.047',-2.05
'0:07.051',-1.72
'0:07.055',-1.28
'0:07.059',-0.4
'0:07.063',1.03
'0:07.066',3.12
'0:07.070',4.82
'0:07.074',5.36
'0:07.078',5.27
'0:07.082',3.52
'0:07.086',0.25
'0:07.090',-2.6
'0:07.094',-4.4
'0:07.098',-5.25
'0:07.102',-5.25
'0:07.105',-4.72
'0:07.109',-3.92
'0:07.113',-3.03
'0:07.117',-2.38
'0:07.121',-1.74
'0:07.125',-1.1
'0:07.129',-0.8
'0:07.133',-0.61
'0:07.137',-0.34
'0:07.141',-0.17
'0:07.145',-0.1
'0:07.148',-0.12
'0:07.152',-0.01
'0:07.156',0.31
'0:07.160',0.63
'0:07.164',0.85
'0:07.168',1.26
'0:07.172',1.44
'0:07.176',1.37
'0:07.180',1.32
'0:07.184',1.32
'0:07.188',1.53
'0:07.191',1.99
'0:07.195',2.29
'0:07.199',2.67
'0:07.203',3.14
'0:07.207',3.2
'0:07.211',3.48
'0:07.215',3.84
'0:07.219',3.98
'0:07.223',3.8
'0:07.227',3.57
'0:07.230',3.2
'0:07.234',2.77
'0:07.238',2.37
'0:07.242',2.17
'0:07.246',1.93
'0:07.250',1.48
'0:07.254',1.24
'0:07.258',1.23
'0:07.262',0.91
'0:07.266',0.48
'0:07.270',-0.08
'0:07.273',-0.49
'0:07.277',-0.15
'0:07.281',0.48
'0:07.285',0.63
'0:07.289',0.76
'0:07.293',0.65
'0:07.297',0.6
'0:07.301',0.73
'0:07.305',0.87
'0:07.309',0.9
'0:07.313',0.92
'0:07.316',0.94
'0:07.320',1.13
'0:07.324',1.16
'0:07.328',1.17
'0:07.332',1.17
'0:07.336',1.1
'0:07.340',1.02
'0:07.344',0.83
'0:07.348',0.49
'0:07.352',0.01
'0:07.355',-0.41
'0:07.359',-0.62
'0:07.363',-1.06
'0:07.367',-1.53
'0:07.371',-2.08
'0:07.375',-2.67
'0:07.379',-2.99
'0:07.383',-2.93
'0:07.387',-2.75
'0:07.391',-2.77
'0:07.395',-2.7
'0:07.398',-2.63
'0:07.402',-2.6
'0:07.406',-2.66
'0:07.410',-3.06
'0:07.414',-3.12
'0:07.418',-2.79
'0:07.422',-1.72
'0:07.426',0.05
'0:07.430',2.53
'0:07.434',5.16
'0:07.438',6.83
'0:07.441',7.64
'0:07.445',6.49
'0:07.449',2.89
'0:07.453',-0.58
'0:07.457',-2.99
'0:07.461',-4.03
'0:07.465',-4.35
'0:07.469',-4.55
'0:07.473',-4.07
'0:07.477',-3.23
'0:07.480',-2.35
'0:07.484',-1.71
'0:07.488',-1.63
'0:07.492',-1.79
'0:07.496',-1.73
'0:07.500',-1.23
'0:07.504',-0.57
'0:07.508',0.05
'0:07.512',0.58
'0:07.516',0.56
'0:07.520',0.38
'0:07.523',0.1
'0:07.527',0.05
'0:07.531',0.12
'0:07.535',0.22
'0:07.539',0.01
'0:07.543',-0.12
'0:07.547',0.22
'0:07.551',0.53
'0:07.555',0.95
'0:07.559',1.2
'0:07.563',1.39
'0:07.566',1.75
'0:07.570',2.04
'0:07.574',2.43
'0:07.578',2.94
'0:07.582',3
'0:07.586',3.04
'0:07.590',2.98
'0:07.594',2.52
'0:07.598',1.92
'0:07.602',1.49
'0:07.605',1.13
'0:07.609',0.66
'0:07.613',0.53
'0:07.617',0.34
'0:07.621',0.15
'0:07.625',0.17
'0:07.629',0.15
'0:07.633',0.13
'0:07.637',-0.02
'0:07.641',-0.07
'0:07.645',-0.06
'0:07.648',0.05
'0:07.652',0.1
'0:07.656',0.34
'0:07.660',0.44
'0:07.664',0.46
'0:07.668',0.43
'0:07.672',0.3
'0:07.676',0.01
'0:07.680',0.02
'0:07.684',0.42
'0:07.688',0.68
'0:07.691',0.76
'0:07.695',0.56
'0:07.699',0.4
'0:07.703',0.22
'0:07.707',-0.11
'0:07.711',-0.5
'0:07.715',-0.84
'0:07.719',-1.24
'0:07.723',-1.55
'0:07.727',-1.73
'0:07.730',-2.29
'0:07.734',-3.01
'0:07.738',-3.48
'0:07.742',-3.49
'0:07.746',-3.29
'0:07.750',-3.19
'0:07.754',-2.97
'0:07.758',-3.17
'0:07.762',-3.51
'0:07.766',-3.94
'0:07.770',-4.26
'0:07.773',-4.29
'0:07.777',-3.82
'0:07.781',-2.83
'0:07.785',-1.06
'0:07.789',1.73
'0:07.793',5.4
'0:07.797',8.18
'0:07.801',9.97
'0:07.805',10.45
'0:07.809',7.83
'0:07.813',3.58
'0:07.816',-0.3
'0:07.820',-2.83
'0:07.824',-4.17
'0:07.828',-4.75
'0:07.832',-4.84
'0:07.836',-4.89
'0:07.840',-4.7
'0:07.844',-4.37
'0:07.848',-3.97
'0:07.852',-3.39
'0:07.855',-3.17
'0:07.859',-3.27
'0:07.863',-3.26
'0:07.867',-3.09
'0:07.871',-2.77
'0:07.875',-2.41
'0:07.879',-2.22
'0:07.883',-1.92
'0:07.887',-1.66
'0:07.891',-1.55
'0:07.895',-1.17
'0:07.898',-0.68
'0:07.902',-0.31
'0:07.906',0.13
'0:07.910',0.35
'0:07.914',0.32
'0:07.918',0.34
'0:07.922',0.3
'0:07.926',0.32
'0:07.930',0.54
'0:07.934',0.96
'0:07.938',1.25
'0:07.941',1.49
'0:07.945',1.6
'0:07.949',1.52
'0:07.953',1.13
'0:07.957',0.74
'0:07.961',0.56
'0:07.965',0.52
'0:07.969',0.32
'0:07.973',-0.07
'0:07.977',0.08
'0:07.980',0.13
'0:07.984',0.02
'0:07.988',-0.34
'0:07.992',-0.91
'0:07.996',-1.15
'0:08.000',-1.11
'0:08.004',-0.81
'0:08.008',-0.24
'0:08.012',0.18
'0:08.016',0.56
'0:08.020',0.92
'0:08.023',0.93
'0:08.027',1.29
'0:08.031',1.35
'0:08.035',1.01
'0:08.039',0.79
'0:08.043',0.85
'0:08.047',1.12
'0:08.051',1
'0:08.055',0.73
'0:08.059',0.42
'0:08.063',0.3
'0:08.066',0.1
'0:08.070',-0.09
'0:08.074',0.15
'0:08.078',0.11
'0:08.082',-0.58
'0:08.086',-1.36
'0:08.090',-2.26
'0:08.094',-3.34
'0:08.098',-4.23
'0:08.102',-4.55
'0:08.105',-4.26
'0:08.109',-3.73
'0:08.113',-3.07
'0:08.117',-2.75
'0:08.121',-2.78
'0:08.125',-3.09
'0:08.129',-3.65
'0:08.133',-4.3
'0:08.137',-4.73
'0:08.141',-4.43
'0:08.145',-3.58
'0:08.148',-2.05
'0:08.152',0.24
'0:08.156',3.59
'0:08.160',6.42
'0:08.164',7.5
'0:08.168',7.3
'0:08.172',4.51
'0:08.176',0.41
'0:08.180',-3.17
'0:08.184',-5.22
'0:08.188',-5.79
'0:08.191',-6.02
'0:08.195',-5.94
'0:08.199',-5.89
'0:08.203',-5.82
'0:08.207',-5.48
'0:08.211',-5.09
'0:08.215',-4.87
'0:08.219',-4.24
'0:08.223',-3.48
'0:08.227',-3.17
'0:08.230',-3.07
'0:08.234',-2.72
'0:08.238',-2.29
'0:08.242',-2.11
'0:08.246',-2.02
'0:08.250',-1.63
'0:08.254',-1.54
'0:08.258',-1.7
'0:08.262',-1.61
'0:08.266',-0.92
'0:08.270',0.19
'0:08.273',1.12
'0:08.277',1.48
'0:08.281',1.39
'0:08.285',1.18
'0:08.289',1.2
'0:08.293',1.48
'0:08.297',1.71
'0:08.301',1.87
'0:08.305',1.99
'0:08.309',1.98
'0:08.313',2.03
'0:08.316',2.15
'0:08.320',2.12
'0:08.324',1.95
'0:08.328',1.3
'0:08.332',0.46
'0:08.336',0.29
'0:08.340',0.37
'0:08.344',0.37
'0:08.348',0.3
'0:08.352',0.44
'0:08.355',0.43
'0:08.359',0.22
'0:08.363',-0.17
'0:08.367',-0.55
'0:08.371',-0.66
'0:08.375',-0.31
'0:08.379',0.37
'0:08.383',0.74
'0:08.387',0.65
'0:08.391',0.44
'0:08.395',0.47
'0:08.398',0.78
'0:08.402',1.24
'0:08.406',1.68
'0:08.410',1.9
'0:08.414',1.88
'0:08.418',1.66
'0:08.422',1.07
'0:08.426',0.47
'0:08.430',0.1
'0:08.434',-0.1
'0:08.438',-0.31
'0:08.441',-0.73
'0:08.445',-1.04
'0:08.449',-1.41
'0:08.453',-1.68
'0:08.457',-1.72
'0:08.461',-1.61
'0:08.465',-1.77
'0:08.469',-1.95
'0:08.473',-2.04
'0:08.477',-2.13
'0:08.480',-2.31
'0:08.484',-2.29
'0:08.488',-2.09
'0:08.492',-2.05
'0:08.496',-2.24
'0:08.500',-2.19
'0:08.504',-1.81
'0:08.508',-0.94
'0:08.512',0.44
'0:08.516',2.56
'0:08.520',4.62
'0:08.523',5.85
'0:08.527',6.16
'0:08.531',4.28
'0:08.535',0.45
'0:08.539',-3.03
'0:08.543',-5.15
'0:08.547',-5.84
'0:08.551',-5.33
'0:08.555',-4.34
'0:08.559',-3.4
'0:08.563',-2.51
'0:08.566',-1.76
'0:08.570',-1.22
'0:08.574',-0.65
'0:08.578',-0.5
'0:08.582',-0.43
'0:08.586',-0.07
'0:08.590',0.25
'0:08.594',0.28
'0:08.598',0.3
'0:08.602',0.49
'0:08.605',0.9
'0:08.609',1.22
'0:08.613',1.49
'0:08.617',1.83
'0:08.621',2.04
'0:08.625',2.33
'0:08.629',2.61
'0:08.633',2.73
'0:08.637',3.14
'0:08.641',3.73
'0:08.645',4.02
'0:08.648',4.26
'0:08.652',4.59
'0:08.656',4.88
'0:08.660',5.14
'0:08.664',5.31
'0:08.668',5.17
'0:08.672',4.68
'0:08.676',4.1
'0:08.680',3.72
'0:08.684',3.32
'0:08.688',2.82
'0:08.691',2.47
'0:08.695',2.08
'0:08.699',1.52
'0:08.703',0.81
'0:08.707',0.3
'0:08.711',-0.19
'0:08.715',-0.62
'0:08.719',-0.53
'0:08.723',-0.31
'0:08.727',-0.24
'0:08.730',-0.19
'0:08.734',-0.12
'0:08.738',-0.04
'0:08.742',-0.18
'0:08.746',-0.16
'0:08.750',0.2
'0:08.754',0.5
'0:08.758',0.65
'0:08.762',0.54
'0:08.766',0.58
'0:08.770',0.7
'0:08.773',0.86
'0:08.777',1.22
'0:08.781',1.63
'0:08.785',1.73
'0:08.789',1.52
'0:08.793',1.19
'0:08.797',1.06
'0:08.801',0.78
'0:08.805',0.3
'0:08.809',-0.27
'0:08.813',-0.97
'0:08.816',-1.29
'0:08.820',-1.51
'0:08.824',-1.6
'0:08.828',-1.35
'0:08.832',-1.41
'0:08.836',-1.56
'0:08.840',-1.28
'0:08.844',-0.72
'0:08.848',-0.44
'0:08.852',-0.84
'0:08.855',-1.36
'0:08.859',-1.7
'0:08.863',-1.65
'0:08.867',-1.39
'0:08.871',-0.81
'0:08.875',0.52
'0:08.879',3.17
'0:08.883',5.45
'0:08.887',6.19
'0:08.891',5.85
'0:08.895',3.89
'0:08.898',0.58
'0:08.902',-2.23
'0:08.906',-3.77
'0:08.910',-3.97
'0:08.914',-3.67
'0:08.918',-3.38
'0:08.922',-2.61
'0:08.926',-1.9
'0:08.930',-1.46
'0:08.934',-1.15
'0:08.938',-0.78
'0:08.941',-0.41
'0:08.945',-0.09
'0:08.949',0.08
'0:08.953',-0.24
'0:08.957',-0.41
'0:08.961',-0.34
'0:08.965',-0.33
'0:08.969',-0.02
'0:08.973',0.39
'0:08.977',0.33
'0:08.980',0.08
'0:08.984',0.22
'0:08.988',0.57
'0:08.992',0.83
'0:08.996',1.08
'0:09.000',1.1
'0:09.004',1.15
'0:09.008',1.64
'0:09.012',1.93
'0:09.016',1.9
'0:09.020',2.24
'0:09.023',2.97
'0:09.027',3.34
'0:09.031',3.53
'0:09.035',3.39
'0:09.039',3.07
'0:09.043',2.92
'0:09.047',2.71
'0:09.051',2.46
'0:09.055',2.5
'0:09.059',2.26
'0:09.063',1.58
'0:09.066',1
'0:09.070',0.73
'0:09.074',0.81
'0:09.078',1.07
'0:09.082',1.12
'0:09.086',0.84
'0:09.090',0.85
'0:09.094',0.9
'0:09.098',0.88
'0:09.102',1.02
'0:09.105',1.07
'0:09.109',1.11
'0:09.113',1.15
'0:09.117',1.12
'0:09.121',1.05
'0:09.125',1.22
'0:09.129',1.34
'0:09.133',1.52
'0:09.137',1.88
'0:09.141',2.12
'0:09.145',2.04
'0:09.148',2.12
'0:09.152',2.19
'0:09.156',2.1
'0:09.160',1.59
'0:09.164',0.61
'0:09.168',-0.38
'0:09.172',-0.92
'0:09.176',-1.21
'0:09.180',-1.46
'0:09.184',-2.07
'0:09.188',-2.67
'0:09.191',-2.75
'0:09.195',-2.55
'0:09.199',-2.27
'0:09.203',-2.1
'0:09.207',-1.8
'0:09.211',-1.66
'0:09.215',-1.48
'0:09.219',-1.62
'0:09.223',-1.99
'0:09.227',-2.17
'0:09.230',-1.77
'0:09.234',-0.53
'0:09.238',1.54
'0:09.242',4.51
'0:09.246',7.04
'0:09.250',8.45
'0:09.254',8.36
'0:09.258',5.72
'0:09.262',2.04
'0:09.266',-1.15
'0:09.270',-3.35
'0:09.273',-4.38
'0:09.277',-4.68
'0:09.281',-4.67
'0:09.285',-4.12
'0:09.289',-3.48
'0:09.293',-3.1
'0:09.297',-2.9
'0:09.301',-2.7
'0:09.305',-2.51
'0:09.309',-2.13
'0:09.313',-1.78
'0:09.316',-1.51
'0:09.320',-1.27
'0:09.324',-1.25
'0:09.328',-1.19
'0:09.332',-1.04
'0:09.336',-0.63
'0:09.340',-0.29
'0:09.344',-0.14
'0:09.348',0.01
'0:09.352',0.08
'0:09.355',0.1
'0:09.359',0.08
'0:09.363',0.2
'0:09.367',0.25
'0:09.371',0.49
'0:09.375',0.93
'0:09.379',1.11
'0:09.383',1.32
'0:09.387',1.61
'0:09.391',1.68
'0:09.395',1.7
'0:09.398',1.7
'0:09.402',1.58
'0:09.406',1.14
'0:09.410',0.64
'0:09.414',0.11
'0:09.418',-0.19
'0:09.422',-0.27
'0:09.426',-0.26
'0:09.430',-0.25
'0:09.434',-0.39
'0:09.438',-0.53
'0:09.441',-0.53
'0:09.445',-0.7
'0:09.449',-0.74
'0:09.453',-0.58
'0:09.457',-0.56
'0:09.461',-0.49
'0:09.465',-0.38
'0:09.469',-0.29
'0:09.473',-0.36
'0:09.477',-0.37
'0:09.480',-0.19
'0:09.484',0.08
'0:09.488',0.3
'0:09.492',0.3
'0:09.496',0.59
'0:09.500',1.08
'0:09.504',1.08
'0:09.508',1
'0:09.512',0.78
'0:09.516',0.59
'0:09.520',0.41
'0:09.523',0.07
'0:09.527',-0.51
'0:09.531',-1.01
'0:09.535',-1.44
'0:09.539',-1.8
'0:09.543',-2.09
'0:09.547',-2.21
'0:09.551',-2.44
'0:09.555',-2.63
'0:09.559',-2.87
'0:09.563',-2.8
'0:09.566',-2.88
'0:09.570',-2.87
'0:09.574',-3.12
'0:09.578',-3.67
'0:09.582',-4.24
'0:09.586',-4.48
'0:09.590',-4.16
'0:09.594',-3.08
'0:09.598',-0.79
'0:09.602',2.57
'0:09.605',5.63
'0:09.609',7.45
'0:09.613',7.79
'0:09.617',5.51
'0:09.621',1.65
'0:09.625',-1.8
'0:09.629',-4.33
'0:09.633',-5.84
'0:09.637',-6.36
'0:09.641',-6.07
'0:09.645',-5.6
'0:09.648',-4.97
'0:09.652',-4.33
'0:09.656',-4.04
'0:09.660',-3.48
'0:09.664',-2.92
'0:09.668',-2.29
'0:09.672',-2.05
'0:09.676',-2.19
'0:09.680',-2.09
'0:09.684',-1.95
'0:09.688',-2.1
'0:09.691',-2.11
'0:09.695',-1.95
'0:09.699',-1.63
'0:09.703',-1.12
'0:09.707',-0.48
'0:09.711',-0.25
'0:09.715',-0.33
'0:09.719',-0.15
'0:09.723',0.1
'0:09.727',0.35
'0:09.730',0.56
'0:09.734',0.46
'0:09.738',0.49
'0:09.742',0.81
'0:09.746',1.27
'0:09.750',1.56
'0:09.754',1.41
'0:09.758',1
'0:09.762',0.43
'0:09.766',0.1
'0:09.770',-0.14
'0:09.773',-0.41
'0:09.777',-0.83
'0:09.781',-1.19
'0:09.785',-1.1
'0:09.789',-1.13
'0:09.793',-1.37
'0:09.797',-1.73
'0:09.801',-2.1
'0:09.805',-2.46
'0:09.809',-2.36
'0:09.813',-1.82
'0:09.816',-1.16
'0:09.820',-1.26
'0:09.824',-1.46
'0:09.828',-1.46
'0:09.832',-1.22
'0:09.836',-0.86
'0:09.840',-0.69
'0:09.844',-0.46
'0:09.848',-0.36
'0:09.852',-0.89
'0:09.855',-1.15
'0:09.859',-1.1
'0:09.863',-0.58
'0:09.867',-0.12
'0:09.871',0.1
'0:09.875',-0.22
'0:09.879',-0.82
'0:09.883',-1.3
'0:09.887',-1.48
'0:09.891',-1.51
'0:09.895',-1.68
'0:09.898',-1.93
'0:09.902',-2.36
'0:09.906',-2.75
'0:09.910',-2.9
'0:09.914',-2.83
'0:09.918',-2.94
'0:09.922',-3.07
'0:09.926',-3.2
'0:09.930',-3.24
'0:09.934',-3.34
'0:09.938',-3.43
'0:09.941',-3.36
'0:09.945',-3.43
'0:09.949',-3.14
'0:09.953',-2.36
'0:09.957',-1.41
'0:09.961',0.57
'0:09.965',3.4
'0:09.969',5.67
'0:09.973',6.42
'0:09.977',5.67
'0:09.980',3.32
'0:09.984',0.46
'0:09.988',-1.97
'0:09.992',-3.99
'0:09.996',-4.87
'0:10.000',-4.94
'0:10.004',-4.57
'0:10.008',-4.02
'0:10.012',-3.52
'0:10.016',-3.07
'0:10.020',-2.68
'0:10.023',-2.18
'0:10.027',-1.36
'0:10.031',-0.34
'0:10.035',0.19
'0:10.039',0.25
'0:10.043',0.23
'0:10.047',0.59
'0:10.051',1.34
'0:10.055',1.7
'0:10.059',1.66
'0:10.063',1.51
'0:10.066',1.22
'0:10.070',0.76
'0:10.074',0.42
'0:10.078',0.59
'0:10.082',1.2
'0:10.086',1.55
'0:10.090',1.66
'0:10.094',2.01
'0:10.098',2.57
'0:10.102',3.05
'0:10.105',3.38
'0:10.109',3.66
'0:10.113',3.75
'0:10.117',3.85
'0:10.121',3.81
'0:10.125',3.6
'0:10.129',3.24
'0:10.133',3.02
'0:10.137',3
'0:10.141',2.93
'0:10.145',2.63
'0:10.148',2.15
'0:10.152',1.69
'0:10.156',1.46
'0:10.160',1.1
'0:10.164',0.63
'0:10.168',-0.02
'0:10.172',-0.38
'0:10.176',-0.31
'0:10.180',-0.12
'0:10.184',0.03
'0:10.188',0.03
'0:10.191',0.13
'0:10.195',0.47
'0:10.199',1
'0:10.203',1.41
'0:10.207',1.66
'0:10.211',1.88
'0:10.215',2.14
'0:10.219',2.27
'0:10.223',2.41
'0:10.227',2.41
'0:10.230',2.4
'0:10.234',2.41
'0:10.238',2.34
'0:10.242',2.05
'0:10.246',1.46
'0:10.250',1
'0:10.254',0.57
'0:10.258',0.12
'0:10.262',-0.21
'0:10.266',-0.36
'0:10.270',-0.5
'0:10.273',-0.46
'0:10.277',-0.24
'0:10.281',-0.06
'0:10.285',0.15
'0:10.289',0.35
'0:10.293',0.39
'0:10.297',0.32
'0:10.301',0.46
'0:10.305',0.39
'0:10.309',0.08
'0:10.313',-0.07
'0:10.316',0.23
'0:10.320',1.45
'0:10.324',3.58
'0:10.328',5.36
'0:10.332',5.79
'0:10.336',5.43
'0:10.340',3.7
'0:10.344',0.94
'0:10.348',-1.41
'0:10.352',-2.8
'0:10.355',-3.65
'0:10.359',-3.85
'0:10.363',-3.72
'0:10.367',-3.3
'0:10.371',-2.48
'0:10.375',-1.48
'0:10.379',-0.75
'0:10.383',-0.02
'0:10.387',0.61
'0:10.391',0.65
'0:10.395',0.19
'0:10.398',-0.17
'0:10.402',-0.14
'0:10.406',0.17
'0:10.410',0.37
'0:10.414',0.66
'0:10.418',1
'0:10.422',1.2
'0:10.426',1.43
'0:10.430',1.66
'0:10.434',1.82
'0:10.438',1.93
'0:10.441',2.17
'0:10.445',2.69
'0:10.449',3.39
'0:10.453',3.75
'0:10.457',4.1
'0:10.461',4.27
'0:10.465',4.3
'0:10.469',4.47
'0:10.473',4.88
'0:10.477',5.26
'0:10.480',5.18
'0:10.484',4.73
'0:10.488',4.08
'0:10.492',3.55
'0:10.496',3.47
'0:10.500',3.36
'0:10.504',3.22
'0:10.508',2.87
'0:10.512',2.44
'0:10.516',2.12
'0:10.520',1.77
'0:10.523',1.51
'0:10.527',1.41
'0:10.531',1.18
'0:10.535',0.9
'0:10.539',0.54
'0:10.543',0.44
'0:10.547',0.73
'0:10.551',0.94
'0:10.555',0.89
'0:10.559',0.77
'0:10.563',1
'0:10.566',1.19
'0:10.570',1.13
'0:10.574',1.05
'0:10.578',1.11
'0:10.582',1.41
'0:10.586',1.46
'0:10.590',1.04
'0:10.594',0.66
'0:10.598',0.49
'0:10.602',0.22
'0:10.605',-0.19
'0:10.609',-0.58
'0:10.613',-0.98
'0:10.617',-1.49
'0:10.621',-1.92
'0:10.625',-2.09
'0:10.629',-2.15
'0:10.633',-2.41
'0:10.637',-2.73
'0:10.641',-2.71
'0:10.645',-2.41
'0:10.648',-2.25
'0:10.652',-2.27
'0:10.656',-2.85
'0:10.660',-3.7
'0:10.664',-4.36
'0:10.668',-4.48
'0:10.672',-4.01
'0:10.676',-3.03
'0:10.680',-1.64
'0:10.684',0.56
'0:10.688',3.18
'0:10.691',5.17
'0:10.695',6.52
'0:10.699',5.82
'0:10.703',2.77
'0:10.707',-0.36
'0:10.711',-2.76
'0:10.715',-4.29
'0:10.719',-4.68
'0:10.723',-4.53
'0:10.727',-4.33
'0:10.730',-3.94
'0:10.734',-3.31
'0:10.738',-2.58
'0:10.742',-2.1
'0:10.746',-1.83
'0:10.750',-1.47
'0:10.754',-1
'0:10.758',-0.87
'0:10.762',-1.01
'0:10.766',-0.92
'0:10.770',-0.69
'0:10.773',-0.62
'0:10.777',-0.39
'0:10.781',-0.31
'0:10.785',-0.26
'0:10.789',0
'0:10.793',0.15
'0:10.797',0.25
'0:10.801',0.28
'0:10.805',0.49
'0:10.809',1.1
'0:10.813',1.7
'0:10.816',1.76
'0:10.820',1.8
'0:10.824',1.8
'0:10.828',1.77
'0:10.832',1.61
'0:10.836',1.62
'0:10.840',1.91
'0:10.844',2.25
'0:10.848',2.07
'0:10.852',1.44
'0:10.855',1.31
'0:10.859',1.24
'0:10.863',1.22
'0:10.867',0.96
'0:10.871',0.75
'0:10.875',0.66
'0:10.879',0.37
'0:10.883',-0.03
'0:10.887',-0.39
'0:10.891',-0.58
'0:10.895',-0.5
'0:10.898',-0.31
'0:10.902',0.08
'0:10.906',0.54
'0:10.910',0.53
'0:10.914',0.32
'0:10.918',0.2
'0:10.922',0.2
'0:10.926',0.2
'0:10.930',0.34
'0:10.934',0.58
'0:10.938',0.9
'0:10.941',1.02
'0:10.945',1.1
'0:10.949',1.22
'0:10.953',1.23
'0:10.957',1.53
'0:10.961',1.26
'0:10.965',0.63
'0:10.969',0.05
'0:10.973',-0.78
'0:10.977',-1.56
'0:10.980',-2.02
'0:10.984',-2.35
'0:10.988',-2.6
'0:10.992',-2.79
'0:10.996',-2.8
'0:11.000',-2.77
'0:11.004',-3
'0:11.008',-3.41
'0:11.012',-3.68
'0:11.016',-3.6
'0:11.020',-3.68
'0:11.023',-4.11
'0:11.027',-4.68
'0:11.031',-4.62
'0:11.035',-3.49
'0:11.039',-1.45
'0:11.043',1.51
'0:11.047',5.13
'0:11.051',7.87
'0:11.055',9.18
'0:11.059',8.2
'0:11.063',4.52
'0:11.066',0.48
'0:11.070',-2.8
'0:11.074',-4.67
'0:11.078',-5.41
'0:11.082',-5.48
'0:11.086',-5.38
'0:11.090',-5.11
'0:11.094',-4.66
'0:11.098',-3.91
'0:11.102',-3.21
'0:11.105',-2.87
'0:11.109',-2.68
'0:11.113',-2.6
'0:11.117',-2.6
'0:11.121',-2.6
'0:11.125',-2.31
'0:11.129',-1.8
'0:11.133',-1.47
'0:11.137',-1.2
'0:11.141',-1.19
'0:11.145',-1.12
'0:11.148',-1.12
'0:11.152',-1.02
'0:11.156',-0.9
'0:11.160',-0.85
'0:11.164',-0.7
'0:11.168',-0.56
'0:11.172',-0.17
'0:11.176',0.25
'0:11.180',0.6
'0:11.184',0.76
'0:11.188',1.15
'0:11.191',1.43
'0:11.195',0.97
'0:11.199',0.63
'0:11.203',0.42
'0:11.207',0.3
'0:11.211',0.3
'0:11.215',0.21
'0:11.219',0
'0:11.223',-0.27
'0:11.227',-0.63
'0:11.230',-0.8
'0:11.234',-0.82
'0:11.238',-0.68
'0:11.242',-0.75
'0:11.246',-1.11
'0:11.250',-0.87
'0:11.254',-0.46
'0:11.258',-0.27
'0:11.262',-0.17
'0:11.266',-0.46
'0:11.270',-0.68
'0:11.273',-0.56
'0:11.277',-0.24
'0:11.281',0.47
'0:11.285',1.36
'0:11.289',1.81
'0:11.293',1.97
'0:11.297',2.03
'0:11.301',2.32
'0:11.305',2.44
'0:11.309',2.33
'0:11.313',1.99
'0:11.316',1.49
'0:11.320',1
'0:11.324',0.63
'0:11.328',0.26
'0:11.332',-0.45
'0:11.336',-1.21
'0:11.340',-1.48
'0:11.344',-1.56
'0:11.348',-1.83
'0:11.352',-2.26
'0:11.355',-2.73
'0:11.359',-3.04
'0:11.363',-2.84
'0:11.367',-2.39
'0:11.371',-2.36
'0:11.375',-2.56
'0:11.379',-2.78
'0:11.383',-3
'0:11.387',-3.41
'0:11.391',-3.92
'0:11.395',-3.55
'0:11.398',-2.11
'0:11.402',0.37
'0:11.406',3.33
'0:11.410',5.67
'0:11.414',6.7
'0:11.418',6.66
'0:11.422',4.21
'0:11.426',0.64
'0:11.430',-2.27
'0:11.434',-4.29
'0:11.438',-5.21
'0:11.441',-5.41
'0:11.445',-5.52
'0:11.449',-5.14
'0:11.453',-4.5
'0:11.457',-3.9
'0:11.461',-3.63
'0:11.465',-3.38
'0:11.469',-2.97
'0:11.473',-2.79
'0:11.477',-3.04
'0:11.480',-3.32
'0:11.484',-3.38
'0:11.488',-3.12
'0:11.492',-2.71
'0:11.496',-2.39
'0:11.500',-2.48
'0:11.504',-2.31
'0:11.508',-1.91
'0:11.512',-1.61
'0:11.516',-1.32
'0:11.520',-0.94
'0:11.523',-0.52
'0:11.527',0.11
'0:11.531',0.61
'0:11.535',0.88
'0:11.539',0.97
'0:11.543',1.16
'0:11.547',1.46
'0:11.551',1.9
'0:11.555',2.08
'0:11.559',2.41
'0:11.563',2.55
'0:11.566',2.36
'0:11.570',2.29
'0:11.574',2.1
'0:11.578',1.94
'0:11.582',1.6
'0:11.586',1
'0:11.590',0.91
'0:11.594',0.9
'0:11.598',0.68
'0:11.602',0.39
'0:11.605',-0.07
'0:11.609',-0.43
'0:11.613',-0.55
'0:11.617',-0.63
'0:11.621',-0.55
'0:11.625',-0.22
'0:11.629',0.23
'0:11.633',0.61
'0:11.637',0.97
'0:11.641',1.14
'0:11.645',1.02
'0:11.648',0.9
'0:11.652',1
'0:11.656',1.44
'0:11.660',2.1
'0:11.664',2.56
'0:11.668',2.91
'0:11.672',3.27
'0:11.676',3.39
'0:11.680',3.14
'0:11.684',2.77
'0:11.688',2.29
'0:11.691',1.65
'0:11.695',0.99
'0:11.699',0.29
'0:11.703',-0.58
'0:11.707',-1.63
'0:11.711',-2.19
'0:11.715',-2.33
'0:11.719',-2.38
'0:11.723',-2.49
'0:11.727',-2.38
'0:11.730',-2.15
'0:11.734',-1.85
'0:11.738',-1.73
'0:11.742',-1.9
'0:11.746',-2.04
'0:11.750',-2.12
'0:11.754',-1.84
'0:11.758',-0.84
'0:11.762',0.8
'0:11.766',3.18
'0:11.770',5.56
'0:11.773',6.92
'0:11.777',7.12
'0:11.781',5.29
'0:11.785',1.86
'0:11.789',-1.29
'0:11.793',-3.44
'0:11.797',-4.43
'0:11.801',-4.5
'0:11.805',-4.33
'0:11.809',-3.97
'0:11.813',-3.18
'0:11.816',-2.28
'0:11.820',-1.6
'0:11.824',-1.12
'0:11.828',-0.87
'0:11.832',-0.56
'0:11.836',-0.41
'0:11.840',-0.14
'0:11.844',0.17
'0:11.848',0.43
'0:11.852',0.8
'0:11.855',0.95
'0:11.859',0.88
'0:11.863',0.71
'0:11.867',0.39
'0:11.871',0.28
'0:11.875',0.59
'0:11.879',1.1
'0:11.883',1.61
'0:11.887',2.19
'0:11.891',2.63
'0:11.895',2.9
'0:11.898',3.18
'0:11.902',3.52
'0:11.906',3.95
'0:11.910',4.29
'0:11.914',4.51
'0:11.918',4.9
'0:11.922',5.27
'0:11.926',5.14
'0:11.930',4.65
'0:11.934',4.24
'0:11.938',3.73
'0:11.941',2.99
'0:11.945',2.2
'0:11.949',1.14
'0:11.953',0.32
'0:11.957',0.03
'0:11.961',0.15
'0:11.965',0.14
'0:11.969',-0.15
'0:11.973',-0.61
'0:11.977',-0.82
'0:11.980',-0.63
'0:11.984',-0.38
'0:11.988',-0.07
'0:11.992',-0.09
'0:11.996',-0.07
'0:12.000',0.05
'0:12.004',0.07
'0:12.008',0.23
'0:12.012',0.27
'0:12.016',0.36
'0:12.020',0.78
'0:12.023',1.09
'0:12.027',0.97
'0:12.031',0.93
'0:12.035',0.71
'0:12.039',0.39
'0:12.043',0.22
'0:12.047',0.08
'0:12.051',-0.07
'0:12.055',-0.21
'0:12.059',-0.56
'0:12.063',-1.29
'0:12.066',-1.85
'0:12.070',-2.21
'0:12.074',-2.31
'0:12.078',-2.26
'0:12.082',-2.31
'0:12.086',-2.36
'0:12.090',-2.32
'0:12.094',-2.15
'0:12.098',-1.77
'0:12.102',-1.63
'0:12.105',-1.9
'0:12.109',-2.02
'0:12.113',-1.85
'0:12.117',-1.14
'0:12.121',0.25
'0:12.125',2.46
'0:12.129',4.55
'0:12.133',5.31
'0:12.137',5.35
'0:12.141',4.17
'0:12.145',1.31
'0:12.148',-1.37
'0:12.152',-2.82
'0:12.156',-3.59
'0:12.160',-4.06
'0:12.164',-4.01
'0:12.168',-3.47
'0:12.172',-2.87
'0:12.176',-2.38
'0:12.180',-1.72
'0:12.184',-1.07
'0:12.188',-0.78
'0:12.191',-0.71
'0:12.195',-0.65
'0:12.199',-0.42
'0:12.203',-0.07
'0:12.207',0.15
'0:12.211',0.25
'0:12.215',0.27
'0:12.219',0.36
'0:12.223',0.46
'0:12.227',0.59
'0:12.230',0.66
'0:12.234',0.72
'0:12.238',0.83
'0:12.242',0.93
'0:12.246',1.29
'0:12.250',1.63
'0:12.254',1.83
'0:12.258',2.08
'0:12.262',2.73
'0:12.266',3.1
'0:12.270',3.04
'0:12.273',2.71
'0:12.277',2.38
'0:12.281',2.26
'0:12.285',2.32
'0:12.289',2.54
'0:12.293',2.43
'0:12.297',1.97
'0:12.301',1.68
'0:12.305',1.44
'0:12.309',1.15
'0:12.313',0.78
'0:12.316',0.1
'0:12.320',-0.43
'0:12.324',-0.63
'0:12.328',-0.38
'0:12.332',0.15
'0:12.336',0.42
'0:12.340',0.59
'0:12.344',0.3
'0:12.348',0.06
'0:12.352',0.34
'0:12.355',0.69
'0:12.359',1.18
'0:12.363',1.53
'0:12.367',1.49
'0:12.371',1.39
'0:12.375',1.57
'0:12.379',1.97
'0:12.383',2.02
'0:12.387',2.06
'0:12.391',1.88
'0:12.395',1.81
'0:12.398',1.63
'0:12.402',1.48
'0:12.406',1.14
'0:12.410',0.46
'0:12.414',-0.14
'0:12.418',-0.62
'0:12.422',-0.93
'0:12.426',-1.24
'0:12.430',-1.39
'0:12.434',-1.68
'0:12.438',-2.1
'0:12.441',-2.41
'0:12.445',-2.83
'0:12.449',-2.97
'0:12.453',-3.04
'0:12.457',-3.02
'0:12.461',-2.97
'0:12.465',-2.94
'0:12.469',-2.87
'0:12.473',-2.54
'0:12.477',-1.66
'0:12.480',-0.1
'0:12.484',2.08
'0:12.488',4.91
'0:12.492',7.09
'0:12.496',8.46
'0:12.500',8.29
'0:12.504',4.97
'0:12.508',0.88
'0:12.512',-2.1
'0:12.516',-4.07
'0:12.520',-4.97
'0:12.523',-4.88
'0:12.527',-4.53
'0:12.531',-4.14
'0:12.535',-3.57
'0:12.539',-2.75
'0:12.543',-2.04
'0:12.547',-1.56
'0:12.551',-1.12
'0:12.555',-1.03
'0:12.559',-1.12
'0:12.563',-1.22
'0:12.566',-1.18
'0:12.570',-0.96
'0:12.574',-0.85
'0:12.578',-0.78
'0:12.582',-0.44
'0:12.586',-0.09
'0:12.590',0
'0:12.594',-0.24
'0:12.598',-0.09
'0:12.602',-0.04
'0:12.605',0.03
'0:12.609',0.33
'0:12.613',0.86
'0:12.617',1.25
'0:12.621',1.51
'0:12.625',1.61
'0:12.629',1.46
'0:12.633',1.42
'0:12.637',1.71
'0:12.641',1.9
'0:12.645',1.68
'0:12.648',1.4
'0:12.652',1.42
'0:12.656',1.47
'0:12.660',0.97
'0:12.664',0.49
'0:12.668',0.41
'0:12.672',0.23
'0:12.676',-0.12
'0:12.680',-0.52
'0:12.684',-0.78
'0:12.688',-0.79
'0:12.691',-0.63
'0:12.695',-0.28
'0:12.699',0.23
'0:12.703',0.66
'0:12.707',1.04
'0:12.711',1.08
'0:12.715',1.13
'0:12.719',1.2
'0:12.723',1.41
'0:12.727',1.69
'0:12.730',2.15
'0:12.734',2.74
'0:12.738',3.12
'0:12.742',2.94
'0:12.746',2.51
'0:12.750',1.77
'0:12.754',0.88
'0:12.758',0.25
'0:12.762',-0.01
'0:12.766',0.12
'0:12.770',-0.69
'0:12.773',-1.8
'0:12.777',-2.86
'0:12.781',-4.08
'0:12.785',-5.14
'0:12.789',-5.35
'0:12.793',-5.15
'0:12.797',-5.34
'0:12.801',-5.33
'0:12.805',-5.18
'0:12.809',-5.15
'0:12.813',-5.06
'0:12.816',-5.27
'0:12.820',-5.69
'0:12.824',-5.95
'0:12.828',-5.92
'0:12.832',-5.23
'0:12.836',-3.96
'0:12.840',-1.83
'0:12.844',1.21
'0:12.848',4.84
'0:12.852',7.27
'0:12.855',8.35
'0:12.859',7.09
'0:12.863',3.81
'0:12.867',0.45
'0:12.871',-2.13
'0:12.875',-3.95
'0:12.879',-4.84
'0:12.883',-4.32
'0:12.887',-3.09
'0:12.891',-2.81
'0:12.895',-2.75
'0:12.898',-1.94
'0:12.902',-1.13
'0:12.906',-0.45
'0:12.910',0.21
'0:12.914',0.78
'0:12.918',1.01
'0:12.922',1.16
'0:12.926',1.76
'0:12.930',2.38
'0:12.934',2.05
'0:12.938',1.29
'0:12.941',1.09
'0:12.945',1.84
'0:12.949',2.42
'0:12.953',2.53
'0:12.957',2.17
'0:12.961',1.89
'0:12.965',1.88
'0:12.969',1.83
'0:12.973',1.95
'0:12.977',2.05
'0:12.980',2.03
'0:12.984',1.98
'0:12.988',2.17
'0:12.992',2.47
'0:12.996',2.82
'0:13.000',2.72
'0:13.004',2.27
'0:13.008',1.93
'0:13.012',1.85
'0:13.016',1.57
'0:13.020',1.39
'0:13.023',1.35
'0:13.027',1.13
'0:13.031',0.71
'0:13.035',0.36
'0:13.039',0.19
'0:13.043',0.17
'0:13.047',0.27
'0:13.051',0.32
'0:13.055',0.46
'0:13.059',0.56
'0:13.063',0.17
'0:13.066',0.03
'0:13.070',0.24
'0:13.074',-0.02
'0:13.078',0.13
'0:13.082',0.61
'0:13.086',1.1
'0:13.090',1.42
'0:13.094',1.36
'0:13.098',0.75
'0:13.102',0.3
'0:13.105',0.63
'0:13.109',1.03
'0:13.113',1.44
'0:13.117',1.66
'0:13.121',1.68
'0:13.125',1.39
'0:13.129',0.75
'0:13.133',-0.37
'0:13.137',-1.27
'0:13.141',-1.88
'0:13.145',-2.15
'0:13.148',-2.31
'0:13.152',-2.31
'0:13.156',-2.5
'0:13.160',-2.64
'0:13.164',-2.63
'0:13.168',-2.53
'0:13.172',-2.34
'0:13.176',-2.09
'0:13.180',-1.95
'0:13.184',-2.34
'0:13.188',-3
'0:13.191',-3.26
'0:13.195',-2.89
'0:13.199',-1.9
'0:13.203',0.35
'0:13.207',3.83
'0:13.211',7.05
'0:13.215',9
'0:13.219',9.32
'0:13.223',6.74
'0:13.227',2.85
'0:13.230',-0.69
'0:13.234',-3.27
'0:13.238',-4.66
'0:13.242',-5.14
'0:13.246',-5.23
'0:13.250',-4.77
'0:13.254',-4.21
'0:13.258',-4.02
'0:13.262',-4.14
'0:13.266',-3.84
'0:13.270',-3.54
'0:13.273',-3.4
'0:13.277',-3.04
'0:13.281',-2.94
'0:13.285',-2.6
'0:13.289',-2.21
'0:13.293',-1.99
'0:13.297',-1.92
'0:13.301',-1.66
'0:13.305',-1.09
'0:13.309',-0.36
'0:13.313',-0.14
'0:13.316',-0.34
'0:13.320',-0.49
'0:13.324',-0.48
'0:13.328',-0.39
'0:13.332',-0.32
'0:13.336',-0.1
'0:13.340',0.5
'0:13.344',1.26
'0:13.348',1.69
'0:13.352',2.08
'0:13.355',2.24
'0:13.359',2.2
'0:13.363',2.17
'0:13.367',2.09
'0:13.371',1.89
'0:13.375',1.63
'0:13.379',1.39
'0:13.383',1.2
'0:13.387',0.97
'0:13.391',0.59
'0:13.395',0.27
'0:13.398',0.05
'0:13.402',0
'0:13.406',-0.13
'0:13.410',-0.34
'0:13.414',-0.45
'0:13.418',-0.41
'0:13.422',-0.19
'0:13.426',0.08
'0:13.430',0.17
'0:13.434',0.03
'0:13.438',-0.02
'0:13.441',0.07
'0:13.445',0.08
'0:13.449',-0.07
'0:13.453',-0.09
'0:13.457',0.05
'0:13.461',0.41
'0:13.465',0.86
'0:13.469',0.8
'0:13.473',0.53
'0:13.477',0.32
'0:13.480',0.5
'0:13.484',0.53
'0:13.488',0.03
'0:13.492',-0.59
'0:13.496',-1.02
'0:13.500',-1.22
'0:13.504',-1.41
'0:13.508',-1.7
'0:13.512',-1.78
'0:13.516',-1.91
'0:13.520',-2.14
'0:13.523',-2.04
'0:13.527',-1.82
'0:13.531',-1.68
'0:13.535',-1.83
'0:13.539',-1.95
'0:13.543',-1.81
'0:13.547',-1.75
'0:13.551',-1.22
'0:13.555',-0.05
'0:13.559',1.63
'0:13.563',3.97
'0:13.566',6.11
'0:13.570',7.36
'0:13.574',7.6
'0:13.578',5.89
'0:13.582',2.07
'0:13.586',-1.39
'0:13.590',-3.78
'0:13.594',-5.04
'0:13.598',-5.29
'0:13.602',-4.88
'0:13.605',-3.98
'0:13.609',-3.12
'0:13.613',-2.6
'0:13.617',-2.21
'0:13.621',-1.7
'0:13.625',-1.09
'0:13.629',-0.71
'0:13.633',-0.92
'0:13.637',-0.79
'0:13.641',-0.53
'0:13.645',-0.59
'0:13.648',-0.55
'0:13.652',-0.45
'0:13.656',-0.19
'0:13.660',0.08
'0:13.664',0.42
'0:13.668',0.51
'0:13.672',0.55
'0:13.676',0.93
'0:13.680',1.49
'0:13.684',1.93
'0:13.688',2.3
'0:13.691',2.95
'0:13.695',3.33
'0:13.699',3.14
'0:13.703',2.62
'0:13.707',2.64
'0:13.711',2.93
'0:13.715',3.24
'0:13.719',3.12
'0:13.723',2.84
'0:13.727',2.49
'0:13.730',2.21
'0:13.734',2.15
'0:13.738',2.24
'0:13.742',2.16
'0:13.746',2.05
'0:13.750',1.93
'0:13.754',1.56
'0:13.758',0.9
'0:13.762',0.32
'0:13.766',0.38
'0:13.770',0.81
'0:13.773',1.15
'0:13.777',0.95
'0:13.781',0.51
'0:13.785',0.22
'0:13.789',-0.07
'0:13.793',-0.36
'0:13.797',0.03
'0:13.801',0.47
'0:13.805',0.44
'0:13.809',0.22
'0:13.813',0.12
'0:13.816',-0.17
'0:13.820',-0.29
'0:13.824',-0.09
'0:13.828',0.27
'0:13.832',0.5
'0:13.836',0.76
'0:13.840',0.56
'0:13.844',-0.27
'0:13.848',-1.3
'0:13.852',-2.22
'0:13.855',-2.8
'0:13.859',-2.97
'0:13.863',-2.68
'0:13.867',-2.65
'0:13.871',-2.86
'0:13.875',-3.17
'0:13.879',-3.54
'0:13.883',-3.55
'0:13.887',-3.31
'0:13.891',-3.24
'0:13.895',-3.33
'0:13.898',-3.61
'0:13.902',-4.19
'0:13.906',-4.74
'0:13.910',-4.46
'0:13.914',-3.52
'0:13.918',-1.7
'0:13.922',0.92
'0:13.926',3.3
'0:13.930',4.34
'0:13.934',4.38
'0:13.938',3.12
'0:13.941',0.14
'0:13.945',-2.77
'0:13.949',-4.49
'0:13.953',-5.19
'0:13.957',-5.28
'0:13.961',-4.97
'0:13.965',-4.35
'0:13.969',-3.31
'0:13.973',-2.77
'0:13.977',-2.67
'0:13.980',-2.43
'0:13.984',-1.91
'0:13.988',-1.04
'0:13.992',-0.39
'0:13.996',-0.63
'0:14.000',-1.01
'0:14.004',-1.06
'0:14.008',-1.12
'0:14.012',-1.11
'0:14.016',-0.72
'0:14.020',-0.21
'0:14.023',0.17
'0:14.027',0.74
'0:14.031',1.12
'0:14.035',1.17
'0:14.039',1.53
'0:14.043',1.88
'0:14.047',1.88
'0:14.051',2.05
'0:14.055',2.24
'0:14.059',2.28
'0:14.063',2.54
'0:14.066',2.77
'0:14.070',2.8
'0:14.074',2.73
'0:14.078',2.68
'0:14.082',2.93
'0:14.086',3.22
'0:14.090',3.09
'0:14.094',2.85
'0:14.098',2.63
'0:14.102',2.57
'0:14.105',2.39
'0:14.109',1.92
'0:14.113',1.46
'0:14.117',0.95
'0:14.121',0.61
'0:14.125',0.41
'0:14.129',0.15
'0:14.133',-0.01
'0:14.137',-0.1
'0:14.141',0.18
'0:14.145',0.49
'0:14.148',0.63
'0:14.152',0.72
'0:14.156',0.85
'0:14.160',0.99
'0:14.164',0.94
'0:14.168',0.93
'0:14.172',0.96
'0:14.176',1.06
'0:14.180',1.17
'0:14.184',1.39
'0:14.188',1.52
'0:14.191',1.66
'0:14.195',1.84
'0:14.199',1.87
'0:14.203',1.61
'0:14.207',0.91
'0:14.211',0.09
'0:14.215',-0.54
'0:14.219',-1.19
'0:14.223',-1.82
'0:14.227',-2.31
'0:14.230',-2.65
'0:14.234',-3
'0:14.238',-3.21
'0:14.242',-3.32
'0:14.246',-3.36
'0:14.250',-3.27
'0:14.254',-3.36
'0:14.258',-3.66
'0:14.262',-3.94
'0:14.266',-3.91
'0:14.270',-3.43
'0:14.273',-2.32
'0:14.277',-0.43
'0:14.281',2.24
'0:14.285',4.81
'0:14.289',6.31
'0:14.293',6.87
'0:14.297',5.65
'0:14.301',2.67
'0:14.305',-0.23
'0:14.309',-2.47
'0:14.313',-3.85
'0:14.316',-4.38
'0:14.320',-4.26
'0:14.324',-3.76
'0:14.328',-3.01
'0:14.332',-2.06
'0:14.336',-1.19
'0:14.340',-0.42
'0:14.344',0.1
'0:14.348',0.38
'0:14.352',0.38
'0:14.355',0.47
'0:14.359',0.49
'0:14.363',0.66
'0:14.367',0.54
'0:14.371',0.37
'0:14.375',0.14
'0:14.379',-0.09
'0:14.383',-0.02
'0:14.387',0.1
'0:14.391',0.2
'0:14.395',0.49
'0:14.398',0.83
'0:14.402',1.05
'0:14.406',1.35
'0:14.410',1.61
'0:14.414',1.88
'0:14.418',2.18
'0:14.422',2.12
'0:14.426',1.9
'0:14.430',1.85
'0:14.434',1.95
'0:14.438',2.03
'0:14.441',2.08
'0:14.445',2.19
'0:14.449',2.02
'0:14.453',1.69
'0:14.457',1.22
'0:14.461',0.74
'0:14.465',0.49
'0:14.469',0.35
'0:14.473',0.32
'0:14.477',0.28
'0:14.480',0.29
'0:14.484',0.25
'0:14.488',0.13
'0:14.492',0.37
'0:14.496',0.39
'0:14.500',0.35
'0:14.504',0.54
'0:14.508',0.64
'0:14.512',0.78
'0:14.516',0.91
'0:14.520',1.13
'0:14.523',1.2
'0:14.527',1.35
'0:14.531',1.51
'0:14.535',1.68
'0:14.539',1.73
'0:14.543',1.86
'0:14.547',2.22
'0:14.551',2.26
'0:14.555',2.12
'0:14.559',2.02
'0:14.563',1.78
'0:14.566',1.19
'0:14.570',0.34
'0:14.574',-0.37
'0:14.578',-0.85
'0:14.582',-1.22
'0:14.586',-1.25
'0:14.590',-1.48
'0:14.594',-1.88
'0:14.598',-2.54
'0:14.602',-3
'0:14.605',-3.14
'0:14.609',-3
'0:14.613',-2.93
'0:14.617',-3.1
'0:14.621',-3.4
'0:14.625',-3.5
'0:14.629',-3.03
'0:14.633',-2.07
'0:14.637',-0.41
'0:14.641',2.25
'0:14.645',5.56
'0:14.648',8.13
'0:14.652',9.41
'0:14.656',8.21
'0:14.660',4.43
'0:14.664',0.42
'0:14.668',-2.79
'0:14.672',-4.63
'0:14.676',-5.46
'0:14.680',-5.94
'0:14.684',-6.04
'0:14.688',-5.82
'0:14.691',-5.38
'0:14.695',-4.59
'0:14.699',-3.95
'0:14.703',-3.7
'0:14.707',-3.55
'0:14.711',-3.48
'0:14.715',-3.46
'0:14.719',-3.27
'0:14.723',-3.03
'0:14.727',-2.61
'0:14.730',-2.29
'0:14.734',-2.04
'0:14.738',-2.17
'0:14.742',-2.4
'0:14.746',-2.28
'0:14.750',-1.99
'0:14.754',-1.69
'0:14.758',-1.32
'0:14.762',-1.02
'0:14.766',-0.79
'0:14.770',-0.77
'0:14.773',-0.57
'0:14.777',-0.14
'0:14.781',0.3
'0:14.785',0.72
'0:14.789',1.13
'0:14.793',1.62
'0:14.797',1.83
'0:14.801',1.44
'0:14.805',1.12
'0:14.809',0.83
'0:14.813',0.31
'0:14.816',-0.12
'0:14.820',-0.16
'0:14.824',-0.23
'0:14.828',-0.32
'0:14.832',-0.43
'0:14.836',-0.43
'0:14.840',-0.24
'0:14.844',0.13
'0:14.848',0.36
'0:14.852',0.34
'0:14.855',0.1
'0:14.859',-0.41
'0:14.863',-0.9
'0:14.867',-1.09
'0:14.871',-1.01
'0:14.875',-0.48
'0:14.879',0.2
'0:14.883',0.64
'0:14.887',0.82
'0:14.891',0.91
'0:14.895',1.19
'0:14.898',1.56
'0:14.902',1.94
'0:14.906',1.95
'0:14.910',1.8
'0:14.914',1.72
'0:14.918',1.56
'0:14.922',1.04
'0:14.926',0.37
'0:14.930',-0.3
'0:14.934',-1.1
'0:14.938',-1.85
'0:14.941',-2.02
'0:14.945',-1.87
'0:14.949',-1.87
'0:14.953',-2.01
'0:14.957',-2.04
'0:14.961',-2.07
'0:14.965',-2.1
'0:14.969',-1.97
'0:14.973',-1.9
'0:14.977',-2.34
'0:14.980',-2.99
'0:14.984',-3.21
'0:14.988',-2.76
'0:14.992',-1.81
'0:14.996',-0.14
'0:15.000',2.37
'0:15.004',5.06
'0:15.008',6.9
'0:15.012',7.64
'0:15.016',6.03
'0:15.020',2.33
'0:15.023',-1.19
'0:15.027',-3.77
'0:15.031',-5.42
'0:15.035',-6.08
'0:15.039',-6.11
'0:15.043',-5.74
'0:15.047',-5.16
'0:15.051',-4.44
'0:15.055',-3.7
'0:15.059',-3.18
'0:15.063',-3.09
'0:15.066',-2.89
'0:15.070',-2.46
'0:15.074',-1.82
'0:15.078',-1.17
'0:15.082',-0.58
'0:15.086',-0.39
'0:15.090',-0.29
'0:15.094',0
'0:15.098',-0.03
'0:15.102',-0.32
'0:15.105',-0.43
'0:15.109',-0.43
'0:15.113',-0.14
'0:15.117',0.36
'0:15.121',1.05
'0:15.125',1.72
'0:15.129',2.23
'0:15.133',2.53
'0:15.137',2.97
'0:15.141',3.34
'0:15.145',3.54
'0:15.148',3.61
'0:15.152',3.68
'0:15.156',3.85
'0:15.160',3.56
'0:15.164',3.07
'0:15.168',2.84
'0:15.172',2.56
'0:15.176',2.02
'0:15.180',1.46
'0:15.184',0.97
'0:15.188',0.59
'0:15.191',0.39
'0:15.195',-0.03
'0:15.199',-0.39
'0:15.203',-0.56
'0:15.207',-0.46
'0:15.211',-0.54
'0:15.215',-0.52
'0:15.219',-0.6
'0:15.223',-0.85
'0:15.227',-1.18
'0:15.230',-0.99
'0:15.234',-0.4
'0:15.238',0.12
'0:15.242',0.41
'0:15.246',0.39
'0:15.250',0.08
'0:15.254',-0.06
'0:15.258',0.16
'0:15.262',0.38
'0:15.266',0.55
'0:15.270',0.78
'0:15.273',0.61
'0:15.277',0.46
'0:15.281',0.14
'0:15.285',-0.36
'0:15.289',-0.86
'0:15.293',-1.04
'0:15.297',-0.86
'0:15.301',-0.92
'0:15.305',-1.19
'0:15.309',-1.66
'0:15.313',-1.95
'0:15.316',-2.65
'0:15.320',-3.46
'0:15.324',-3.69
'0:15.328',-2.89
'0:15.332',-1.74
'0:15.336',-1.24
'0:15.340',-1.27
'0:15.344',-1.37
'0:15.348',-1.23
'0:15.352',-0.5
'0:15.355',1.1
'0:15.359',3.41
'0:15.363',5.08
'0:15.367',5.5
'0:15.371',4.84
'0:15.375',2.6
'0:15.379',-0.21
'0:15.383',-2.47
'0:15.387',-4.1
'0:15.391',-4.87
'0:15.395',-4.91
'0:15.398',-4.35
'0:15.402',-3.56
'0:15.406',-2.7
'0:15.410',-1.92
'0:15.414',-1.55
'0:15.418',-1.34
'0:15.422',-1.14
'0:15.426',-1.05
'0:15.430',-1.27
'0:15.434',-1.73
'0:15.438',-2
'0:15.441',-2.03
'0:15.445',-1.79
'0:15.449',-1.45
'0:15.453',-0.92
'0:15.457',-0.43
'0:15.461',-0.09
'0:15.465',0.37
'0:15.469',0.71
'0:15.473',0.95
'0:15.477',1.28
'0:15.480',1.57
'0:15.484',1.88
'0:15.488',2.37
'0:15.492',2.76
'0:15.496',2.96
'0:15.500',3.12
'0:15.504',3.24
'0:15.508',3.27
'0:15.512',3.49
'0:15.516',3.63
'0:15.520',3.43
'0:15.523',3.13
'0:15.527',2.65
'0:15.531',2.1
'0:15.535',1.92
'0:15.539',2.15
'0:15.543',2.41
'0:15.547',2.38
'0:15.551',1.82
'0:15.555',1.07
'0:15.559',0.58
'0:15.563',0.65
'0:15.566',0.84
'0:15.570',1.06
'0:15.574',1.06
'0:15.578',1.18
'0:15.582',1.54
'0:15.586',1.7
'0:15.590',1.53
'0:15.594',1.27
'0:15.598',1.32
'0:15.602',1.68
'0:15.605',2
'0:15.609',2.27
'0:15.613',2.48
'0:15.617',2.41
'0:15.621',2.24
'0:15.625',2.25
'0:15.629',2.56
'0:15.633',2.68
'0:15.637',2.43
'0:15.641',1.67
'0:15.645',1.17
'0:15.648',0.71
'0:15.652',0.17
'0:15.656',-0.73
'0:15.660',-1.12
'0:15.664',-1.15
'0:15.668',-1.36
'0:15.672',-1.3
'0:15.676',-1.49
'0:15.680',-1.87
'0:15.684',-2.19
'0:15.688',-2.29
'0:15.691',-2.36
'0:15.695',-2.72
'0:15.699',-3.11
'0:15.703',-2.92
'0:15.707',-2.18
'0:15.711',-0.59
'0:15.715',1.92
'0:15.719',4.87
'0:15.723',6.93
'0:15.727',7.78
'0:15.730',7.15
'0:15.734',4.03
'0:15.738',0.35
'0:15.742',-2.42
'0:15.746',-4.07
'0:15.750',-4.8
'0:15.754',-4.78
'0:15.758',-4.48
'0:15.762',-3.85
'0:15.766',-3.21
'0:15.770',-2.62
'0:15.773',-2.14
'0:15.777',-1.58
'0:15.781',-0.95
'0:15.785',-0.68
'0:15.789',-0.56
'0:15.793',-0.34
'0:15.797',-0.12
'0:15.801',-0.12
'0:15.805',-0.41
'0:15.809',-0.7
'0:15.813',-0.44
'0:15.816',-0.09
'0:15.820',0.14
'0:15.824',0.28
'0:15.828',0.55
'0:15.832',0.66
'0:15.836',0.71
'0:15.840',0.91
'0:15.844',1.07
'0:15.848',1.14
'0:15.852',1.4
'0:15.855',1.78
'0:15.859',1.84
'0:15.863',2.11
'0:15.867',2.25
'0:15.871',2.31
'0:15.875',2.15
'0:15.879',1.95
'0:15.883',1.8
'0:15.887',1.53
'0:15.891',1.22
'0:15.895',0.99
'0:15.898',0.69
'0:15.902',0.6
'0:15.906',0.37
'0:15.910',0.25
'0:15.914',0.32
'0:15.918',0.3
'0:15.922',0.49
'0:15.926',0.81
'0:15.930',1.16
'0:15.934',1.42
'0:15.938',2.06
'0:15.941',2.58
'0:15.945',2.71
'0:15.949',2.48
'0:15.953',2.07
'0:15.957',1.72
'0:15.961',1.37
'0:15.965',1.05
'0:15.969',0.85
'0:15.973',0.85
'0:15.977',0.97
'0:15.980',1.13
'0:15.984',1.22
'0:15.988',0.95
'0:15.992',0.64
'0:15.996',0.67
'0:16.000',0.42
'0:16.004',-0.14
'0:16.008',-0.94
'0:16.012',-1.68
'0:16.016',-1.97
'0:16.020',-2.22
'0:16.023',-2.57
'0:16.027',-2.75
'0:16.031',-2.61
'0:16.035',-2.58
'0:16.039',-2.6
'0:16.043',-2.68
'0:16.047',-2.85
'0:16.051',-3.04
'0:16.055',-3.19
'0:16.059',-3.37
'0:16.063',-3.18
'0:16.066',-2.31
'0:16.070',-0.31
'0:16.074',2.79
'0:16.078',6.13
'0:16.082',8.41
'0:16.086',9.38
'0:16.090',7.93
'0:16.094',4.13
'0:16.098',0.34
'0:16.102',-2.38
'0:16.105',-4.05
'0:16.109',-4.7
'0:16.113',-4.97
'0:16.117',-5.14
'0:16.121',-4.67
'0:16.125',-3.62
'0:16.129',-2.85
'0:16.133',-2.29
'0:16.137',-2.01
'0:16.141',-1.87
'0:16.145',-1.84
'0:16.148',-1.95
'0:16.152',-1.95
'0:16.156',-1.96
'0:16.160',-2.04
'0:16.164',-1.87
'0:16.168',-1.88
'0:16.172',-1.74
'0:16.176',-1.21
'0:16.180',-0.89
'0:16.184',-0.88
'0:16.188',-0.82
'0:16.191',-0.8
'0:16.195',-0.88
'0:16.199',-1.05
'0:16.203',-0.91
'0:16.207',-0.64
'0:16.211',-0.46
'0:16.215',-0.53
'0:16.219',-0.23
'0:16.223',-0.08
'0:16.227',-0.06
'0:16.230',-0.06
'0:16.234',0.28
'0:16.238',0.52
'0:16.242',0.49
'0:16.246',0.44
'0:16.250',-0.02
'0:16.254',-0.44
'0:16.258',-0.74
'0:16.262',-1.1
'0:16.266',-1.56
'0:16.270',-1.91
'0:16.273',-2.12
'0:16.277',-2.08
'0:16.281',-1.95
'0:16.285',-1.69
'0:16.289',-1.1
'0:16.293',-0.62
'0:16.297',-0.7
'0:16.301',-1.16
'0:16.305',-1.12
'0:16.309',-0.89
'0:16.313',-0.51
'0:16.316',-0.26
'0:16.320',-0.06
'0:16.324',-0.07
'0:16.328',-0.32
'0:16.332',-0.66
'0:16.336',-0.56
'0:16.340',-0.43
'0:16.344',-0.5
'0:16.348',-0.44
'0:16.352',-0.73
'0:16.355',-0.83
'0:16.359',-1.1
'0:16.363',-1.53
'0:16.367',-1.8
'0:16.371',-2.15
'0:16.375',-2.78
'0:16.379',-3
'0:16.383',-2.84
'0:16.387',-2.95
'0:16.391',-3.45
'0:16.395',-3.89
'0:16.398',-3.97
'0:16.402',-3.91
'0:16.406',-3.94
'0:16.410',-4.11
'0:16.414',-3.95
'0:16.418',-3.5
'0:16.422',-2.85
'0:16.426',-1.98
'0:16.430',-0.49
'0:16.434',2.01
'0:16.438',4.68
'0:16.441',6.57
'0:16.445',7.18
'0:16.449',5.02
'0:16.453',0.89
'0:16.457',-2.68
'0:16.461',-4.76
'0:16.465',-5.65
'0:16.469',-5.87
'0:16.473',-5.49
'0:16.477',-5.02
'0:16.480',-4.71
'0:16.484',-4.35
'0:16.488',-3.74
'0:16.492',-2.91
'0:16.496',-1.97
'0:16.500',-1.39
'0:16.504',-0.99
'0:16.508',-0.65
'0:16.512',-0.43
'0:16.516',-0.36
'0:16.520',-0.39
'0:16.523',-0.29
'0:16.527',-0.17
'0:16.531',0.17
'0:16.535',0.28
'0:16.539',0.23
'0:16.543',0.1
'0:16.547',-0.23
'0:16.551',-0.73
'0:16.555',-0.82
'0:16.559',-0.42
'0:16.563',0.32
'0:16.566',0.93
'0:16.570',1.22
'0:16.574',1.19
'0:16.578',1.18
'0:16.582',1.47
'0:16.586',2.2
'0:16.590',3.03
'0:16.594',3.5
'0:16.598',3.31
'0:16.602',3.02
'0:16.605',2.53
'0:16.609',1.92
'0:16.613',1.41
'0:16.617',1.07
'0:16.621',0.9
'0:16.625',0.65
'0:16.629',0.34
'0:16.633',-0.09
'0:16.637',-0.57
'0:16.641',-1.3
'0:16.645',-1.55
'0:16.648',-1.26
'0:16.652',-0.5
'0:16.656',0.28
'0:16.660',1.1
'0:16.664',1.68
'0:16.668',1.65
'0:16.672',1.63
'0:16.676',1.76
'0:16.680',1.9
'0:16.684',1.95
'0:16.688',2.2
'0:16.691',2.46
'0:16.695',2.41
'0:16.699',2.09
'0:16.703',1.71
'0:16.707',1.51
'0:16.711',1.16
'0:16.715',0.65
'0:16.719',0.22
'0:16.723',-0.29
'0:16.727',-0.48
'0:16.730',-0.52
'0:16.734',-0.53
'0:16.738',-0.48
'0:16.742',-0.36
'0:16.746',-0.24
'0:16.750',0.02
'0:16.754',0.24
'0:16.758',0.43
'0:16.762',0.34
'0:16.766',0.2
'0:16.770',0.14
'0:16.773',0.1
'0:16.777',-0.02
'0:16.781',0.26
'0:16.785',1.48
'0:16.789',3.61
'0:16.793',5.66
'0:16.797',6.51
'0:16.801',6.45
'0:16.805',5.14
'0:16.809',2.13
'0:16.813',-0.8
'0:16.816',-2.67
'0:16.820',-3.5
'0:16.824',-3.59
'0:16.828',-3.11
'0:16.832',-2.52
'0:16.836',-1.97
'0:16.840',-1.36
'0:16.844',-0.99
'0:16.848',-0.62
'0:16.852',-0.17
'0:16.855',0.27
'0:16.859',0.42
'0:16.863',0.41
'0:16.867',0.49
'0:16.871',0.39
'0:16.875',0.4
'0:16.879',0.61
'0:16.883',0.8
'0:16.887',0.85
'0:16.891',0.98
'0:16.895',1.05
'0:16.898',1.08
'0:16.902',1.37
'0:16.906',1.55
'0:16.910',1.83
'0:16.914',2.4
'0:16.918',3.1
'0:16.922',3.82
'0:16.926',4.38
'0:16.930',4.79
'0:16.934',5.34
'0:16.938',5.26
'0:16.941',4.73
'0:16.945',4.26
'0:16.949',4.17
'0:16.953',4.42
'0:16.957',4.66
'0:16.961',4.75
'0:16.965',4.55
'0:16.969',4.31
'0:16.973',4.17
'0:16.977',3.99
'0:16.980',3.54
'0:16.984',3.24
'0:16.988',2.97
'0:16.992',2.54
'0:16.996',2.37
'0:17.000',2.32
'0:17.004',2.29
'0:17.008',2.29
'0:17.012',2.27
'0:17.016',2.22
'0:17.020',2.06
'0:17.023',2.02
'0:17.027',2.17
'0:17.031',2.31
'0:17.035',2.32
'0:17.039',2.13
'0:17.043',2.06
'0:17.047',2.01
'0:17.051',1.95
'0:17.055',2.12
'0:17.059',2.23
'0:17.063',2.07
'0:17.066',1.76
'0:17.070',1.09
'0:17.074',0.18
'0:17.078',-0.54
'0:17.082',-0.94
'0:17.086',-0.92
'0:17.090',-1.15
'0:17.094',-2.01
'0:17.098',-2.57
'0:17.102',-2.9
'0:17.105',-3.22
'0:17.109',-3.21
'0:17.113',-3.07
'0:17.117',-2.83
'0:17.121',-2.93
'0:17.125',-3.42
'0:17.129',-3.85
'0:17.133',-4.17
'0:17.137',-4.21
'0:17.141',-3.5
'0:17.145',-1.53
'0:17.148',1.7
'0:17.152',4.9
'0:17.156',6.61
'0:17.160',7.28
'0:17.164',6.38
'0:17.168',3.25
'0:17.172',-0.07
'0:17.176',-2.57
'0:17.180',-4.19
'0:17.184',-4.96
'0:17.188',-4.91
'0:17.191',-4.08
'0:17.195',-3.21
'0:17.199',-2.6
'0:17.203',-2.29
'0:17.207',-2.26
'0:17.211',-1.86
'0:17.215',-1.49
'0:17.219',-1.21
'0:17.223',-1.07
'0:17.227',-1.16
'0:17.230',-1.1
'0:17.234',-0.87
'0:17.238',-0.36
'0:17.242',-0.01
'0:17.246',0.34
'0:17.250',0.47
'0:17.254',0.56
'0:17.258',0.71
'0:17.262',0.88
'0:17.266',0.92
'0:17.270',1.18
'0:17.273',1.54
'0:17.277',1.75
'0:17.281',1.65
'0:17.285',1.4
'0:17.289',1.37
'0:17.293',1.69
'0:17.297',2.06
'0:17.301',2.29
'0:17.305',2.3
'0:17.309',2.08
'0:17.313',1.66
'0:17.316',1.66
'0:17.320',1.78
'0:17.324',1.88
'0:17.328',1.97
'0:17.332',1.65
'0:17.336',1.36
'0:17.340',1.13
'0:17.344',0.81
'0:17.348',0.32
'0:17.352',0.1
'0:17.355',0.12
'0:17.359',-0.05
'0:17.363',-0.31
'0:17.367',-0.29
'0:17.371',-0.16
'0:17.375',-0.02
'0:17.379',0.09
'0:17.383',0.4
'0:17.387',0.61
'0:17.391',0.51
'0:17.395',0.47
'0:17.398',0.88
'0:17.402',1.21
'0:17.406',1.7
'0:17.410',1.88
'0:17.414',2.07
'0:17.418',1.83
'0:17.422',1.68
'0:17.426',1.2
'0:17.430',0.14
'0:17.434',-0.81
'0:17.438',-1.34
'0:17.441',-1.91
'0:17.445',-2.58
'0:17.449',-2.85
'0:17.453',-2.73
'0:17.457',-2.84
'0:17.461',-3.1
'0:17.465',-3.29
'0:17.469',-3.48
'0:17.473',-3.43
'0:17.477',-3.36
'0:17.480',-3.56
'0:17.484',-3.83
'0:17.488',-3.92
'0:17.492',-3.8
'0:17.496',-3.32
'0:17.500',-1.92
'0:17.504',0.57
'0:17.508',3.99
'0:17.512',7.02
'0:17.516',8.86
'0:17.520',9.17
'0:17.523',6.51
'0:17.527',2.22
'0:17.531',-1.89
'0:17.535',-4.67
'0:17.539',-6.1
'0:17.543',-6.63
'0:17.547',-6.42
'0:17.551',-5.84
'0:17.555',-5.13
'0:17.559',-4.28
'0:17.563',-3.31
'0:17.566',-2.36
'0:17.570',-2.1
'0:17.574',-2.12
'0:17.578',-2.1
'0:17.582',-2.12
'0:17.586',-2.09
'0:17.590',-2.02
'0:17.594',-2.02
'0:17.598',-2.29
'0:17.602',-2.44
'0:17.605',-2.45
'0:17.609',-2.34
'0:17.613',-2.09
'0:17.617',-1.98
'0:17.621',-1.81
'0:17.625',-1.68
'0:17.629',-1.47
'0:17.633',-1.12
'0:17.637',-0.55
'0:17.641',0.03
'0:17.645',0.42
'0:17.648',0.42
'0:17.652',0.46
'0:17.656',0.42
'0:17.660',0.47
'0:17.664',0.62
'0:17.668',0.65
'0:17.672',0.54
'0:17.676',0.37
'0:17.680',0.24
'0:17.684',0.27
'0:17.688',0.04
'0:17.691',-0.56
'0:17.695',-1.03
'0:17.699',-1.32
'0:17.703',-1.47
'0:17.707',-1.58
'0:17.711',-1.4
'0:17.715',-0.96
'0:17.719',-0.67
'0:17.723',-0.56
'0:17.727',-0.66
'0:17.730',-0.93
'0:17.734',-0.67
'0:17.738',-0.12
'0:17.742',0.05
'0:17.746',0.27
'0:17.750',0.38
'0:17.754',0.59
'0:17.758',0.81
'0:17.762',0.8
'0:17.766',0.59
'0:17.770',0.42
'0:17.773',0.64
'0:17.777',1.07
'0:17.781',1.34
'0:17.785',1.22
'0:17.789',0.9
'0:17.793',0.25
'0:17.797',-0.72
'0:17.801',-1.91
'0:17.805',-2.48
'0:17.809',-2.42
'0:17.813',-2.54
'0:17.816',-2.87
'0:17.820',-2.94
'0:17.824',-2.78
'0:17.828',-2.83
'0:17.832',-2.95
'0:17.836',-3.15
'0:17.840',-3.54
'0:17.844',-4.18
'0:17.848',-4.5
'0:17.852',-4.01
'0:17.855',-3.05
'0:17.859',-1.86
'0:17.863',-0.23
'0:17.867',2.25
'0:17.871',4.8
'0:17.875',6.44
'0:17.879',6.43
'0:17.883',3.68
'0:17.887',-0.16
'0:17.891',-3.24
'0:17.895',-5.14
'0:17.898',-5.97
'0:17.902',-6.36
'0:17.906',-6.42
'0:17.910',-5.81
'0:17.914',-5
'0:17.918',-4.33
'0:17.922',-3.82
'0:17.926',-3.44
'0:17.930',-3.5
'0:17.934',-3.72
'0:17.938',-3.68
'0:17.941',-3.35
'0:17.945',-3.07
'0:17.949',-2.79
'0:17.953',-2.31
'0:17.957',-2
'0:17.961',-1.78
'0:17.965',-1.67
'0:17.969',-1.95
'0:17.973',-1.97
'0:17.977',-1.28
'0:17.980',-0.51
'0:17.984',-0.06
'0:17.988',0.19
'0:17.992',0.44
'0:17.996',0.43
'0:18.000',0.37
'0:18.004',0.49
'0:18.008',0.75
'0:18.012',1.05
'0:18.016',1.35
'0:18.020',1.54
'0:18.023',1.53
'0:18.027',1.42
'0:18.031',1.56
'0:18.035',1.6
'0:18.039',1.19
'0:18.043',0.74
'0:18.047',0.52
'0:18.051',0.01
'0:18.055',-0.38
'0:18.059',-0.68
'0:18.063',-0.8
'0:18.066',-0.7
'0:18.070',-0.54
'0:18.074',-0.86
'0:18.078',-1.19
'0:18.082',-1.02
'0:18.086',-0.53
'0:18.090',-0.19
'0:18.094',0.01
'0:18.098',0.13
'0:18.102',0.17
'0:18.105',0.39
'0:18.109',0.59
'0:18.113',0.49
'0:18.117',0.49
'0:18.121',0.64
'0:18.125',0.84
'0:18.129',1.3
'0:18.133',1.76
'0:18.137',1.78
'0:18.141',1.55
'0:18.145',1.17
'0:18.148',0.7
'0:18.152',0.3
'0:18.156',0
'0:18.160',-0.41
'0:18.164',-1.1
'0:18.168',-1.54
'0:18.172',-1.83
'0:18.176',-1.65
'0:18.180',-1.46
'0:18.184',-1.41
'0:18.188',-1.33
'0:18.191',-1.37
'0:18.195',-1.58
'0:18.199',-2.13
'0:18.203',-2.83
'0:18.207',-2.94
'0:18.211',-2.3
'0:18.215',-0.95
'0:18.219',1.03
'0:18.223',3.57
'0:18.227',5.56
'0:18.230',6.22
'0:18.234',6.2
'0:18.238',4.66
'0:18.242',1.5
'0:18.246',-1.28
'0:18.250',-3.03
'0:18.254',-3.65
'0:18.258',-3.63
'0:18.262',-3.4
'0:18.266',-2.78
'0:18.270',-2.06
'0:18.273',-1.57
'0:18.277',-1.39
'0:18.281',-1.21
'0:18.285',-0.94
'0:18.289',-0.68
'0:18.293',-0.61
'0:18.297',-0.4
'0:18.301',0.06
'0:18.305',0.15
'0:18.309',-0.05
'0:18.313',0.04
'0:18.316',0.5
'0:18.320',1.37
'0:18.324',2.1
'0:18.328',2.41
'0:18.332',2.44
'0:18.336',2.35
'0:18.340',2.48
'0:18.344',2.9
'0:18.348',3.16
'0:18.352',3.26
'0:18.355',3.26
'0:18.359',3.49
'0:18.363',3.93
'0:18.367',4.32
'0:18.371',4.66
'0:18.375',4.93
'0:18.379',5.01
'0:18.383',4.8
'0:18.387',4.44
'0:18.391',4.2
'0:18.395',4.24
'0:18.398',4.01
'0:18.402',3.43
'0:18.406',2.84
'0:18.410',2.28
'0:18.414',1.85
'0:18.418',1.71
'0:18.422',1.6
'0:18.426',1.26
'0:18.430',0.97
'0:18.434',1.13
'0:18.438',1.49
'0:18.441',1.88
'0:18.445',2.17
'0:18.449',2.39
'0:18.453',2.48
'0:18.457',2.7
'0:18.461',2.91
'0:18.465',2.81
'0:18.469',2.51
'0:18.473',2.45
'0:18.477',2.51
'0:18.480',2.49
'0:18.484',2.58
'0:18.488',2.66
'0:18.492',2.58
'0:18.496',2.45
'0:18.500',2.11
'0:18.504',1.72
'0:18.508',1.33
'0:18.512',0.58
'0:18.516',-0.12
'0:18.520',-0.53
'0:18.523',-0.65
'0:18.527',-0.71
'0:18.531',-1.07
'0:18.535',-1.27
'0:18.539',-1.16
'0:18.543',-1.02
'0:18.547',-1.07
'0:18.551',-1
'0:18.555',-1.09
'0:18.559',-1.22
'0:18.563',-1.44
'0:18.566',-1.33
'0:18.570',-0.61
'0:18.574',0.73
'0:18.578',2.87
'0:18.582',5.63
'0:18.586',7.56
'0:18.590',8.21
'0:18.594',7.62
'0:18.598',4.85
'0:18.602',1.57
'0:18.605',-0.87
'0:18.609',-2.42
'0:18.613',-3.17
'0:18.617',-3.32
'0:18.621',-3.35
'0:18.625',-2.79
'0:18.629',-2.12
'0:18.633',-1.92
'0:18.637',-1.49
'0:18.641',-0.86
'0:18.645',-0.36
'0:18.648',-0.31
'0:18.652',-0.29
'0:18.656',-0.19
'0:18.660',-0.27
'0:18.664',-0.53
'0:18.668',-0.66
'0:18.672',-0.35
'0:18.676',0.16
'0:18.680',0.42
'0:18.684',0.54
'0:18.688',0.57
'0:18.691',0.59
'0:18.695',0.69
'0:18.699',0.87
'0:18.703',1.11
'0:18.707',1.45
'0:18.711',1.68
'0:18.715',1.92
'0:18.719',2.1
'0:18.723',2.2
'0:18.727',2.33
'0:18.730',2.54
'0:18.734',2.71
'0:18.738',2.5
'0:18.742',1.81
'0:18.746',1.35
'0:18.750',1.12
'0:18.754',1.24
'0:18.758',0.81
'0:18.762',0.25
'0:18.766',0.01
'0:18.770',-0.09
'0:18.773',-0.24
'0:18.777',-0.6
'0:18.781',-1.12
'0:18.785',-1.25
'0:18.789',-0.92
'0:18.793',-0.41
'0:18.797',-0.16
'0:18.801',-0.24
'0:18.805',-0.11
'0:18.809',0.16
'0:18.813',0.7
'0:18.816',1.29
'0:18.820',1.29
'0:18.824',1.06
'0:18.828',0.65
'0:18.832',0.2
'0:18.836',0.28
'0:18.840',0.79
'0:18.844',1.38
'0:18.848',1.78
'0:18.852',1.8
'0:18.855',1.45
'0:18.859',0.92
'0:18.863',0.19
'0:18.867',-0.12
'0:18.871',-0.1
'0:18.875',-0.39
'0:18.879',-0.74
'0:18.883',-1.19
'0:18.887',-1.79
'0:18.891',-2.37
'0:18.895',-3.07
'0:18.898',-3.48
'0:18.902',-3.41
'0:18.906',-3.44
'0:18.910',-3.41
'0:18.914',-3.43
'0:18.918',-3.55
'0:18.922',-2.85
'0:18.926',-1.25
'0:18.930',0.77
'0:18.934',3.97
'0:18.938',7.07
'0:18.941',9.11
'0:18.945',9.42
'0:18.949',6.78
'0:18.953',2.84
'0:18.957',-0.99
'0:18.961',-3.65
'0:18.965',-4.75
'0:18.969',-5.14
'0:18.973',-4.92
'0:18.977',-4.62
'0:18.980',-4.26
'0:18.984',-3.49
'0:18.988',-3.26
'0:18.992',-3.14
'0:18.996',-3.07
'0:19.000',-2.65
'0:19.004',-2.43
'0:19.008',-2.21
'0:19.012',-1.7
'0:19.016',-1.08
'0:19.020',-0.95
'0:19.023',-1.07
'0:19.027',-1.07
'0:19.031',-0.68
'0:19.035',-0.53
'0:19.039',-0.37
'0:19.043',-0.34
'0:19.047',-0.48
'0:19.051',-0.58
'0:19.055',-0.5
'0:19.059',-0.54
'0:19.063',-0.3
'0:19.066',0.16
'0:19.070',0.47
'0:19.074',1
'0:19.078',1.04
'0:19.082',1.15
'0:19.086',0.98
'0:19.090',0.71
'0:19.094',0.51
'0:19.098',0.29
'0:19.102',-0.05
'0:19.105',-0.23
'0:19.109',0.14
'0:19.113',0.69
'0:19.117',0.74
'0:19.121',0.26
'0:19.125',-0.32
'0:19.129',-0.77
'0:19.133',-0.84
'0:19.137',-0.73
'0:19.141',-0.88
'0:19.145',-1.1
'0:19.148',-0.9
'0:19.152',-0.68
'0:19.156',-0.31
'0:19.160',0.29
'0:19.164',0.56
'0:19.168',0.65
'0:19.172',0.51
'0:19.176',0.54
'0:19.180',0.81
'0:19.184',0.65
'0:19.188',0.63
'0:19.191',0.52
'0:19.195',0.9
'0:19.199',1.12
'0:19.203',0.97
'0:19.207',0.86
'0:19.211',0.63
'0:19.215',0.09
'0:19.219',-1.18
'0:19.223',-2.12
'0:19.227',-2.58
'0:19.230',-2.98
'0:19.234',-3.38
'0:19.238',-3.01
'0:19.242',-2.7
'0:19.246',-2.93
'0:19.250',-3.25
'0:19.254',-3.66
'0:19.258',-3.78
'0:19.262',-3.55
'0:19.266',-3.34
'0:19.270',-3.61
'0:19.273',-3.8
'0:19.277',-3.35
'0:19.281',-2.14
'0:19.285',-0.25
'0:19.289',2.76
'0:19.293',6.35
'0:19.297',8.94
'0:19.301',9.85
'0:19.305',8.06
'0:19.309',3.98
'0:19.313',-0.21
'0:19.316',-3.31
'0:19.320',-5.04
'0:19.324',-5.87
'0:19.328',-6.61
'0:19.332',-6.95
'0:19.336',-6.22
'0:19.340',-4.97
'0:19.344',-3.91
'0:19.348',-3.03
'0:19.352',-2.26
'0:19.355',-1.9
'0:19.359',-1.88
'0:19.363',-2.86
'0:19.367',-3.7
'0:19.371',-3.35
'0:19.375',-2.28
'0:19.379',-1.25
'0:19.383',-0.4
'0:19.387',0.16
'0:19.391',0.33
'0:19.395',0.37
'0:19.398',0.38
'0:19.402',0.47
'0:19.406',0.76
'0:19.410',0.9
'0:19.414',0.93
'0:19.418',0.98
'0:19.422',1.13
'0:19.426',1.38
'0:19.430',1.59
'0:19.434',1.49
'0:19.438',1.64
'0:19.441',1.94
'0:19.445',2.04
'0:19.449',1.85
'0:19.453',1.68
'0:19.457',1.47
'0:19.461',1.22
'0:19.465',1.14
'0:19.469',1.26
'0:19.473',1.26
'0:19.477',1.09
'0:19.480',0.53
'0:19.484',0.08
'0:19.488',-0.01
'0:19.492',0.2
'0:19.496',0.13
'0:19.500',-0.06
'0:19.504',-0.28
'0:19.508',-0.13
'0:19.512',0.07
'0:19.516',-0.23
'0:19.520',-0.51
'0:19.523',-0.31
'0:19.527',0.08
