'0:00.000',-47.55605529
'0:00.004',-30.6237185
'0:00.008',-2.05040016
'0:00.012',10.64885244
'0:00.016',-17.65989814
'0:00.020',19.24730472
'0:00.023',187.5124016
'0:00.027',471.3936107
'0:00.031',703.4856803
'0:00.035',929.1619816
'0:00.039',1049.143462
'0:00.043',839.9365037
'0:00.047',568.6884053
'0:00.051',299.0938554
'0:00.055',138.9642172
'0:00.059',-8.73073616
'0:00.063',-33.00482836
'0:00.066',-15.21264634
'0:00.070',-7.14332959
'0:00.074',2.05040016
'0:00.078',5.82049077
'0:00.082',14.94807858
'0:00.086',2.05040016
'0:00.090',-35.1875124
'0:00.094',-57.54348833
'0:00.098',-42.46312587
'0:00.102',-38.16389973
'0:00.105',-33.53396389
'0:00.109',-34.65837688
'0:00.113',-54.83166876
'0:00.117',-71.8301475
'0:00.121',-69.18446987
'0:00.125',-67.26635359
'0:00.129',-52.71512666
'0:00.133',-55.69151399
'0:00.137',-40.01587407
'0:00.141',-37.37019644
'0:00.145',-34.65837688
'0:00.148',-35.45208016
'0:00.152',-22.75282757
'0:00.156',-24.40637608
'0:00.160',-21.42998876
'0:00.164',-18.18903367
'0:00.168',-18.71816919
'0:00.172',-21.95912428
'0:00.176',-23.6126728
'0:00.180',-21.69455652
'0:00.184',-18.71816919
'0:00.188',-3.37323897
'0:00.191',-6.3496263
'0:00.195',8.4661684
'0:00.199',10.11971691
'0:00.203',13.360672
'0:00.207',28.97016998
'0:00.211',41.40485482
'0:00.215',55.16237846
'0:00.219',57.80805609
'0:00.223',62.17342417
'0:00.227',77.78292215
'0:00.230',73.48369601
'0:00.234',71.56557973
'0:00.238',89.62232952
'0:00.242',77.25378663
'0:00.246',93.6569879
'0:00.250',105.2979694
'0:00.254',102.5861499
'0:00.258',105.5625372
'0:00.262',94.25226536
'0:00.266',109.8617633
'0:00.270',104.7688339
'0:00.273',101.7924466
'0:00.277',89.35776176
'0:00.281',94.25226536
'0:00.285',77.78292215
'0:00.289',72.95456049
'0:00.293',69.7136054
'0:00.297',71.56557973
'0:00.301',60.51987565
'0:00.305',46.49778424
'0:00.309',27.11819565
'0:00.313',22.22369204
'0:00.316',21.69455652
'0:00.320',10.38428467
'0:00.324',-1.7858324
'0:00.328',11.44255572
'0:00.332',5.22521331
'0:00.336',4.43151002
'0:00.340',9.85514915
'0:00.344',13.88980753
'0:00.348',27.11819565
'0:00.352',21.42998876
'0:00.355',-9.85514915
'0:00.359',-4.16694226
'0:00.363',-2.57953568
'0:00.367',39.48673854
'0:00.371',64.81910179
'0:00.375',68.06005688
'0:00.379',61.84271447
'0:00.383',19.24730472
'0:00.387',-17.9244659
'0:00.391',-43.52139692
'0:00.395',-30.88828626
'0:00.398',-40.28044183
'0:00.402',-32.21112507
'0:00.406',-18.18903367
'0:00.410',-11.70712349
'0:00.414',-15.21264634
'0:00.418',-23.6126728
'0:00.422',-15.21264634
'0:00.426',-33.00482836
'0:00.430',-41.66942258
'0:00.434',-46.23321648
'0:00.438',-41.14028706
'0:00.441',-48.94503605
'0:00.445',-48.41590052
'0:00.449',-55.95608175
'0:00.453',-46.23321648
'0:00.457',-58.33719161
'0:00.461',-65.08366955
'0:00.465',-62.96712746
'0:00.469',-70.77187645
'0:00.473',-77.78292215
'0:00.477',-75.07110259
'0:00.480',-82.08214829
'0:00.484',-78.57662544
'0:00.488',-69.97817316
'0:00.492',-77.78292215
'0:00.496',-90.74674251
'0:00.500',-96.63337522
'0:00.504',-93.6569879
'0:00.508',-86.11680667
'0:00.512',-78.57662544
'0:00.516',-75.86480587
'0:00.520',-80.75930948
'0:00.523',-75.86480587
'0:00.527',-37.6347642
'0:00.531',-17.13076262
'0:00.535',-14.15437529
'0:00.539',15.74178186
'0:00.543',21.42998876
'0:00.547',-2.05040016
'0:00.551',-43.25682916
'0:00.555',-58.07262385
'0:00.559',-65.67894702
'0:00.563',-46.49778424
'0:00.566',-37.37019644
'0:00.570',-44.05053244
'0:00.574',-72.09471526
'0:00.578',-109.5971956
'0:00.582',-122.8255837
'0:00.586',-132.7468748
'0:00.590',-126.5956743
'0:00.594',-108.5389245
'0:00.598',-81.81758053
'0:00.602',-91.27587803
'0:00.605',-96.36880746
'0:00.609',-90.48217475
'0:00.613',-92.59871685
'0:00.617',-83.47112904
'0:00.621',-44.91037767
'0:00.625',12.83153648
'0:00.629',19.24730472
'0:00.633',-9.32601363
'0:00.637',33.26939612
'0:00.641',158.9390833
'0:00.645',348.9648786
'0:00.648',529.3339507
'0:00.652',685.1643627
'0:00.656',725.9077981
'0:00.660',474.369998
'0:00.664',218.5329718
'0:00.668',49.47417157
'0:00.672',6.87876182
'0:00.676',-39.7513063
'0:00.680',-30.6237185
'0:00.684',13.62523976
'0:00.688',12.83153648
'0:00.691',-23.34810503
'0:00.695',-35.45208016
'0:00.699',-30.6237185
'0:00.703',-36.51035121
'0:00.707',-65.34823732
'0:00.711',-99.08062703
'0:00.715',-114.4255573
'0:00.719',-113.8964217
'0:00.723',-104.1735565
'0:00.727',-98.28692374
'0:00.730',-113.631854
'0:00.734',-128.9767842
'0:00.738',-114.1609895
'0:00.742',-105.5625372
'0:00.746',-113.8964217
'0:00.750',-126.5956743
'0:00.754',-127.3893776
'0:00.758',-100.4034658
'0:00.762',-92.59871685
'0:00.766',-81.288445
'0:00.770',-91.5404458
'0:00.773',-92.86328461
'0:00.777',-99.60976255
'0:00.781',-92.33414908
'0:00.785',-96.63337522
'0:00.789',-90.74674251
'0:00.793',-77.78292215
'0:00.797',-69.7136054
'0:00.801',-76.46008334
'0:00.805',-62.17342417
'0:00.809',-57.0143528
'0:00.813',-46.49778424
'0:00.816',-23.6126728
'0:00.820',-13.62523976
'0:00.824',-12.56696871
'0:00.828',-5.82049077
'0:00.832',2.84410345
'0:00.836',22.48825981
'0:00.840',32.47569284
'0:00.844',35.98121569
'0:00.848',29.23473775
'0:00.852',6.08505854
'0:00.855',-23.08353727
'0:00.859',-30.88828626
'0:00.863',-29.23473775
'0:00.867',-5.82049077
'0:00.871',2.57953568
'0:00.875',6.87876182
'0:00.879',17.39533038
'0:00.883',35.45208016
'0:00.887',27.38276341
'0:00.891',35.98121569
'0:00.895',38.69303525
'0:00.898',17.13076262
'0:00.902',-24.93551161
'0:00.906',-16.60162709
'0:00.910',2.05040016
'0:00.914',16.07249157
'0:00.918',28.70560222
'0:00.922',23.87724056
'0:00.926',19.24730472
'0:00.930',-40.54500959
'0:00.934',-59.72617237
'0:00.938',-52.4505589
'0:00.941',-61.04901118
'0:00.945',-62.96712746
'0:00.949',-86.64594219
'0:00.953',-105.5625372
'0:00.957',-85.05853562
'0:00.961',-64.81910179
'0:00.965',-65.67894702
'0:00.969',-69.18446987
'0:00.973',-86.11680667
'0:00.977',-83.47112904
'0:00.980',-81.288445
'0:00.984',-82.34671605
'0:00.988',-69.44903763
'0:00.992',-54.83166876
'0:00.996',-52.4505589
'0:01.000',-48.68046828
'0:01.004',-32.7402606
'0:01.008',-21.16542099
'0:01.012',-23.08353727
'0:01.016',-19.57801442
'0:01.020',-15.4772141
'0:01.023',-31.68198955
'0:01.027',-35.1875124
'0:01.031',-38.16389973
'0:01.035',-36.51035121
'0:01.039',-48.41590052
'0:01.043',-62.43799193
'0:01.047',-65.34823732
'0:01.051',-54.567101
'0:01.055',-55.16237846
'0:01.059',-49.73873933
'0:01.063',-45.96864872
'0:01.066',-48.41590052
'0:01.070',-68.58919241
'0:01.074',-69.18446987
'0:01.078',-66.20808255
'0:01.082',-63.49626298
'0:01.086',-49.20960381
'0:01.090',-37.03948674
'0:01.094',-22.22369204
'0:01.098',-18.45360143
'0:01.102',-29.76387327
'0:01.105',-45.70408096
'0:01.109',-50.26787486
'0:01.113',-54.03796547
'0:01.117',-52.18599114
'0:01.121',-31.94655731
'0:01.125',-0.13228388
'0:01.129',11.97169125
'0:01.133',-4.69607778
'0:01.137',-31.41742179
'0:01.141',-43.52139692
'0:01.145',-47.02691977
'0:01.148',-53.77339771
'0:01.152',-39.22217078
'0:01.156',-49.47417157
'0:01.160',-43.52139692
'0:01.164',-45.70408096
'0:01.168',-67.79548912
'0:01.172',-54.30253324
'0:01.176',-66.47265031
'0:01.180',-60.78444342
'0:01.184',-61.31357894
'0:01.188',-51.32614591
'0:01.191',-39.22217078
'0:01.195',-51.06157815
'0:01.199',-59.19703684
'0:01.203',-58.93246908
'0:01.207',-66.20808255
'0:01.211',-55.95608175
'0:01.215',-37.37019644
'0:01.219',-14.15437529
'0:01.223',-11.44255572
'0:01.227',-15.21264634
'0:01.230',-5.22521331
'0:01.234',-20.63628547
'0:01.238',-60.51987565
'0:01.242',-56.22064951
'0:01.246',45.17494543
'0:01.250',234.4070375
'0:01.254',436.8675177
'0:01.258',628.017726
'0:01.262',743.4354124
'0:01.266',625.0413387
'0:01.270',354.6530855
'0:01.273',172.1674714
'0:01.277',92.59871685
'0:01.281',35.1875124
'0:01.285',-21.42998876
'0:01.289',-25.20007937
'0:01.293',-11.17798796
'0:01.297',-24.67094385
'0:01.301',-30.88828626
'0:01.305',-6.87876182
'0:01.309',3.9023745
'0:01.313',-11.17798796
'0:01.316',-35.98121569
'0:01.320',-58.33719161
'0:01.324',-55.16237846
'0:01.328',-32.21112507
'0:01.332',-30.88828626
'0:01.336',-35.45208016
'0:01.340',-39.7513063
'0:01.344',-38.16389973
'0:01.348',-33.26939612
'0:01.352',-16.07249157
'0:01.355',-19.84258218
'0:01.359',-22.48825981
'0:01.363',-20.90085323
'0:01.367',-1.7858324
'0:01.371',-1.19055493
'0:01.375',-3.10867121
'0:01.379',-4.96064555
'0:01.383',11.17798796
'0:01.387',12.83153648
'0:01.391',29.76387327
'0:01.395',28.97016998
'0:01.398',28.1764667
'0:01.402',28.44103446
'0:01.406',29.23473775
'0:01.410',44.91037767
'0:01.414',43.78596468
'0:01.418',44.05053244
'0:01.422',45.17494543
'0:01.426',45.4395132
'0:01.430',60.25530789
'0:01.434',74.2773993
'0:01.438',74.80653482
'0:01.441',77.51835439
'0:01.445',78.57662544
'0:01.449',92.33414908
'0:01.453',105.0334017
'0:01.457',105.5625372
'0:01.461',109.5971956
'0:01.465',111.4491699
'0:01.469',124.4129903
'0:01.473',135.7232621
'0:01.477',120.6428997
'0:01.480',110.6554666
'0:01.484',112.8381507
'0:01.488',123.3547192
'0:01.492',133.0114426
'0:01.496',134.4004233
'0:01.500',126.3311066
'0:01.504',114.690125
'0:01.508',93.92155566
'0:01.512',70.77187645
'0:01.516',69.7136054
'0:01.520',74.80653482
'0:01.523',63.49626298
'0:01.527',61.84271447
'0:01.531',55.69151399
'0:01.535',37.6347642
'0:01.539',26.52291818
'0:01.543',15.74178186
'0:01.547',28.97016998
'0:01.551',21.95912428
'0:01.555',4.96064555
'0:01.559',10.9134202
'0:01.563',14.94807858
'0:01.566',11.97169125
'0:01.570',6.3496263
'0:01.574',5.55592301
'0:01.578',10.11971691
'0:01.582',13.88980753
'0:01.586',27.38276341
'0:01.590',37.89933197
'0:01.594',21.42998876
'0:01.598',27.38276341
'0:01.602',30.6237185
'0:01.605',27.38276341
'0:01.609',22.22369204
'0:01.613',21.69455652
'0:01.617',26.25835042
'0:01.621',29.49930551
'0:01.625',11.97169125
'0:01.629',23.6126728
'0:01.633',21.16542099
'0:01.637',9.06144586
'0:01.641',-1.7858324
'0:01.645',12.83153648
'0:01.648',6.3496263
'0:01.652',4.16694226
'0:01.656',-6.61419406
'0:01.660',-16.86619485
'0:01.664',-18.18903367
'0:01.668',-9.85514915
'0:01.672',-13.62523976
'0:01.676',-23.6126728
'0:01.680',-31.68198955
'0:01.684',-32.7402606
'0:01.688',-41.40485482
'0:01.691',-45.70408096
'0:01.695',-40.87571929
'0:01.699',-48.68046828
'0:01.703',-48.15133276
'0:01.707',-55.69151399
'0:01.711',-45.70408096
'0:01.715',-42.72769363
'0:01.719',-65.08366955
'0:01.723',-61.5781467
'0:01.727',-69.44903763
'0:01.730',-62.17342417
'0:01.734',-60.51987565
'0:01.738',-50.79701038
'0:01.742',-30.35915074
'0:01.746',-36.51035121
'0:01.750',-28.44103446
'0:01.754',-12.56696871
'0:01.758',-4.43151002
'0:01.762',1.19055493
'0:01.766',-17.65989814
'0:01.770',-9.59058139
'0:01.773',-27.91189894
'0:01.777',-37.03948674
'0:01.781',-46.23321648
'0:01.785',-48.94503605
'0:01.789',-57.54348833
'0:01.793',-60.51987565
'0:01.797',-54.567101
'0:01.801',-63.23169522
'0:01.805',-64.02539851
'0:01.809',-56.22064951
'0:01.813',-61.04901118
'0:01.816',-55.69151399
'0:01.820',-63.23169522
'0:01.824',-62.43799193
'0:01.828',-70.50730868
'0:01.832',-60.78444342
'0:01.836',-57.27892056
'0:01.840',-48.68046828
'0:01.844',-30.6237185
'0:01.848',9.06144586
'0:01.852',33.00482836
'0:01.855',6.87876182
'0:01.859',19.24730472
'0:01.863',159.4682188
'0:01.867',391.8248561
'0:01.871',570.3419538
'0:01.875',716.7140684
'0:01.879',763.6087043
'0:01.883',570.6065216
'0:01.887',320.9206958
'0:01.891',137.9059462
'0:01.895',59.72617237
'0:01.898',-11.97169125
'0:01.902',-11.70712349
'0:01.906',18.71816919
'0:01.910',48.15133276
'0:01.914',23.34810503
'0:01.918',-9.59058139
'0:01.922',-7.40789735
'0:01.926',-11.97169125
'0:01.930',-62.96712746
'0:01.934',-101.7924466
'0:01.938',-105.2979694
'0:01.941',-107.6790793
'0:01.945',-95.31053641
'0:01.949',-110.9200344
'0:01.953',-116.8728091
'0:01.957',-121.436603
'0:01.961',-108.5389245
'0:01.965',-95.83967194
'0:01.969',-109.5971956
'0:01.973',-114.690125
'0:01.977',-120.6428997
'0:01.980',-109.3326278
'0:01.984',-111.7798796
'0:01.988',-108.2743568
'0:01.992',-114.1609895
'0:01.996',-89.88689728
'0:02.000',-94.78140089
'0:02.004',-78.57662544
'0:02.008',-89.35776176
'0:02.012',-95.83967194
'0:02.016',-89.88689728
'0:02.020',-79.96560619
'0:02.023',-63.49626298
'0:02.027',-72.35928302
'0:02.031',-62.17342417
'0:02.035',-57.80805609
'0:02.039',-48.94503605
'0:02.043',-31.68198955
'0:02.047',-23.6126728
'0:02.051',-29.23473775
'0:02.055',6.08505854
'0:02.059',13.360672
'0:02.063',16.33705933
'0:02.066',27.11819565
'0:02.070',35.98121569
'0:02.074',37.03948674
'0:02.078',44.91037767
'0:02.082',48.68046828
'0:02.086',44.05053244
'0:02.090',52.97969442
'0:02.094',52.4505589
'0:02.098',59.4616046
'0:02.102',48.94503605
'0:02.105',76.7246511
'0:02.109',83.73569681
'0:02.113',82.87585158
'0:02.117',91.01131027
'0:02.121',81.81758053
'0:02.125',78.57662544
'0:02.129',69.44903763
'0:02.133',66.47265031
'0:02.137',57.27892056
'0:02.141',49.20960381
'0:02.145',47.02691977
'0:02.148',37.6347642
'0:02.152',33.53396389
'0:02.156',24.14180832
'0:02.160',16.60162709
'0:02.164',0.13228388
'0:02.168',6.61419406
'0:02.172',-15.21264634
'0:02.176',-9.32601363
'0:02.180',-16.60162709
'0:02.184',-16.07249157
'0:02.188',-9.06144586
'0:02.191',-15.4772141
'0:02.195',-10.64885244
'0:02.199',-16.86619485
'0:02.203',-14.94807858
'0:02.207',-7.93703287
'0:02.211',-15.4772141
'0:02.215',-11.44255572
'0:02.219',-1.7858324
'0:02.223',-14.94807858
'0:02.227',-6.3496263
'0:02.230',-14.41894305
'0:02.234',-12.23625901
'0:02.238',-18.71816919
'0:02.242',-14.41894305
'0:02.246',-21.16542099
'0:02.250',-14.15437529
'0:02.254',-13.62523976
'0:02.258',-19.84258218
'0:02.262',-29.23473775
'0:02.266',-34.65837688
'0:02.270',-44.91037767
'0:02.273',-61.84271447
'0:02.277',-52.97969442
'0:02.281',-62.43799193
'0:02.285',-66.20808255
'0:02.289',-75.33567035
'0:02.293',-77.51835439
'0:02.297',-70.77187645
'0:02.301',-79.37032873
'0:02.305',-81.02387724
'0:02.309',-89.09319399
'0:02.313',-93.12785237
'0:02.316',-87.77035518
'0:02.320',-80.75930948
'0:02.324',-96.36880746
'0:02.328',-102.3215821
'0:02.332',-107.1499438
'0:02.336',-104.7688339
'0:02.340',-98.28692374
'0:02.344',-81.02387724
'0:02.348',-70.77187645
'0:02.352',-74.54196706
'0:02.355',-71.30101197
'0:02.359',-50.0033071
'0:02.363',-34.12924135
'0:02.367',-23.08353727
'0:02.371',-40.87571929
'0:02.375',-52.18599114
'0:02.379',-63.49626298
'0:02.383',-80.75930948
'0:02.387',-86.38137443
'0:02.391',-89.35776176
'0:02.395',-86.11680667
'0:02.398',-96.36880746
'0:02.402',-111.1846022
'0:02.406',-100.6680336
'0:02.410',-105.827105
'0:02.414',-103.6444209
'0:02.418',-112.3090152
'0:02.422',-109.8617633
'0:02.426',-99.87433031
'0:02.430',-106.0916727
'0:02.434',-103.6444209
'0:02.438',-111.7798796
'0:02.441',-108.5389245
'0:02.445',-99.08062703
'0:02.449',-90.48217475
'0:02.453',-42.46312587
'0:02.457',-19.24730472
'0:02.461',-43.52139692
'0:02.465',-28.97016998
'0:02.469',69.7136054
'0:02.473',294.000926
'0:02.477',531.5166347
'0:02.480',707.5203387
'0:02.484',853.1648919
'0:02.488',793.3064356
'0:02.492',537.9985449
'0:02.496',315.5631986
'0:02.500',150.8697665
'0:02.504',75.07110259
'0:02.508',-12.23625901
'0:02.512',-8.73073616
'0:02.516',-3.10867121
'0:02.520',-18.18903367
'0:02.523',-22.75282757
'0:02.527',-27.11819565
'0:02.531',-25.7292149
'0:02.535',-36.24578345
'0:02.539',-64.81910179
'0:02.543',-83.47112904
'0:02.547',-74.2773993
'0:02.551',-92.33414908
'0:02.555',-86.38137443
'0:02.559',-81.288445
'0:02.563',-83.47112904
'0:02.566',-73.74826377
'0:02.570',-76.12937364
'0:02.574',-70.77187645
'0:02.578',-65.34823732
'0:02.582',-66.47265031
'0:02.586',-72.09471526
'0:02.590',-74.80653482
'0:02.594',-86.38137443
'0:02.598',-81.288445
'0:02.602',-82.34671605
'0:02.605',-72.35928302
'0:02.609',-59.72617237
'0:02.613',-71.03644421
'0:02.617',-64.02539851
'0:02.621',-64.55453403
'0:02.625',-55.69151399
'0:02.629',-44.64580991
'0:02.633',-40.28044183
'0:02.637',-32.47569284
'0:02.641',-31.15285402
'0:02.645',-21.95912428
'0:02.648',-27.91189894
'0:02.652',-9.06144586
'0:02.656',-1.7858324
'0:02.660',0.92598717
'0:02.664',11.44255572
'0:02.668',20.90085323
'0:02.672',22.22369204
'0:02.676',45.17494543
'0:02.680',48.41590052
'0:02.684',59.99074013
'0:02.688',69.7136054
'0:02.691',85.32310338
'0:02.695',76.46008334
'0:02.699',81.81758053
'0:02.703',78.04748991
'0:02.707',85.8522389
'0:02.711',84.00026457
'0:02.715',90.74674251
'0:02.719',96.89794299
'0:02.723',78.8411932
'0:02.727',72.09471526
'0:02.730',68.58919241
'0:02.734',57.27892056
'0:02.738',47.82062306
'0:02.742',31.68198955
'0:02.746',24.93551161
'0:02.750',19.84258218
'0:02.754',7.40789735
'0:02.758',-0.92598717
'0:02.762',-15.4772141
'0:02.766',-21.95912428
'0:02.770',-43.78596468
'0:02.773',-41.40485482
'0:02.777',-50.53244262
'0:02.781',-48.41590052
'0:02.785',-53.77339771
'0:02.789',-43.78596468
'0:02.793',-42.72769363
'0:02.797',-35.71664793
'0:02.801',-31.94655731
'0:02.805',-36.24578345
'0:02.809',-26.85362789
'0:02.813',-27.11819565
'0:02.816',-20.90085323
'0:02.820',-31.41742179
'0:02.824',-34.12924135
'0:02.828',-25.7292149
'0:02.832',-28.44103446
'0:02.836',-22.22369204
'0:02.840',-31.41742179
'0:02.844',-32.21112507
'0:02.848',-24.67094385
'0:02.852',-28.97016998
'0:02.855',-38.95760302
'0:02.859',-30.88828626
'0:02.863',-31.94655731
'0:02.867',-40.01587407
'0:02.871',-44.05053244
'0:02.875',-54.83166876
'0:02.879',-47.29148753
'0:02.883',-48.15133276
'0:02.887',-55.42694623
'0:02.891',-59.4616046
'0:02.895',-55.16237846
'0:02.898',-64.28996627
'0:02.902',-63.23169522
'0:02.906',-69.97817316
'0:02.910',-74.80653482
'0:02.914',-71.8301475
'0:02.918',-80.75930948
'0:02.922',-78.8411932
'0:02.926',-69.18446987
'0:02.930',-59.72617237
'0:02.934',-72.62385078
'0:02.938',-64.02539851
'0:02.941',-61.5781467
'0:02.945',-52.71512666
'0:02.949',-43.78596468
'0:02.953',-25.99378266
'0:02.957',-32.7402606
'0:02.961',-27.91189894
'0:02.965',-33.86467359
'0:02.969',-57.54348833
'0:02.973',-57.0143528
'0:02.977',-81.02387724
'0:02.980',-76.12937364
'0:02.984',-81.55301277
'0:02.988',-89.62232952
'0:02.992',-89.62232952
'0:02.996',-82.08214829
'0:03.000',-92.59871685
'0:03.004',-80.49474172
'0:03.008',-88.56405847
'0:03.012',-89.35776176
'0:03.016',-82.34671605
'0:03.020',-92.33414908
'0:03.023',-79.37032873
'0:03.027',-87.50578742
'0:03.031',-89.09319399
'0:03.035',-82.61128382
'0:03.039',-45.96864872
'0:03.043',-2.57953568
'0:03.047',37.6347642
'0:03.051',23.34810503
'0:03.055',18.18903367
'0:03.059',84.79396786
'0:03.063',245.1881738
'0:03.066',388.9146108
'0:03.070',507.771678
'0:03.074',548.2505457
'0:03.078',377.2736292
'0:03.082',121.7011707
'0:03.086',33.26939612
'0:03.090',6.08505854
'0:03.094',7.93703287
'0:03.098',-11.70712349
'0:03.102',20.10714994
'0:03.105',48.68046828
'0:03.109',37.37019644
'0:03.113',24.14180832
'0:03.117',20.90085323
'0:03.121',5.55592301
'0:03.125',-27.11819565
'0:03.129',-85.05853562
'0:03.133',-102.8507176
'0:03.137',-96.36880746
'0:03.141',-81.02387724
'0:03.145',-92.06958132
'0:03.148',-113.3672862
'0:03.152',-116.8728091
'0:03.156',-99.34519479
'0:03.160',-100.1388981
'0:03.164',-106.3562405
'0:03.168',-109.3326278
'0:03.172',-116.0791058
'0:03.176',-101.7924466
'0:03.180',-86.38137443
'0:03.184',-89.35776176
'0:03.188',-89.88689728
'0:03.191',-97.75778821
'0:03.195',-86.97665189
'0:03.199',-72.35928302
'0:03.203',-72.95456049
'0:03.207',-71.30101197
'0:03.211',-79.96560619
'0:03.215',-71.56557973
'0:03.219',-73.48369601
'0:03.223',-72.09471526
'0:03.227',-69.18446987
'0:03.230',-63.49626298
'0:03.234',-57.27892056
'0:03.238',-27.64733117
'0:03.242',-9.06144586
'0:03.246',11.44255572
'0:03.250',17.9244659
'0:03.254',23.34810503
'0:03.258',51.92142337
'0:03.262',54.83166876
'0:03.266',76.7246511
'0:03.270',82.61128382
'0:03.273',86.64594219
'0:03.277',99.34519479
'0:03.281',103.3798532
'0:03.285',109.8617633
'0:03.289',115.2192605
'0:03.293',117.4019446
'0:03.297',113.8964217
'0:03.301',119.8491964
'0:03.305',126.8602421
'0:03.309',115.2192605
'0:03.313',101.2633111
'0:03.316',113.1027184
'0:03.320',102.5861499
'0:03.324',95.31053641
'0:03.328',84.52940009
'0:03.332',68.85376017
'0:03.336',78.8411932
'0:03.340',53.50882995
'0:03.344',48.41590052
'0:03.348',22.22369204
'0:03.352',20.37171771
'0:03.355',12.23625901
'0:03.359',3.9023745
'0:03.363',-14.68351081
'0:03.367',-23.87724056
'0:03.371',-28.1764667
'0:03.375',-22.48825981
'0:03.379',-30.35915074
'0:03.383',-45.4395132
'0:03.387',-37.89933197
'0:03.391',-44.64580991
'0:03.395',-40.54500959
'0:03.398',-47.02691977
'0:03.402',-44.64580991
'0:03.406',-36.77491898
'0:03.410',-44.64580991
'0:03.414',-41.14028706
'0:03.418',-31.68198955
'0:03.422',-28.97016998
'0:03.426',-20.10714994
'0:03.430',-27.38276341
'0:03.434',-24.93551161
'0:03.438',-31.68198955
'0:03.441',-28.1764667
'0:03.445',-19.57801442
'0:03.449',-27.64733117
'0:03.453',-25.20007937
'0:03.457',-31.68198955
'0:03.461',-27.64733117
'0:03.465',-34.39380911
'0:03.469',-27.11819565
'0:03.473',-41.93399034
'0:03.477',-32.47569284
'0:03.480',-43.25682916
'0:03.484',-48.94503605
'0:03.488',-42.19855811
'0:03.492',-43.25682916
'0:03.496',-50.0033071
'0:03.500',-42.99226139
'0:03.504',-47.55605529
'0:03.508',-56.74978504
'0:03.512',-58.66790132
'0:03.516',-51.06157815
'0:03.520',-44.38124215
'0:03.523',-62.43799193
'0:03.527',-69.97817316
'0:03.531',-73.21912825
'0:03.535',-68.58919241
'0:03.539',-47.02691977
'0:03.543',-32.21112507
'0:03.547',-21.95912428
'0:03.551',-23.87724056
'0:03.555',-3.9023745
'0:03.559',-14.68351081
'0:03.563',0.92598717
'0:03.566',-4.69607778
'0:03.570',-7.40789735
'0:03.574',-19.24730472
'0:03.578',-44.91037767
'0:03.582',-60.78444342
'0:03.586',-52.18599114
'0:03.590',-57.80805609
'0:03.594',-69.44903763
'0:03.598',-61.04901118
'0:03.602',-75.86480587
'0:03.605',-67.26635359
'0:03.609',-73.74826377
'0:03.613',-70.50730868
'0:03.617',-62.17342417
'0:03.621',-59.72617237
'0:03.625',-65.67894702
'0:03.629',-56.22064951
'0:03.633',-54.83166876
'0:03.637',-47.29148753
'0:03.641',-43.52139692
'0:03.645',-32.7402606
'0:03.648',-8.4661684
'0:03.652',22.48825981
'0:03.656',30.35915074
'0:03.660',6.87876182
'0:03.664',51.65685561
'0:03.668',255.7047424
'0:03.672',525.0347245
'0:03.676',740.1944573
'0:03.680',926.9792976
'0:03.684',960.976255
'0:03.688',737.4826377
'0:03.691',490.2440638
'0:03.695',290.2308354
'0:03.699',127.1248098
'0:03.703',31.94655731
'0:03.707',43.78596468
'0:03.711',51.65685561
'0:03.715',35.1875124
'0:03.719',27.64733117
'0:03.723',33.00482836
'0:03.727',43.25682916
'0:03.730',3.63780673
'0:03.734',-25.7292149
'0:03.738',-34.12924135
'0:03.742',-32.7402606
'0:03.746',-24.14180832
'0:03.750',-45.70408096
'0:03.754',-41.66942258
'0:03.758',-50.0033071
'0:03.762',-48.68046828
'0:03.766',-55.42694623
'0:03.770',-45.4395132
'0:03.773',-43.25682916
'0:03.777',-50.79701038
'0:03.781',-47.29148753
'0:03.785',-38.16389973
'0:03.789',-45.70408096
'0:03.793',-43.52139692
'0:03.797',-50.53244262
'0:03.801',-46.76235201
'0:03.805',-52.97969442
'0:03.809',-45.17494543
'0:03.813',-44.64580991
'0:03.816',-35.98121569
'0:03.820',-15.4772141
'0:03.824',-4.96064555
'0:03.828',3.37323897
'0:03.832',3.9023745
'0:03.836',12.23625901
'0:03.840',17.13076262
'0:03.844',43.25682916
'0:03.848',34.92294464
'0:03.852',51.92142337
'0:03.855',59.72617237
'0:03.859',64.81910179
'0:03.863',76.12937364
'0:03.867',83.73569681
'0:03.871',83.14041934
'0:03.875',106.6208083
'0:03.879',111.7137377
'0:03.883',108.8034923
'0:03.887',117.4019446
'0:03.891',115.2192605
'0:03.895',120.9074674
'0:03.898',111.1846022
'0:03.902',125.2066936
'0:03.906',117.1373768
'0:03.910',114.4255573
'0:03.914',119.8491964
'0:03.918',110.3908989
'0:03.922',109.5971956
'0:03.926',102.0570144
'0:03.930',82.61128382
'0:03.934',87.24121966
'0:03.938',61.5781467
'0:03.941',46.23321648
'0:03.945',39.22217078
'0:03.949',17.9244659
'0:03.953',5.55592301
'0:03.957',-3.37323897
'0:03.961',-18.18903367
'0:03.965',-24.67094385
'0:03.969',-30.35915074
'0:03.973',-28.44103446
'0:03.977',-37.03948674
'0:03.980',-34.12924135
'0:03.984',-39.48673854
'0:03.988',-30.35915074
'0:03.992',-45.17494543
'0:03.996',-37.37019644
'0:04.000',-49.47417157
'0:04.004',-38.69303525
'0:04.008',-46.23321648
'0:04.012',-45.70408096
'0:04.016',-38.16389973
'0:04.020',-49.20960381
'0:04.023',-37.37019644
'0:04.027',-45.4395132
'0:04.031',-45.70408096
'0:04.035',-54.30253324
'0:04.039',-48.68046828
'0:04.043',-52.71512666
'0:04.047',-44.91037767
'0:04.051',-46.49778424
'0:04.055',-54.567101
'0:04.059',-63.49626298
'0:04.063',-66.73721807
'0:04.066',-60.51987565
'0:04.070',-79.37032873
'0:04.074',-71.30101197
'0:04.078',-79.37032873
'0:04.082',-81.81758053
'0:04.086',-91.01131027
'0:04.090',-94.78140089
'0:04.094',-103.9089887
'0:04.098',-95.83967194
'0:04.102',-113.1027184
'0:04.105',-105.5625372
'0:04.109',-110.6554666
'0:04.113',-105.2979694
'0:04.117',-112.3090152
'0:04.121',-111.4491699
'0:04.125',-119.3200609
'0:04.129',-109.8617633
'0:04.133',-106.6208083
'0:04.137',-113.1027184
'0:04.141',-125.2066936
'0:04.145',-116.6082413
'0:04.148',-125.4712613
'0:04.152',-108.2743568
'0:04.156',-99.08062703
'0:04.160',-93.39242013
'0:04.164',-82.61128382
'0:04.168',-75.86480587
'0:04.172',-76.12937364
'0:04.176',-67.26635359
'0:04.180',-45.70408096
'0:04.184',-50.26787486
'0:04.188',-57.54348833
'0:04.191',-73.48369601
'0:04.195',-81.81758053
'0:04.199',-93.12785237
'0:04.203',-97.42707851
'0:04.207',-120.6428997
'0:04.211',-121.1720352
'0:04.215',-115.2854025
'0:04.219',-126.3311066
'0:04.223',-128.4476487
'0:04.227',-119.3200609
'0:04.230',-121.9657385
'0:04.234',-131.6886037
'0:04.238',-125.2066936
'0:04.242',-127.1248098
'0:04.246',-134.4004233
'0:04.250',-121.436603
'0:04.254',-116.8728091
'0:04.258',-125.4712613
'0:04.262',-109.3326278
'0:04.266',-70.50730868
'0:04.270',-44.91037767
'0:04.273',-38.69303525
'0:04.277',-58.07262385
'0:04.281',-9.32601363
'0:04.285',163.2383094
'0:04.289',351.941266
'0:04.293',503.4724519
'0:04.297',611.2838151
'0:04.301',566.0427277
'0:04.305',323.8970831
'0:04.309',148.6870825
'0:04.313',53.24426219
'0:04.316',35.1875124
'0:04.320',-17.13076262
'0:04.324',7.14332959
'0:04.328',29.76387327
'0:04.332',32.21112507
'0:04.336',2.31496792
'0:04.340',-13.88980753
'0:04.344',-22.22369204
'0:04.348',-64.02539851
'0:04.352',-124.4129903
'0:04.355',-155.1689927
'0:04.359',-144.9169919
'0:04.363',-140.6177657
'0:04.367',-147.033534
'0:04.371',-154.9044249
'0:04.375',-154.0445797
'0:04.379',-145.7106952
'0:04.383',-125.7358291
'0:04.387',-115.2854025
'0:04.391',-121.436603
'0:04.395',-119.8491964
'0:04.398',-112.8381507
'0:04.402',-94.25226536
'0:04.406',-98.81605926
'0:04.410',-88.29949071
'0:04.414',-87.24121966
'0:04.418',-80.75930948
'0:04.422',-77.51835439
'0:04.426',-65.67894702
'0:04.430',-55.95608175
'0:04.434',-55.42694623
'0:04.438',-48.41590052
'0:04.441',-28.97016998
'0:04.445',-17.9244659
'0:04.449',-23.34810503
'0:04.453',-21.69455652
'0:04.457',-15.74178186
'0:04.461',2.31496792
'0:04.465',-2.05040016
'0:04.469',24.67094385
'0:04.473',25.46464713
'0:04.477',31.94655731
'0:04.480',35.45208016
'0:04.484',31.68198955
'0:04.488',41.40485482
'0:04.492',40.54500959
'0:04.496',46.49778424
'0:04.500',51.06157815
'0:04.504',64.02539851
'0:04.508',57.54348833
'0:04.512',57.0143528
'0:04.516',47.02691977
'0:04.520',51.32614591
'0:04.523',47.82062306
'0:04.527',41.66942258
'0:04.531',40.54500959
'0:04.535',45.70408096
'0:04.539',34.39380911
'0:04.543',32.7402606
'0:04.547',26.52291818
'0:04.551',8.73073616
'0:04.555',-2.31496792
'0:04.559',-13.360672
'0:04.563',-15.21264634
'0:04.566',-37.37019644
'0:04.570',-54.567101
'0:04.574',-50.53244262
'0:04.578',-78.31205768
'0:04.582',-78.8411932
'0:04.586',-69.44903763
'0:04.590',-88.03492294
'0:04.594',-83.14041934
'0:04.598',-78.04748991
'0:04.602',-79.10576096
'0:04.605',-84.52940009
'0:04.609',-86.97665189
'0:04.613',-83.47112904
'0:04.617',-94.25226536
'0:04.621',-93.9876976
'0:04.625',-83.73569681
'0:04.629',-87.50578742
'0:04.633',-84.00026457
'0:04.637',-78.04748991
'0:04.641',-77.25378663
'0:04.645',-66.73721807
'0:04.648',-71.03644421
'0:04.652',-67.79548912
'0:04.656',-61.84271447
'0:04.660',-60.78444342
'0:04.664',-65.67894702
'0:04.668',-69.44903763
'0:04.672',-67.53092136
'0:04.676',-62.70255969
'0:04.680',-61.04901118
'0:04.684',-64.55453403
'0:04.688',-68.32462464
'0:04.691',-67.26635359
'0:04.695',-63.23169522
'0:04.699',-76.98921886
'0:04.703',-78.8411932
'0:04.707',-67.53092136
'0:04.711',-68.58919241
'0:04.715',-79.63489649
'0:04.719',-75.33567035
'0:04.723',-77.78292215
'0:04.727',-83.14041934
'0:04.730',-68.85376017
'0:04.734',-65.08366955
'0:04.738',-75.60023811
'0:04.742',-75.33567035
'0:04.746',-65.67894702
'0:04.750',-69.7136054
'0:04.754',-50.26787486
'0:04.758',-44.64580991
'0:04.762',-42.99226139
'0:04.766',-16.33705933
'0:04.770',-6.08505854
'0:04.773',-3.37323897
'0:04.777',4.43151002
'0:04.781',6.87876182
'0:04.785',16.60162709
'0:04.789',-4.96064555
'0:04.793',-17.65989814
'0:04.797',-26.25835042
'0:04.801',-25.46464713
'0:04.805',-31.94655731
'0:04.809',-37.37019644
'0:04.813',-34.39380911
'0:04.816',-43.25682916
'0:04.820',-41.14028706
'0:04.824',-31.41742179
'0:04.828',-22.22369204
'0:04.832',-20.10714994
'0:04.836',-27.11819565
'0:04.840',-23.34810503
'0:04.844',-29.49930551
'0:04.848',-21.95912428
'0:04.852',-36.77491898
'0:04.855',-27.64733117
'0:04.859',-23.34810503
'0:04.863',1.71969046
'0:04.867',24.40637608
'0:04.871',41.14028706
'0:04.875',5.55592301
'0:04.879',13.360672
'0:04.883',113.1027184
'0:04.887',298.0355844
'0:04.891',467.8880878
'0:04.895',632.3169522
'0:04.898',719.1613202
'0:04.902',535.2867253
'0:04.906',290.7599709
'0:04.910',148.6870825
'0:04.914',87.24121966
'0:04.918',39.48673854
'0:04.922',19.24730472
'0:04.926',24.67094385
'0:04.930',31.15285402
'0:04.934',4.69607778
'0:04.938',-7.93703287
'0:04.941',-12.56696871
'0:04.945',6.87876182
'0:04.949',-2.31496792
'0:04.953',-26.25835042
'0:04.957',-38.16389973
'0:04.961',-28.70560222
'0:04.965',-11.70712349
'0:04.969',-19.84258218
'0:04.973',-40.54500959
'0:04.977',-20.63628547
'0:04.980',-14.68351081
'0:04.984',-13.360672
'0:04.988',-18.18903367
'0:04.992',-7.14332959
'0:04.996',-21.16542099
'0:05.000',-14.68351081
'0:05.004',2.31496792
'0:05.008',-2.84410345
'0:05.012',-6.61419406
'0:05.016',-4.16694226
'0:05.020',-14.68351081
'0:05.023',-13.09610424
'0:05.027',-2.57953568
'0:05.031',-7.40789735
'0:05.035',-4.96064555
'0:05.039',-14.15437529
'0:05.043',3.37323897
'0:05.047',12.83153648
'0:05.051',7.67246511
'0:05.055',11.17798796
'0:05.059',18.18903367
'0:05.063',34.65837688
'0:05.066',28.70560222
'0:05.070',40.28044183
'0:05.074',42.99226139
'0:05.078',49.20960381
'0:05.082',66.47265031
'0:05.086',76.46008334
'0:05.090',87.77035518
'0:05.094',90.74674251
'0:05.098',82.08214829
'0:05.102',99.60976255
'0:05.105',108.2743568
'0:05.109',102.8507176
'0:05.113',91.01131027
'0:05.117',98.81605926
'0:05.121',99.08062703
'0:05.125',92.06958132
'0:05.129',86.91050995
'0:05.133',90.15146504
'0:05.137',81.288445
'0:05.141',67.53092136
'0:05.145',61.5781467
'0:05.148',39.48673854
'0:05.152',41.14028706
'0:05.156',31.41742179
'0:05.160',18.71816919
'0:05.164',-1.19055493
'0:05.168',-7.40789735
'0:05.172',-23.87724056
'0:05.176',-33.86467359
'0:05.180',-45.70408096
'0:05.184',-48.94503605
'0:05.188',-40.01587407
'0:05.191',-57.27892056
'0:05.195',-50.53244262
'0:05.199',-45.70408096
'0:05.203',-48.68046828
'0:05.207',-39.7513063
'0:05.211',-41.40485482
'0:05.215',-50.79701038
'0:05.219',-44.91037767
'0:05.223',-47.886765
'0:05.227',-39.48673854
'0:05.230',-41.93399034
'0:05.234',-35.45208016
'0:05.238',-29.23473775
'0:05.242',-30.88828626
'0:05.246',-37.89933197
'0:05.250',-40.87571929
'0:05.254',-35.98121569
'0:05.258',-45.96864872
'0:05.262',-45.96864872
'0:05.266',-37.03948674
'0:05.270',-41.40485482
'0:05.273',-37.03948674
'0:05.277',-45.4395132
'0:05.281',-29.23473775
'0:05.285',-36.51035121
'0:05.289',-40.87571929
'0:05.293',-36.77491898
'0:05.297',-45.70408096
'0:05.301',-44.64580991
'0:05.305',-51.06157815
'0:05.309',-56.48521728
'0:05.313',-53.50882995
'0:05.316',-62.43799193
'0:05.320',-60.25530789
'0:05.324',-50.53244262
'0:05.328',-56.74978504
'0:05.332',-69.44903763
'0:05.336',-61.5781467
'0:05.340',-59.99074013
'0:05.344',-66.20808255
'0:05.348',-56.22064951
'0:05.352',-69.7136054
'0:05.355',-77.25378663
'0:05.359',-74.54196706
'0:05.363',-65.94351478
'0:05.367',-57.54348833
'0:05.371',-55.16237846
'0:05.375',-61.04901118
'0:05.379',-56.74978504
'0:05.383',-48.41590052
'0:05.387',-41.93399034
'0:05.391',-55.69151399
'0:05.395',-44.64580991
'0:05.398',-40.28044183
'0:05.402',-62.96712746
'0:05.406',-71.03644421
'0:05.410',-71.03644421
'0:05.414',-78.57662544
'0:05.418',-73.21912825
'0:05.422',-78.04748991
'0:05.426',-70.50730868
'0:05.430',-86.97665189
'0:05.434',-78.57662544
'0:05.438',-88.82862623
'0:05.441',-77.25378663
'0:05.445',-85.8522389
'0:05.449',-86.97665189
'0:05.453',-94.78140089
'0:05.457',-88.29949071
'0:05.461',-92.33414908
'0:05.465',-85.32310338
'0:05.469',-87.24121966
'0:05.473',-79.37032873
'0:05.477',-72.62385078
'0:05.480',-59.72617237
'0:05.484',-21.69455652
'0:05.488',6.08505854
'0:05.492',-0.92598717
'0:05.496',-4.96064555
'0:05.500',39.7513063
'0:05.504',211.2573583
'0:05.508',340.8955619
'0:05.512',435.2801111
'0:05.516',463.3242939
'0:05.520',301.2765395
'0:05.523',84.00026457
'0:05.527',27.11819565
'0:05.531',-20.37171771
'0:05.535',-85.8522389
'0:05.539',-63.23169522
'0:05.543',-18.98273695
'0:05.547',-11.70712349
'0:05.551',-6.61419406
'0:05.555',10.38428467
'0:05.559',31.94655731
'0:05.563',30.35915074
'0:05.566',-6.08505854
'0:05.570',-33.00482836
'0:05.574',-22.22369204
'0:05.578',-5.55592301
'0:05.582',-4.69607778
'0:05.586',-19.84258218
'0:05.590',-30.02844103
'0:05.594',-22.75282757
'0:05.598',-24.14180832
'0:05.602',-21.16542099
'0:05.605',-33.26939612
'0:05.609',-44.05053244
'0:05.613',-39.48673854
'0:05.617',-26.85362789
'0:05.621',-22.75282757
'0:05.625',-16.33705933
'0:05.629',-26.25835042
'0:05.633',-23.34810503
'0:05.637',-27.38276341
'0:05.641',-22.48825981
'0:05.645',-15.4772141
'0:05.648',-25.7292149
'0:05.652',-8.20160063
'0:05.656',2.57953568
'0:05.660',8.4661684
'0:05.664',2.57953568
'0:05.668',-6.61419406
'0:05.672',-7.40789735
'0:05.676',0.92598717
'0:05.680',6.61419406
'0:05.684',18.45360143
'0:05.688',25.46464713
'0:05.691',24.40637608
'0:05.695',32.47569284
'0:05.699',38.69303525
'0:05.703',50.79701038
'0:05.707',73.21912825
'0:05.711',86.64594219
'0:05.715',79.63489649
'0:05.719',88.29949071
'0:05.723',100.4034658
'0:05.727',105.0334017
'0:05.730',86.38137443
'0:05.734',111.1846022
'0:05.738',118.4602156
'0:05.742',161.9154706
'0:05.746',167.2729678
'0:05.750',151.1343343
'0:05.754',114.9546928
'0:05.758',91.27587803
'0:05.762',52.71512666
'0:05.766',39.48673854
'0:05.770',35.45208016
'0:05.773',29.49930551
'0:05.777',24.40637608
'0:05.781',21.42998876
'0:05.785',8.73073616
'0:05.789',3.37323897
'0:05.793',-3.9023745
'0:05.797',-8.73073616
'0:05.801',5.22521331
'0:05.805',-7.14332959
'0:05.809',2.84410345
'0:05.813',10.38428467
'0:05.816',6.08505854
'0:05.820',-8.73073616
'0:05.824',-3.9023745
'0:05.828',-28.44103446
'0:05.832',-7.40789735
'0:05.836',2.84410345
'0:05.840',21.16542099
'0:05.844',13.09610424
'0:05.848',6.3496263
'0:05.852',-5.82049077
'0:05.855',33.53396389
'0:05.859',34.12924135
'0:05.863',28.97016998
'0:05.867',9.59058139
'0:05.871',12.23625901
'0:05.875',16.33705933
'0:05.879',0.92598717
'0:05.883',13.360672
'0:05.887',24.93551161
'0:05.891',10.64885244
'0:05.895',16.60162709
'0:05.898',2.57953568
'0:05.902',13.88980753
'0:05.906',8.20160063
'0:05.910',9.59058139
'0:05.914',0.13228388
'0:05.918',3.37323897
'0:05.922',14.15437529
'0:05.926',7.67246511
'0:05.930',-6.3496263
'0:05.934',0.92598717
'0:05.938',18.45360143
'0:05.941',28.1764667
'0:05.945',38.69303525
'0:05.949',41.66942258
'0:05.953',49.20960381
'0:05.957',35.71664793
'0:05.961',45.96864872
'0:05.965',38.95760302
'0:05.969',55.95608175
'0:05.973',47.29148753
'0:05.977',52.18599114
'0:05.980',47.55605529
'0:05.984',71.03644421
'0:05.988',85.05853562
'0:05.992',92.59871685
'0:05.996',100.1388981
'0:06.000',97.75778821
'0:06.004',89.09319399
'0:06.008',101.2633111
'0:06.012',91.01131027
'0:06.016',83.47112904
'0:06.020',67.53092136
'0:06.023',58.93246908
'0:06.027',52.4505589
'0:06.031',25.46464713
'0:06.035',18.98273695
'0:06.039',19.51187248
'0:06.043',25.46464713
'0:06.047',34.12924135
'0:06.051',23.6126728
'0:06.055',19.24730472
'0:06.059',21.16542099
'0:06.063',10.9134202
'0:06.066',2.57953568
'0:06.070',6.61419406
'0:06.074',1.45512269
'0:06.078',4.69607778
'0:06.082',11.70712349
'0:06.086',2.57953568
'0:06.090',-9.59058139
'0:06.094',32.21112507
'0:06.098',64.81910179
'0:06.102',88.56405847
'0:06.105',68.32462464
'0:06.109',89.88689728
'0:06.113',189.0998082
'0:06.117',402.3414247
'0:06.121',549.5733845
'0:06.125',667.9013162
'0:06.129',689.7281566
'0:06.133',501.2897678
'0:06.137',247.1062901
'0:06.141',144.3878563
'0:06.145',55.16237846
'0:06.148',-20.90085323
'0:06.152',2.57953568
'0:06.156',41.14028706
'0:06.160',39.48673854
'0:06.164',38.42846749
'0:06.168',44.31510021
'0:06.172',64.55453403
'0:06.176',41.14028706
'0:06.180',12.83153648
'0:06.184',-4.43151002
'0:06.188',-4.96064555
'0:06.191',-4.69607778
'0:06.195',21.69455652
'0:06.199',-2.84410345
'0:06.203',-1.45512269
'0:06.207',11.17798796
'0:06.211',7.93703287
'0:06.215',4.43151002
'0:06.219',-15.21264634
'0:06.223',-14.41894305
'0:06.227',-6.08505854
'0:06.230',3.63780673
'0:06.234',17.65989814
'0:06.238',2.31496792
'0:06.242',5.22521331
'0:06.246',-4.43151002
'0:06.250',2.05040016
'0:06.254',14.94807858
'0:06.258',2.31496792
'0:06.262',-7.67246511
'0:06.266',13.09610424
'0:06.270',-0.66141941
'0:06.273',12.83153648
'0:06.277',18.45360143
'0:06.281',25.20007937
'0:06.285',29.49930551
'0:06.289',30.88828626
'0:06.293',43.25682916
'0:06.297',50.0033071
'0:06.301',42.72769363
'0:06.305',62.70255969
'0:06.309',61.5781467
'0:06.313',72.95456049
'0:06.316',81.55301277
'0:06.320',91.80501356
'0:06.324',95.57510417
'0:06.328',93.39242013
'0:06.332',119.3200609
'0:06.336',127.6539454
'0:06.340',124.1484225
'0:06.344',129.8366294
'0:06.348',125.7358291
'0:06.352',133.60672
'0:06.355',141.9406045
'0:06.359',124.677558
'0:06.363',116.0791058
'0:06.367',110.6554666
'0:06.371',114.9546928
'0:06.375',107.1499438
'0:06.379',92.86328461
'0:06.383',85.8522389
'0:06.387',78.8411932
'0:06.391',49.73873933
'0:06.395',42.99226139
'0:06.398',28.97016998
'0:06.402',36.77491898
'0:06.406',13.360672
'0:06.410',1.19055493
'0:06.414',-5.22521331
'0:06.418',-3.37323897
'0:06.422',-11.70712349
'0:06.426',-18.45360143
'0:06.430',-30.88828626
'0:06.434',-22.22369204
'0:06.438',-20.37171771
'0:06.441',-27.38276341
'0:06.445',-33.53396389
'0:06.449',-30.88828626
'0:06.453',-23.6126728
'0:06.457',-36.77491898
'0:06.461',-41.40485482
'0:06.465',-32.47569284
'0:06.469',-32.47569284
'0:06.473',-56.48521728
'0:06.477',-35.1875124
'0:06.480',-41.14028706
'0:06.484',-33.00482836
'0:06.488',-33.00482836
'0:06.492',-40.28044183
'0:06.496',-34.65837688
'0:06.500',-54.83166876
'0:06.504',-78.57662544
'0:06.508',-79.96560619
'0:06.512',-58.93246908
'0:06.516',-69.97817316
'0:06.520',-54.83166876
'0:06.523',-60.78444342
'0:06.527',-78.31205768
'0:06.531',-74.01283154
'0:06.535',-69.97817316
'0:06.539',-71.8301475
'0:06.543',-76.12937364
'0:06.547',-62.17342417
'0:06.551',-59.19703684
'0:06.555',-70.24274092
'0:06.559',-69.44903763
'0:06.563',-74.2773993
'0:06.566',-62.43799193
'0:06.570',-45.17494543
'0:06.574',-40.01587407
'0:06.578',-52.4505589
'0:06.582',-70.24274092
'0:06.586',-75.33567035
'0:06.590',-62.17342417
'0:06.594',-59.19703684
'0:06.598',-53.77339771
'0:06.602',-37.6347642
'0:06.605',-11.44255572
'0:06.609',-30.35915074
'0:06.613',-25.20007937
'0:06.617',-20.10714994
'0:06.621',-5.82049077
'0:06.625',-27.38276341
'0:06.629',-43.78596468
'0:06.633',-55.16237846
'0:06.637',-67.79548912
'0:06.641',-85.8522389
'0:06.645',-90.74674251
'0:06.648',-92.86328461
'0:06.652',-104.7688339
'0:06.656',-100.1388981
'0:06.660',-101.5278788
'0:06.664',-75.60023811
'0:06.668',-62.96712746
'0:06.672',-73.21912825
'0:06.676',-50.53244262
'0:06.680',-36.24578345
'0:06.684',-43.25682916
'0:06.688',-29.76387327
'0:06.691',-24.93551161
'0:06.695',-18.98273695
'0:06.699',-19.24730472
'0:06.703',5.82049077
'0:06.707',32.47569284
'0:06.711',67.53092136
'0:06.715',75.60023811
'0:06.719',63.76083074
'0:06.723',105.5625372
'0:06.727',281.5662412
'0:06.730',509.6897943
'0:06.734',662.8083868
'0:06.738',812.1568887
'0:06.742',807.0639593
'0:06.746',536.8741319
'0:06.750',264.8984721
'0:06.754',97.42707851
'0:06.758',34.92294464
'0:06.762',-36.51035121
'0:06.766',-29.49930551
'0:06.770',9.85514915
'0:06.773',7.93703287
'0:06.777',-13.88980753
'0:06.781',-0.66141941
'0:06.785',17.65989814
'0:06.789',6.87876182
'0:06.793',-6.3496263
'0:06.797',-25.7292149
'0:06.801',-46.23321648
'0:06.805',-46.76235201
'0:06.809',-43.52139692
'0:06.813',-56.48521728
'0:06.816',-57.0143528
'0:06.820',-61.04901118
'0:06.824',-47.55605529
'0:06.828',-45.4395132
'0:06.832',-56.48521728
'0:06.836',-55.16237846
'0:06.840',-44.05053244
'0:06.844',-48.41590052
'0:06.848',-45.96864872
'0:06.852',-40.28044183
'0:06.855',-54.30253324
'0:06.859',-42.72769363
'0:06.863',-32.47569284
'0:06.867',-31.68198955
'0:06.871',-24.93551161
'0:06.875',-21.42998876
'0:06.879',-25.20007937
'0:06.883',-15.4772141
'0:06.887',-16.07249157
'0:06.891',-9.85514915
'0:06.895',-5.22521331
'0:06.898',7.40789735
'0:06.902',16.33705933
'0:06.906',15.4772141
'0:06.910',21.95912428
'0:06.914',42.46312587
'0:06.918',39.22217078
'0:06.922',49.20960381
'0:06.926',78.8411932
'0:06.930',83.73569681
'0:06.934',89.88689728
'0:06.938',89.62232952
'0:06.941',98.81605926
'0:06.945',94.78140089
'0:06.949',114.1609895
'0:06.953',120.1137641
'0:06.957',121.1720352
'0:06.961',131.6886037
'0:06.965',127.1248098
'0:06.969',129.5720616
'0:06.973',119.8491964
'0:06.977',121.7011707
'0:06.980',100.6680336
'0:06.984',110.9200344
'0:06.988',95.83967194
'0:06.992',86.64594219
'0:06.996',74.01283154
'0:07.000',69.44903763
'0:07.004',46.76235201
'0:07.008',47.02691977
'0:07.012',36.77491898
'0:07.016',25.20007937
'0:07.020',6.3496263
'0:07.023',-0.13228388
'0:07.027',-2.31496792
'0:07.031',2.05040016
'0:07.035',-8.4661684
'0:07.039',-8.73073616
'0:07.043',0.66141941
'0:07.047',-3.37323897
'0:07.051',0.92598717
'0:07.055',7.14332959
'0:07.059',7.40789735
'0:07.063',17.13076262
'0:07.066',12.83153648
'0:07.070',16.60162709
'0:07.074',22.75282757
'0:07.078',38.95760302
'0:07.082',33.00482836
'0:07.086',29.76387327
'0:07.090',33.00482836
'0:07.094',22.75282757
'0:07.098',38.95760302
'0:07.102',33.00482836
'0:07.105',14.15437529
'0:07.109',17.9244659
'0:07.113',22.22369204
'0:07.117',21.42998876
'0:07.121',17.13076262
'0:07.125',14.94807858
'0:07.129',17.39533038
'0:07.133',5.82049077
'0:07.137',6.08505854
'0:07.141',1.71969046
'0:07.145',-1.45512269
'0:07.148',0.39685164
'0:07.152',-10.64885244
'0:07.156',-9.32601363
'0:07.160',-13.62523976
'0:07.164',-17.65989814
'0:07.168',-16.07249157
'0:07.172',-11.70712349
'0:07.176',-10.11971691
'0:07.180',-28.44103446
'0:07.184',-0.66141941
'0:07.188',-2.05040016
'0:07.191',-12.83153648
'0:07.195',-23.87724056
'0:07.199',-41.40485482
'0:07.203',-31.94655731
'0:07.207',-20.37171771
'0:07.211',-0.66141941
'0:07.215',21.42998876
'0:07.219',38.42846749
'0:07.223',49.20960381
'0:07.227',61.04901118
'0:07.230',63.76083074
'0:07.234',54.567101
'0:07.238',40.80957735
'0:07.242',35.71664793
'0:07.246',13.62523976
'0:07.250',-0.66141941
'0:07.254',-25.46464713
'0:07.258',-23.08353727
'0:07.262',-14.15437529
'0:07.266',-20.63628547
'0:07.270',-33.26939612
'0:07.273',-40.54500959
'0:07.277',-38.42846749
'0:07.281',-45.70408096
'0:07.285',-52.4505589
'0:07.289',-50.0033071
'0:07.293',-57.54348833
'0:07.297',-69.7136054
'0:07.301',-44.64580991
'0:07.305',-53.50882995
'0:07.309',-51.32614591
'0:07.313',-26.25835042
'0:07.316',8.4661684
'0:07.320',33.26939612
'0:07.324',58.33719161
'0:07.328',30.88828626
'0:07.332',72.35928302
'0:07.336',227.131424
'0:07.340',462.4644487
'0:07.344',613.9956346
'0:07.348',745.2873867
'0:07.352',740.7235928
'0:07.355',497.784245
'0:07.359',278.9205635
'0:07.363',110.1263311
'0:07.367',33.53396389
'0:07.371',-50.53244262
'0:07.375',-33.86467359
'0:07.379',8.4661684
'0:07.383',19.84258218
'0:07.387',-1.45512269
'0:07.391',-0.13228388
'0:07.395',15.4772141
'0:07.398',-6.61419406
'0:07.402',-55.69151399
'0:07.406',-61.5781467
'0:07.410',-51.06157815
'0:07.414',-54.03796547
'0:07.418',-55.42694623
'0:07.422',-68.58919241
'0:07.426',-76.12937364
'0:07.430',-68.58919241
'0:07.434',-56.74978504
'0:07.438',-71.30101197
'0:07.441',-96.63337522
'0:07.445',-89.09319399
'0:07.449',-86.38137443
'0:07.453',-76.46008334
'0:07.457',-72.09471526
'0:07.461',-78.57662544
'0:07.465',-71.30101197
'0:07.469',-70.77187645
'0:07.473',-77.25378663
'0:07.477',-55.69151399
'0:07.480',-61.84271447
'0:07.484',-54.30253324
'0:07.488',-54.567101
'0:07.492',-45.70408096
'0:07.496',-40.01587407
'0:07.500',-44.38124215
'0:07.504',-36.77491898
'0:07.508',-23.08353727
'0:07.512',-15.74178186
'0:07.516',-8.4661684
'0:07.520',-10.38428467
'0:07.523',-2.84410345
'0:07.527',8.73073616
'0:07.531',14.41894305
'0:07.535',22.75282757
'0:07.539',38.42846749
'0:07.543',30.35915074
'0:07.547',25.99378266
'0:07.551',30.88828626
'0:07.555',37.6347642
'0:07.559',37.6347642
'0:07.563',46.76235201
'0:07.566',42.19855811
'0:07.570',46.23321648
'0:07.574',37.6347642
'0:07.578',38.69303525
'0:07.582',47.29148753
'0:07.586',41.40485482
'0:07.590',44.91037767
'0:07.594',37.37019644
'0:07.598',39.22217078
'0:07.602',16.86619485
'0:07.605',10.64885244
'0:07.609',11.97169125
'0:07.613',-12.23625901
'0:07.617',-24.14180832
'0:07.621',-29.49930551
'0:07.625',-52.97969442
'0:07.629',-68.32462464
'0:07.633',-76.7246511
'0:07.637',-73.21912825
'0:07.641',-78.31205768
'0:07.645',-69.7136054
'0:07.648',-69.44903763
'0:07.652',-77.25378663
'0:07.656',-72.09471526
'0:07.660',-76.7246511
'0:07.664',-84.52940009
'0:07.668',-85.05853562
'0:07.672',-78.04748991
'0:07.676',-73.21912825
'0:07.680',-76.12937364
'0:07.684',-67.26635359
'0:07.688',-68.85376017
'0:07.691',-78.31205768
'0:07.695',-72.09471526
'0:07.699',-59.4616046
'0:07.703',-67.26635359
'0:07.707',-68.32462464
'0:07.711',-77.25378663
'0:07.715',-71.56557973
'0:07.719',-75.07110259
'0:07.723',-82.34671605
'0:07.727',-84.00026457
'0:07.730',-78.04748991
'0:07.734',-88.03492294
'0:07.738',-89.62232952
'0:07.742',-96.63337522
'0:07.746',-99.60976255
'0:07.750',-110.3908989
'0:07.754',-119.5846286
'0:07.758',-135.7232621
'0:07.762',-127.3893776
'0:07.766',-101.7924466
'0:07.770',-67.26635359
'0:07.773',-58.33719161
'0:07.777',-68.85376017
'0:07.781',-104.1735565
'0:07.785',-158.14538
'0:07.789',-191.0179245
'0:07.793',-203.1218996
'0:07.797',-201.0053575
'0:07.801',-172.6966069
'0:07.805',-161.6509028
'0:07.809',-128.7122164
'0:07.813',-123.0901515
'0:07.816',-103.1152854
'0:07.820',-90.15146504
'0:07.824',-64.28996627
'0:07.828',-49.20960381
'0:07.832',-27.38276341
'0:07.836',-22.22369204
'0:07.840',-23.34810503
'0:07.844',-28.97016998
'0:07.848',-46.76235201
'0:07.852',-73.74826377
'0:07.855',-84.52940009
'0:07.859',-71.8301475
'0:07.863',-63.76083074
'0:07.867',-80.75930948
'0:07.871',-57.54348833
'0:07.875',-52.97969442
'0:07.879',-55.69151399
'0:07.883',-61.5781467
'0:07.887',-78.57662544
'0:07.891',-104.1735565
'0:07.895',-130.6303327
'0:07.898',-134.1358556
'0:07.902',-127.1248098
'0:07.906',-129.8366294
'0:07.910',-137.6413784
'0:07.914',-145.1815596
'0:07.918',-101.2633111
'0:07.922',-66.20808255
'0:07.926',-37.89933197
'0:07.930',-57.0143528
'0:07.934',-44.05053244
'0:07.938',59.4616046
'0:07.941',241.9472187
'0:07.945',407.2359283
'0:07.949',555.2615914
'0:07.953',646.3390436
'0:07.957',480.5211985
'0:07.961',264.0386269
'0:07.965',102.8507176
'0:07.969',44.64580991
'0:07.973',16.60162709
'0:07.977',-4.16694226
'0:07.980',-17.39533038
'0:07.984',-27.11819565
'0:07.988',-36.77491898
'0:07.992',-64.81910179
'0:07.996',-68.58919241
'0:08.000',-50.26787486
'0:08.004',-76.12937364
'0:08.008',-130.1011972
'0:08.012',-156.2272637
'0:08.016',-148.6870825
'0:08.020',-150.5390568
'0:08.023',-142.7343078
'0:08.027',-131.1594682
'0:08.031',-125.2066936
'0:08.035',-85.8522389
'0:08.039',-71.03644421
'0:08.043',-92.59871685
'0:08.047',-94.25226536
'0:08.051',-90.74674251
'0:08.055',-102.3215821
'0:08.059',-86.97665189
'0:08.063',-107.6790793
'0:08.066',-155.4335604
'0:08.070',-166.7438323
'0:08.074',-165.950129
'0:08.078',-154.6398571
'0:08.082',-127.3893776
'0:08.086',-94.51683312
'0:08.090',-72.62385078
'0:08.094',-68.32462464
'0:08.098',-85.32310338
'0:08.102',-90.15146504
'0:08.105',-77.25378663
'0:08.109',-44.05053244
'0:08.113',-8.73073616
'0:08.117',24.40637608
'0:08.121',7.93703287
'0:08.125',-22.75282757
'0:08.129',-37.6347642
'0:08.133',-39.48673854
'0:08.137',-26.85362789
'0:08.141',-27.38276341
'0:08.145',-8.4661684
'0:08.148',-6.08505854
'0:08.152',-6.61419406
'0:08.156',6.3496263
'0:08.160',20.37171771
'0:08.164',22.22369204
'0:08.168',41.66942258
'0:08.172',41.93399034
'0:08.176',24.14180832
'0:08.180',38.16389973
'0:08.184',37.89933197
'0:08.188',40.01587407
'0:08.191',41.66942258
'0:08.195',25.46464713
'0:08.199',38.95760302
'0:08.203',67.79548912
'0:08.207',84.00026457
'0:08.211',72.62385078
'0:08.215',45.4395132
'0:08.219',-18.18903367
'0:08.223',-69.97817316
'0:08.227',-106.0916727
'0:08.230',-107.1499438
'0:08.234',-105.2979694
'0:08.238',-87.50578742
'0:08.242',-72.62385078
'0:08.246',-74.01283154
'0:08.250',-57.80805609
'0:08.254',-71.8301475
'0:08.258',-54.30253324
'0:08.262',-55.95608175
'0:08.266',-57.80805609
'0:08.270',-57.27892056
'0:08.273',-39.7513063
'0:08.277',-39.22217078
'0:08.281',-39.48673854
'0:08.285',-55.69151399
'0:08.289',-55.16237846
'0:08.293',-40.01587407
'0:08.297',4.96064555
'0:08.301',20.37171771
'0:08.305',24.14180832
'0:08.309',-17.9244659
'0:08.313',-64.02539851
'0:08.316',-69.97817316
'0:08.320',-77.51835439
'0:08.324',-61.5781467
'0:08.328',-54.567101
'0:08.332',-64.55453403
'0:08.336',-82.61128382
'0:08.340',-74.54196706
'0:08.344',-78.31205768
'0:08.348',-41.93399034
'0:08.352',-51.06157815
'0:08.355',-49.20960381
'0:08.359',-23.87724056
'0:08.363',-14.94807858
'0:08.367',-27.11819565
'0:08.371',-17.39533038
'0:08.375',-15.4772141
'0:08.379',7.93703287
'0:08.383',31.15285402
'0:08.387',50.26787486
'0:08.391',30.6237185
'0:08.395',-40.54500959
'0:08.398',-93.6569879
'0:08.402',-139.228785
'0:08.406',-114.1609895
'0:08.410',-92.06958132
'0:08.414',-64.81910179
'0:08.418',-47.02691977
'0:08.422',-40.01587407
'0:08.426',-16.07249157
'0:08.430',-12.23625901
'0:08.434',-0.92598717
'0:08.438',2.84410345
'0:08.441',10.38428467
'0:08.445',16.86619485
'0:08.449',34.39380911
'0:08.453',44.91037767
'0:08.457',35.45208016
'0:08.461',-0.92598717
'0:08.465',-41.14028706
'0:08.469',-90.15146504
'0:08.473',-130.6303327
'0:08.477',-141.9406045
'0:08.480',-117.1373768
'0:08.484',-110.9200344
'0:08.488',-140.353198
'0:08.492',-113.1027184
'0:08.496',-94.25226536
'0:08.500',-101.7924466
'0:08.504',-108.8034923
'0:08.508',-90.48217475
'0:08.512',-67.26635359
'0:08.516',-79.10576096
'0:08.520',-36.24578345
'0:08.523',17.9244659
'0:08.527',64.28996627
'0:08.531',59.4616046
'0:08.535',70.24274092
'0:08.539',96.89794299
'0:08.543',252.9929228
'0:08.547',446.3258152
'0:08.551',615.9137509
'0:08.555',766.8496594
'0:08.559',701.6337059
'0:08.563',463.3242939
'0:08.566',262.1866526
'0:08.570',136.5169654
'0:08.574',4.43151002
'0:08.578',-51.92142337
'0:08.582',-33.00482836
'0:08.586',-10.11971691
'0:08.590',-2.57953568
'0:08.594',-13.88980753
'0:08.598',-2.31496792
'0:08.602',-15.21264634
'0:08.605',-39.22217078
'0:08.609',-32.47569284
'0:08.613',-16.33705933
'0:08.617',23.87724056
'0:08.621',14.15437529
'0:08.625',-80.49474172
'0:08.629',-178.3186719
'0:08.633',-215.2920167
'0:08.637',-205.3045836
'0:08.641',-174.813149
'0:08.645',-154.0445797
'0:08.648',-132.482307
'0:08.652',-132.482307
'0:08.656',-136.8476751
'0:08.660',-123.8838548
'0:08.664',-106.6208083
'0:08.668',-102.0570144
'0:08.672',-99.34519479
'0:08.676',-101.7924466
'0:08.680',-90.15146504
'0:08.684',-75.33567035
'0:08.688',-71.30101197
'0:08.691',-66.73721807
'0:08.695',-67.53092136
'0:08.699',-72.09471526
'0:08.703',-74.2773993
'0:08.707',-55.95608175
'0:08.711',-21.69455652
'0:08.715',9.32601363
'0:08.719',7.67246511
'0:08.723',-6.3496263
'0:08.727',11.97169125
'0:08.730',26.25835042
'0:08.734',54.567101
'0:08.738',54.30253324
'0:08.742',12.56696871
'0:08.746',-44.91037767
'0:08.750',-48.15133276
'0:08.754',-43.78596468
'0:08.758',-32.7402606
'0:08.762',-9.06144586
'0:08.766',0.92598717
'0:08.770',16.86619485
'0:08.773',-8.20160063
'0:08.777',-13.09610424
'0:08.781',6.87876182
'0:08.785',13.88980753
'0:08.789',30.88828626
'0:08.793',24.93551161
'0:08.797',20.90085323
'0:08.801',38.95760302
'0:08.805',13.360672
'0:08.809',0.66141941
'0:08.813',-4.43151002
'0:08.816',-26.58906012
'0:08.820',-41.66942258
'0:08.824',-82.08214829
'0:08.828',-109.3326278
'0:08.832',-130.6303327
'0:08.836',-139.4933527
'0:08.840',-125.4712613
'0:08.844',-72.09471526
'0:08.848',-50.79701038
'0:08.852',-50.26787486
'0:08.855',-69.44903763
'0:08.859',-102.5861499
'0:08.863',-116.6082413
'0:08.867',-115.2854025
'0:08.871',-85.8522389
'0:08.875',-73.48369601
'0:08.879',-71.8301475
'0:08.883',-82.08214829
'0:08.887',-110.6554666
'0:08.891',-98.81605926
'0:08.895',-59.4616046
'0:08.898',-14.68351081
'0:08.902',9.06144586
'0:08.906',-27.64733117
'0:08.910',-88.03492294
'0:08.914',-144.3878563
'0:08.918',-155.4335604
'0:08.922',-110.6554666
'0:08.926',-71.56557973
'0:08.930',-61.84271447
'0:08.934',-45.4395132
'0:08.938',-53.77339771
'0:08.941',-59.19703684
'0:08.945',-39.22217078
'0:08.949',-47.29148753
'0:08.953',-60.25530789
'0:08.957',-50.79701038
'0:08.961',-42.99226139
'0:08.965',-41.66942258
'0:08.969',-47.886765
'0:08.973',-42.72769363
'0:08.977',-49.20960381
'0:08.980',-42.46312587
'0:08.984',-42.46312587
'0:08.988',-33.26939612
'0:08.992',-11.70712349
'0:08.996',-16.60162709
'0:09.000',-8.73073616
'0:09.004',-24.93551161
'0:09.008',-16.86619485
'0:09.012',-11.97169125
'0:09.016',-16.60162709
'0:09.020',-23.87724056
'0:09.023',-24.40637608
'0:09.027',-17.9244659
'0:09.031',-28.70560222
'0:09.035',-46.49778424
'0:09.039',-37.6347642
'0:09.043',-41.40485482
'0:09.047',-36.51035121
'0:09.051',-45.17494543
'0:09.055',-75.86480587
'0:09.059',-66.73721807
'0:09.063',-73.74826377
'0:09.066',-71.30101197
'0:09.070',-78.31205768
'0:09.074',-74.80653482
'0:09.078',-81.288445
'0:09.082',-73.21912825
'0:09.086',-72.35928302
'0:09.090',-63.76083074
'0:09.094',-58.93246908
'0:09.098',-48.15133276
'0:09.102',-25.20007937
'0:09.105',-25.46464713
'0:09.109',-62.17342417
'0:09.113',-69.97817316
'0:09.117',-92.33414908
'0:09.121',-58.33719161
'0:09.125',-62.17342417
'0:09.129',-80.75930948
'0:09.133',-68.06005688
'0:09.137',126.8602421
'0:09.141',368.4106092
'0:09.145',584.628613
'0:09.148',803.2277267
'0:09.152',913.2217739
'0:09.156',745.022819
'0:09.160',509.9543621
'0:09.164',255.9693101
'0:09.168',124.4129903
'0:09.172',47.55605529
'0:09.176',16.60162709
'0:09.180',10.9134202
'0:09.184',-10.64885244
'0:09.188',-24.14180832
'0:09.191',-33.53396389
'0:09.195',-16.86619485
'0:09.199',-7.67246511
'0:09.203',-27.38276341
'0:09.207',-53.77339771
'0:09.211',-78.04748991
'0:09.215',-79.37032873
'0:09.219',-88.82862623
'0:09.223',-62.70255969
'0:09.227',-42.19855811
'0:09.230',-32.7402606
'0:09.234',-45.17494543
'0:09.238',-82.34671605
'0:09.242',-120.3783319
'0:09.246',-105.2979694
'0:09.250',-101.5278788
'0:09.254',-66.73721807
'0:09.258',-37.6347642
'0:09.262',-9.59058139
'0:09.266',-39.22217078
'0:09.270',-78.8411932
'0:09.273',-107.4145115
'0:09.277',-99.60976255
'0:09.281',-93.6569879
'0:09.285',-76.7246511
'0:09.289',-50.53244262
'0:09.293',-28.44103446
'0:09.297',-18.18903367
'0:09.301',-10.9134202
'0:09.305',-10.9134202
'0:09.309',13.360672
'0:09.313',3.37323897
'0:09.316',0.13228388
'0:09.320',7.40789735
'0:09.324',20.10714994
'0:09.328',57.27892056
'0:09.332',95.31053641
'0:09.336',110.9200344
'0:09.340',91.01131027
'0:09.344',74.01283154
'0:09.348',45.4395132
'0:09.352',47.82062306
'0:09.355',60.25530789
'0:09.359',86.38137443
'0:09.363',86.38137443
'0:09.367',93.12785237
'0:09.371',81.81758053
'0:09.375',93.92155566
'0:09.379',101.7924466
'0:09.383',116.0791058
'0:09.387',107.4145115
'0:09.391',83.73569681
'0:09.395',81.55301277
'0:09.398',55.42694623
'0:09.402',66.47265031
'0:09.406',56.22064951
'0:09.410',49.73873933
'0:09.414',34.39380911
'0:09.418',25.46464713
'0:09.422',2.84410345
'0:09.426',-8.73073616
'0:09.430',-0.13228388
'0:09.434',-14.94807858
'0:09.438',-21.95912428
'0:09.441',-28.1764667
'0:09.445',-25.7292149
'0:09.449',-18.45360143
'0:09.453',-16.07249157
'0:09.457',9.85514915
'0:09.461',18.71816919
'0:09.465',5.82049077
'0:09.469',-15.74178186
'0:09.473',-58.93246908
'0:09.477',-81.81758053
'0:09.480',-77.25378663
'0:09.484',-48.41590052
'0:09.488',-23.34810503
'0:09.492',-13.62523976
'0:09.496',0.66141941
'0:09.500',-24.93551161
'0:09.504',-44.05053244
'0:09.508',-22.48825981
'0:09.512',-32.21112507
'0:09.516',-16.86619485
'0:09.520',-23.87724056
'0:09.523',-27.11819565
'0:09.527',-22.75282757
'0:09.531',-16.86619485
'0:09.535',-1.45512269
'0:09.539',-7.67246511
'0:09.543',-10.11971691
'0:09.547',-21.42998876
'0:09.551',-16.33705933
'0:09.555',-17.65989814
'0:09.559',-23.6126728
'0:09.563',-25.7292149
'0:09.566',-37.37019644
'0:09.570',-16.86619485
'0:09.574',-18.71816919
'0:09.578',-7.93703287
'0:09.582',21.16542099
'0:09.586',24.67094385
'0:09.590',30.88828626
'0:09.594',16.33705933
'0:09.598',-19.57801442
'0:09.602',-69.97817316
'0:09.605',-23.08353727
'0:09.609',-8.20160063
'0:09.613',-5.82049077
'0:09.617',-17.9244659
'0:09.621',-64.02539851
'0:09.625',-97.42707851
'0:09.629',-117.6665123
'0:09.633',-120.1137641
'0:09.637',-103.1152854
'0:09.641',-99.87433031
'0:09.645',-82.61128382
'0:09.648',-100.1388981
'0:09.652',-101.2633111
'0:09.656',-101.2633111
'0:09.660',-100.1388981
'0:09.664',-99.08062703
'0:09.668',-99.60976255
'0:09.672',-85.05853562
'0:09.676',-70.24274092
'0:09.680',-53.50882995
'0:09.684',-66.47265031
'0:09.688',-95.31053641
'0:09.691',-96.63337522
'0:09.695',-86.11680667
'0:09.699',-26.85362789
'0:09.703',-8.73073616
'0:09.707',14.94807858
'0:09.711',80.49474172
'0:09.715',198.2935379
'0:09.719',331.1726966
'0:09.723',492.6913156
'0:09.727',555.2615914
'0:09.730',430.6501753
'0:09.734',215.8211522
'0:09.738',105.2979694
'0:09.742',31.41742179
'0:09.746',24.14180832
'0:09.750',-5.22521331
'0:09.754',-17.39533038
'0:09.758',-23.34810503
'0:09.762',-16.33705933
'0:09.766',-26.85362789
'0:09.770',-24.67094385
'0:09.773',-18.71816919
'0:09.777',-37.03948674
'0:09.781',-90.48217475
'0:09.785',-117.9310801
'0:09.789',-91.5404458
'0:09.793',-59.4616046
'0:09.797',-42.46312587
'0:09.801',-55.95608175
'0:09.805',-95.57510417
'0:09.809',-103.3798532
'0:09.813',-107.6790793
'0:09.816',-108.2743568
'0:09.820',-104.4381242
'0:09.824',-96.36880746
'0:09.828',-89.35776176
'0:09.832',-92.33414908
'0:09.836',-74.54196706
'0:09.840',-70.77187645
'0:09.844',-64.02539851
'0:09.848',-42.72769363
'0:09.852',0.92598717
'0:09.855',4.16694226
'0:09.859',-18.45360143
'0:09.863',-56.74978504
'0:09.867',-101.2633111
'0:09.871',-94.51683312
'0:09.875',-18.18903367
'0:09.879',34.92294464
'0:09.883',96.1042397
'0:09.887',75.86480587
'0:09.891',27.38276341
'0:09.895',-67.53092136
'0:09.898',-129.8366294
'0:09.902',-143.8587208
'0:09.906',-95.57510417
'0:09.910',-51.32614591
'0:09.914',-26.58906012
'0:09.918',-14.94807858
'0:09.922',-9.85514915
'0:09.926',3.10867121
'0:09.930',11.97169125
'0:09.934',21.16542099
'0:09.938',18.71816919
'0:09.941',24.40637608
'0:09.945',50.53244262
'0:09.949',41.40485482
'0:09.953',52.71512666
'0:09.957',37.6347642
'0:09.961',42.99226139
'0:09.965',50.0033071
'0:09.969',54.567101
'0:09.973',97.16251075
'0:09.977',130.6303327
'0:09.980',122.8255837
'0:09.984',71.56557973
'0:09.988',-16.07249157
'0:09.992',-101.7924466
'0:09.996',-153.2508764
'0:10.000',-153.2508764
'0:10.004',-146.7689662
'0:10.008',-122.2303062
'0:10.012',-91.5404458
'0:10.016',-89.09319399
'0:10.020',-84.79396786
'0:10.023',-79.37032873
'0:10.027',-58.93246908
'0:10.031',-45.70408096
'0:10.035',-40.54500959
'0:10.039',-18.45360143
'0:10.043',-29.49930551
'0:10.047',-26.25835042
'0:10.051',-13.88980753
'0:10.055',-8.73073616
'0:10.059',29.23473775
'0:10.063',48.94503605
'0:10.066',51.92142337
'0:10.070',35.71664793
'0:10.074',-3.10867121
'0:10.078',-12.83153648
'0:10.082',-29.76387327
'0:10.086',-16.33705933
'0:10.090',-2.31496792
'0:10.094',-5.82049077
'0:10.098',4.96064555
'0:10.102',4.69607778
'0:10.105',-0.39685164
'0:10.109',12.23625901
'0:10.113',24.93551161
'0:10.117',-9.32601363
'0:10.121',-37.6347642
'0:10.125',-45.17494543
'0:10.129',-23.6126728
'0:10.133',-13.360672
'0:10.137',-26.58906012
'0:10.141',-18.45360143
'0:10.145',-27.11819565
'0:10.148',-55.42694623
'0:10.152',-44.91037767
'0:10.156',-42.72769363
'0:10.160',-35.71664793
'0:10.164',-43.25682916
'0:10.168',-23.87724056
'0:10.172',-14.68351081
'0:10.176',19.51187248
'0:10.180',28.1764667
'0:10.184',68.58919241
'0:10.188',71.30101197
'0:10.191',50.79701038
'0:10.195',-5.55592301
'0:10.199',-43.52139692
'0:10.203',-88.03492294
'0:10.207',-60.78444342
'0:10.211',-53.77339771
'0:10.215',-28.1764667
'0:10.219',-12.83153648
'0:10.223',-52.18599114
'0:10.227',-86.64594219
'0:10.230',-82.34671605
'0:10.234',-63.23169522
'0:10.238',-65.08366955
'0:10.242',-37.6347642
'0:10.246',-7.93703287
'0:10.250',-3.9023745
'0:10.254',2.05040016
'0:10.258',-59.4616046
'0:10.262',-109.3326278
'0:10.266',-130.8949005
'0:10.270',-134.6649911
'0:10.273',-86.11680667
'0:10.277',-35.98121569
'0:10.281',-17.9244659
'0:10.285',-31.41742179
'0:10.289',-16.07249157
'0:10.293',119.8491964
'0:10.297',377.2736292
'0:10.301',612.1436603
'0:10.305',817.5143859
'0:10.309',963.4235069
'0:10.313',830.4782062
'0:10.316',610.225544
'0:10.320',379.720881
'0:10.324',223.890469
'0:10.328',104.4381242
'0:10.332',58.07262385
'0:10.336',76.7246511
'0:10.340',74.54196706
'0:10.344',40.54500959
'0:10.348',10.38428467
'0:10.352',11.97169125
'0:10.355',-5.22521331
'0:10.359',-38.69303525
'0:10.363',-38.69303525
'0:10.367',-54.30253324
'0:10.371',-54.03796547
'0:10.375',-69.97817316
'0:10.379',-85.8522389
'0:10.383',-70.77187645
'0:10.387',-72.09471526
'0:10.391',-71.30101197
'0:10.395',-69.7136054
'0:10.398',-53.50882995
'0:10.402',-55.16237846
'0:10.406',-55.42694623
'0:10.410',-54.03796547
'0:10.414',-37.37019644
'0:10.418',-22.75282757
'0:10.422',-23.6126728
'0:10.426',-22.22369204
'0:10.430',-35.98121569
'0:10.434',-35.71664793
'0:10.438',-38.16389973
'0:10.441',-24.67094385
'0:10.445',-23.87724056
'0:10.449',-4.96064555
'0:10.453',-19.24730472
'0:10.457',-4.69607778
'0:10.461',23.01739533
'0:10.465',21.95912428
'0:10.469',42.19855811
'0:10.473',45.70408096
'0:10.477',44.64580991
'0:10.480',40.80957735
'0:10.484',54.567101
'0:10.488',56.74978504
'0:10.492',76.12937364
'0:10.496',91.80501356
'0:10.500',104.1735565
'0:10.504',102.8507176
'0:10.508',105.827105
'0:10.512',108.8034923
'0:10.516',107.9436471
'0:10.520',119.8491964
'0:10.523',133.3421523
'0:10.527',135.7232621
'0:10.531',140.353198
'0:10.535',140.8823335
'0:10.539',152.1926053
'0:10.543',148.4225147
'0:10.547',135.4586944
'0:10.551',140.6177657
'0:10.555',109.5971956
'0:10.559',89.88689728
'0:10.563',69.7136054
'0:10.566',54.30253324
'0:10.570',57.80805609
'0:10.574',58.66790132
'0:10.578',55.95608175
'0:10.582',53.50882995
'0:10.586',54.03796547
'0:10.590',41.40485482
'0:10.594',42.99226139
'0:10.598',55.42694623
'0:10.602',98.02235598
'0:10.605',113.631854
'0:10.609',104.7688339
'0:10.613',48.68046828
'0:10.617',-14.94807858
'0:10.621',-55.69151399
'0:10.625',-64.02539851
'0:10.629',-62.96712746
'0:10.633',-54.30253324
'0:10.637',-34.39380911
'0:10.641',-8.73073616
'0:10.645',45.70408096
'0:10.648',31.15285402
'0:10.652',-2.57953568
'0:10.656',20.10714994
'0:10.660',40.01587407
'0:10.664',26.52291818
'0:10.668',-0.39685164
'0:10.672',-15.4772141
'0:10.676',-41.40485482
'0:10.680',-38.69303525
'0:10.684',-8.20160063
'0:10.688',24.40637608
'0:10.691',58.07262385
'0:10.695',54.83166876
'0:10.699',-14.15437529
'0:10.703',-106.885376
'0:10.707',-143.8587208
'0:10.711',-138.4350817
'0:10.715',-116.3436735
'0:10.719',-55.42694623
'0:10.723',-47.02691977
'0:10.727',-46.49778424
'0:10.730',-38.16389973
'0:10.734',-48.68046828
'0:10.738',-37.37019644
'0:10.742',0.39685164
'0:10.746',13.88980753
'0:10.750',8.4661684
'0:10.754',2.84410345
'0:10.758',-31.68198955
'0:10.762',-89.62232952
'0:10.766',-110.3908989
'0:10.770',-106.3562405
'0:10.773',-84.26483233
'0:10.777',-68.85376017
'0:10.781',-89.35776176
'0:10.785',-121.7011707
'0:10.789',-118.4602156
'0:10.793',-101.5278788
'0:10.797',-73.21912825
'0:10.801',-60.25530789
'0:10.805',-57.27892056
'0:10.809',-82.87585158
'0:10.813',-112.0444474
'0:10.816',-117.1373768
'0:10.820',-78.31205768
'0:10.824',-48.41590052
'0:10.828',-24.14180832
'0:10.832',-30.6237185
'0:10.836',-62.43799193
'0:10.840',-102.3215821
'0:10.844',-124.1484225
'0:10.848',-106.6208083
'0:10.852',-7.93703287
'0:10.855',239.2353992
'0:10.859',450.6250413
'0:10.863',630.2004101
'0:10.867',760.3677492
'0:10.871',698.3927508
'0:10.875',496.9905417
'0:10.879',295.5883326
'0:10.883',167.0084
'0:10.887',94.51683312
'0:10.891',22.48825981
'0:10.895',32.7402606
'0:10.898',74.80653482
'0:10.902',45.96864872
'0:10.906',-1.19055493
'0:10.910',-35.45208016
'0:10.914',-29.49930551
'0:10.918',-55.42694623
'0:10.922',-82.87585158
'0:10.926',-66.20808255
'0:10.930',-55.95608175
'0:10.934',-79.96560619
'0:10.938',-130.3657649
'0:10.941',-155.962696
'0:10.945',-130.6303327
'0:10.949',-111.4491699
'0:10.953',-86.38137443
'0:10.957',-113.3672862
'0:10.961',-164.0320127
'0:10.965',-186.7186983
'0:10.969',-144.3878563
'0:10.973',-111.4491699
'0:10.977',-72.62385078
'0:10.980',-67.79548912
'0:10.984',-115.5499702
'0:10.988',-150.5390568
'0:10.992',-154.3752894
'0:10.996',-155.4335604
'0:11.000',-136.8476751
'0:11.004',-88.03492294
'0:11.008',-27.11819565
'0:11.012',-12.83153648
'0:11.016',-8.20160063
'0:11.020',-49.20960381
'0:11.023',-95.04596865
'0:11.027',-132.7468748
'0:11.031',-124.9421258
'0:11.035',-110.6554666
'0:11.039',-103.6444209
'0:11.043',-96.36880746
'0:11.047',-67.53092136
'0:11.051',-29.76387327
'0:11.055',-32.21112507
'0:11.059',-37.6347642
'0:11.063',-28.70560222
'0:11.066',-33.00482836
'0:11.070',-28.70560222
'0:11.074',-16.86619485
'0:11.078',-23.6126728
'0:11.082',-12.83153648
'0:11.086',15.4772141
'0:11.090',3.37323897
'0:11.094',15.4772141
'0:11.098',39.7513063
'0:11.102',49.20960381
'0:11.105',48.41590052
'0:11.109',39.22217078
'0:11.113',33.86467359
'0:11.117',38.69303525
'0:11.121',46.76235201
'0:11.125',47.29148753
'0:11.129',24.93551161
'0:11.133',20.10714994
'0:11.137',53.24426219
'0:11.141',58.07262385
'0:11.145',46.23321648
'0:11.148',28.97016998
'0:11.152',-7.40789735
'0:11.156',-40.28044183
'0:11.160',-69.18446987
'0:11.164',-82.87585158
'0:11.168',-85.58767114
'0:11.172',-89.88689728
'0:11.176',-59.19703684
'0:11.180',-56.22064951
'0:11.184',-66.73721807
'0:11.188',-81.55301277
'0:11.191',-101.7924466
'0:11.195',-90.48217475
'0:11.199',-75.07110259
'0:11.203',-85.58767114
'0:11.207',-80.75930948
'0:11.211',-83.14041934
'0:11.215',-89.09319399
'0:11.219',-90.74674251
'0:11.223',-55.16237846
'0:11.227',-51.65685561
'0:11.230',-51.06157815
'0:11.234',-69.44903763
'0:11.238',-71.30101197
'0:11.242',-55.69151399
'0:11.246',-69.44903763
'0:11.250',-82.34671605
'0:11.254',-82.87585158
'0:11.258',-71.30101197
'0:11.262',-58.07262385
'0:11.266',-39.7513063
'0:11.270',-50.26787486
'0:11.273',-48.15133276
'0:11.277',-67.79548912
'0:11.281',-72.09471526
'0:11.285',-71.8301475
'0:11.289',-37.03948674
'0:11.293',10.9134202
'0:11.297',24.93551161
'0:11.301',10.38428467
'0:11.305',-48.15133276
'0:11.309',-107.6790793
'0:11.313',-143.5280111
'0:11.316',-152.4571731
'0:11.320',-140.6177657
'0:11.324',-88.56405847
'0:11.328',-66.20808255
'0:11.332',-32.47569284
'0:11.336',-52.4505589
'0:11.340',-100.9326014
'0:11.344',-144.6524241
'0:11.348',-142.9988756
'0:11.352',-117.1373768
'0:11.355',-91.5404458
'0:11.359',-57.80805609
'0:11.363',-64.81910179
'0:11.367',-89.88689728
'0:11.371',-140.6177657
'0:11.375',-134.1358556
'0:11.379',-109.0680601
'0:11.383',-57.80805609
'0:11.387',-16.86619485
'0:11.391',3.10867121
'0:11.395',14.41894305
'0:11.398',85.32310338
'0:11.402',254.1173358
'0:11.406',429.856472
'0:11.410',582.1813612
'0:11.414',702.1628415
'0:11.418',627.7531583
'0:11.422',396.7193598
'0:11.426',240.0952444
'0:11.430',130.6303327
'0:11.434',81.55301277
'0:11.438',1.19055493
'0:11.441',-15.21264634
'0:11.445',-38.95760302
'0:11.449',-49.47417157
'0:11.453',-64.81910179
'0:11.457',-65.34823732
'0:11.461',-35.98121569
'0:11.465',-26.85362789
'0:11.469',-47.886765
'0:11.473',-75.07110259
'0:11.477',-78.04748991
'0:11.480',-54.83166876
'0:11.484',-47.55605529
'0:11.488',-64.02539851
'0:11.492',-71.03644421
'0:11.496',-75.60023811
'0:11.500',-56.74978504
'0:11.504',-50.53244262
'0:11.508',-48.41590052
'0:11.512',-52.71512666
'0:11.516',-41.93399034
'0:11.520',-10.38428467
'0:11.523',10.11971691
'0:11.527',-0.66141941
'0:11.531',-31.41742179
'0:11.535',-67.00178583
'0:11.539',-71.56557973
'0:11.543',-57.27892056
'0:11.547',-38.42846749
'0:11.551',-34.65837688
'0:11.555',-18.45360143
'0:11.559',-21.95912428
'0:11.563',-23.6126728
'0:11.566',-6.08505854
'0:11.570',11.97169125
'0:11.574',27.91189894
'0:11.578',41.93399034
'0:11.582',41.66942258
'0:11.586',43.52139692
'0:11.590',60.51987565
'0:11.594',74.80653482
'0:11.598',88.56405847
'0:11.602',104.7688339
'0:11.605',107.4145115
'0:11.609',124.9421258
'0:11.613',107.9436471
'0:11.617',106.3562405
'0:11.621',105.5625372
'0:11.625',106.3562405
'0:11.629',122.8255837
'0:11.633',122.2303062
'0:11.637',137.3768106
'0:11.641',137.1122429
'0:11.645',138.4350817
'0:11.648',123.619287
'0:11.652',123.3547192
'0:11.656',151.9280376
'0:11.660',165.1564257
'0:11.664',152.1926053
'0:11.668',95.57510417
'0:11.672',35.1875124
'0:11.676',12.83153648
'0:11.680',2.31496792
'0:11.684',16.33705933
'0:11.688',9.32601363
'0:11.691',17.39533038
'0:11.695',13.88980753
'0:11.699',19.51187248
'0:11.703',0.39685164
'0:11.707',9.06144586
'0:11.711',16.33705933
'0:11.715',13.360672
'0:11.719',4.69607778
'0:11.723',17.13076262
'0:11.727',22.75282757
'0:11.730',30.35915074
'0:11.734',76.46008334
'0:11.738',83.14041934
'0:11.742',81.02387724
'0:11.746',73.48369601
'0:11.750',49.73873933
'0:11.754',46.76235201
'0:11.758',35.98121569
'0:11.762',-45.70408096
'0:11.766',-98.28692374
'0:11.770',-92.33414908
'0:11.773',-86.38137443
'0:11.777',-67.53092136
'0:11.781',-50.53244262
'0:11.785',-5.55592301
'0:11.789',2.57953568
'0:11.793',-2.84410345
'0:11.797',1.71969046
'0:11.801',-16.33705933
'0:11.805',-21.69455652
'0:11.809',1.71969046
'0:11.813',11.70712349
'0:11.816',47.55605529
'0:11.820',76.98921886
'0:11.824',88.29949071
'0:11.828',52.97969442
'0:11.832',20.10714994
'0:11.836',-9.85514915
'0:11.840',-3.63780673
'0:11.844',-13.62523976
'0:11.848',-15.21264634
'0:11.852',-12.23625901
'0:11.855',-54.83166876
'0:11.859',-79.96560619
'0:11.863',-92.59871685
'0:11.867',-82.61128382
'0:11.871',-64.28996627
'0:11.875',-72.09471526
'0:11.879',-62.96712746
'0:11.883',-75.60023811
'0:11.887',-66.47265031
'0:11.891',-79.37032873
'0:11.895',-70.50730868
'0:11.898',-78.57662544
'0:11.902',-60.78444342
'0:11.906',-37.03948674
'0:11.910',-17.39533038
'0:11.914',-21.42998876
'0:11.918',-57.80805609
'0:11.922',-87.24121966
'0:11.926',-36.77491898
'0:11.930',38.16389973
'0:11.934',96.36880746
'0:11.938',84.79396786
'0:11.941',80.49474172
'0:11.945',144.6524241
'0:11.949',333.8845162
'0:11.953',492.6913156
'0:11.957',630.4649778
'0:11.961',705.4037966
'0:11.965',579.4695416
'0:11.969',382.9618361
'0:11.973',218.5329718
'0:11.977',154.6398571
'0:11.980',79.96560619
'0:11.984',49.47417157
'0:11.988',52.71512666
'0:11.992',51.92142337
'0:11.996',37.89933197
'0:12.000',14.15437529
'0:12.004',17.13076262
'0:12.008',4.69607778
'0:12.012',-57.0143528
'0:12.016',-85.58767114
'0:12.020',-67.26635359
'0:12.023',-39.48673854
'0:12.027',-33.26939612
'0:12.031',-85.58767114
'0:12.035',-124.677558
'0:12.039',-142.7343078
'0:12.043',-154.0445797
'0:12.047',-149.7453535
'0:12.051',-136.2523977
'0:12.055',-141.9406045
'0:12.059',-126.5956743
'0:12.063',-106.6208083
'0:12.066',-71.56557973
'0:12.070',-72.62385078
'0:12.074',-74.54196706
'0:12.078',-90.15146504
'0:12.082',-119.0554931
'0:12.086',-132.7468748
'0:12.090',-105.0334017
'0:12.094',-110.1263311
'0:12.098',-77.25378663
'0:12.102',-56.48521728
'0:12.105',-37.37019644
'0:12.109',-69.97817316
'0:12.113',-87.77035518
'0:12.117',-89.62232952
'0:12.121',-74.54196706
'0:12.125',-57.54348833
'0:12.129',-40.28044183
'0:12.133',-8.4661684
'0:12.137',21.42998876
'0:12.141',37.03948674
'0:12.145',40.01587407
'0:12.148',58.33719161
'0:12.152',87.77035518
'0:12.156',146.2398307
'0:12.160',192.3407633
'0:12.164',183.2131755
'0:12.168',129.5720616
'0:12.172',52.18599114
'0:12.176',10.9134202
'0:12.180',29.76387327
'0:12.184',105.5625372
'0:12.188',131.424036
'0:12.191',129.2413519
'0:12.195',83.73569681
'0:12.199',56.22064951
'0:12.203',59.99074013
'0:12.207',61.84271447
'0:12.211',74.80653482
'0:12.215',81.55301277
'0:12.219',73.74826377
'0:12.223',47.02691977
'0:12.227',31.68198955
'0:12.230',25.99378266
'0:12.234',16.07249157
'0:12.238',9.59058139
'0:12.242',-0.66141941
'0:12.246',-16.86619485
'0:12.250',-22.75282757
'0:12.254',-1.45512269
'0:12.258',-7.93703287
'0:12.262',-16.33705933
'0:12.266',-31.15285402
'0:12.270',-22.75282757
'0:12.273',-18.98273695
'0:12.277',-24.14180832
'0:12.281',-15.74178186
'0:12.285',-15.74178186
'0:12.289',-7.93703287
'0:12.293',-3.10867121
'0:12.297',8.4661684
'0:12.301',16.60162709
'0:12.305',0.39685164
'0:12.309',54.83166876
'0:12.313',42.72769363
'0:12.316',10.64885244
'0:12.320',-40.01587407
'0:12.324',-73.48369601
'0:12.328',-74.01283154
'0:12.332',-58.93246908
'0:12.336',-58.93246908
'0:12.340',-72.95456049
'0:12.344',-86.64594219
'0:12.348',-72.35928302
'0:12.352',-76.12937364
'0:12.355',-60.78444342
'0:12.359',-42.19855811
'0:12.363',-8.4661684
'0:12.367',21.69455652
'0:12.371',20.37171771
'0:12.375',22.48825981
'0:12.379',40.28044183
'0:12.383',8.73073616
'0:12.387',8.20160063
'0:12.391',-9.59058139
'0:12.395',5.55592301
'0:12.398',5.82049077
'0:12.402',22.75282757
'0:12.406',23.34810503
'0:12.410',7.67246511
'0:12.414',-54.03796547
'0:12.418',-99.87433031
'0:12.422',-118.1956479
'0:12.426',-77.78292215
'0:12.430',-34.65837688
'0:12.434',-13.360672
'0:12.438',-34.65837688
'0:12.441',-92.86328461
'0:12.445',-131.424036
'0:12.449',-143.2634434
'0:12.453',-115.2854025
'0:12.457',-76.12937364
'0:12.461',-66.47265031
'0:12.465',-96.1042397
'0:12.469',-103.3798532
'0:12.473',-96.1042397
'0:12.477',-79.37032873
'0:12.480',-70.24274092
'0:12.484',-17.9244659
'0:12.488',161.6509028
'0:12.492',428.5336332
'0:12.496',649.5799987
'0:12.500',894.1067531
'0:12.504',1026.192208
'0:12.508',889.5429592
'0:12.512',617.7657253
'0:12.516',342.2184007
'0:12.520',205.0400159
'0:12.523',51.65685561
'0:12.527',-13.09610424
'0:12.531',-41.66942258
'0:12.535',-41.40485482
'0:12.539',-61.31357894
'0:12.543',-79.37032873
'0:12.547',-46.49778424
'0:12.551',-29.76387327
'0:12.555',-43.78596468
'0:12.559',-73.48369601
'0:12.563',-74.2773993
'0:12.566',-109.0680601
'0:12.570',-94.51683312
'0:12.574',-78.8411932
'0:12.578',-61.31357894
'0:12.582',-59.4616046
'0:12.586',-74.2773993
'0:12.590',-75.07110259
'0:12.594',-77.25378663
'0:12.598',-93.39242013
'0:12.602',-75.60023811
'0:12.605',-59.72617237
'0:12.609',-45.17494543
'0:12.613',-29.76387327
'0:12.617',-28.44103446
'0:12.621',-56.74978504
'0:12.625',-71.30101197
'0:12.629',-13.09610424
'0:12.633',11.70712349
'0:12.637',15.21264634
'0:12.641',-36.51035121
'0:12.645',-108.5389245
'0:12.648',-132.482307
'0:12.652',-117.6665123
'0:12.656',-91.01131027
'0:12.660',-46.49778424
'0:12.664',-16.60162709
'0:12.668',13.09610424
'0:12.672',61.04901118
'0:12.676',85.05853562
'0:12.680',81.55301277
'0:12.684',67.79548912
'0:12.688',51.65685561
'0:12.691',48.94503605
'0:12.695',67.00178583
'0:12.699',91.01131027
'0:12.703',125.7358291
'0:12.707',115.814538
'0:12.711',102.8507176
'0:12.715',149.7453535
'0:12.719',196.9706991
'0:12.723',244.9236061
'0:12.727',196.3754217
'0:12.730',69.44903763
'0:12.734',22.48825981
'0:12.738',6.3496263
'0:12.742',-22.48825981
'0:12.746',-21.16542099
'0:12.750',16.86619485
'0:12.754',3.9023745
'0:12.758',6.61419406
'0:12.762',-5.22521331
'0:12.766',-36.24578345
'0:12.770',-44.64580991
'0:12.773',-57.54348833
'0:12.777',-73.48369601
'0:12.781',-71.8301475
'0:12.785',-71.30101197
'0:12.789',-46.76235201
'0:12.793',-57.0143528
'0:12.797',-55.42694623
'0:12.801',-55.16237846
'0:12.805',-56.48521728
'0:12.809',-62.43799193
'0:12.813',-54.567101
'0:12.816',-23.6126728
'0:12.820',4.43151002
'0:12.824',4.16694226
'0:12.828',-11.70712349
'0:12.832',-47.02691977
'0:12.836',-96.1042397
'0:12.840',-136.2523977
'0:12.844',-126.8602421
'0:12.848',-129.8366294
'0:12.852',-160.7910576
'0:12.855',-141.6760368
'0:12.859',-121.436603
'0:12.863',-115.814538
'0:12.867',-84.26483233
'0:12.871',-79.37032873
'0:12.875',-89.62232952
'0:12.879',-116.0791058
'0:12.883',-82.34671605
'0:12.887',-25.99378266
'0:12.891',25.20007937
'0:12.895',37.03948674
'0:12.898',17.9244659
'0:12.902',-41.14028706
'0:12.906',-82.08214829
'0:12.910',-114.9546928
'0:12.914',-93.39242013
'0:12.918',-69.7136054
'0:12.922',-79.37032873
'0:12.926',-81.81758053
'0:12.930',-110.1263311
'0:12.934',-120.6428997
'0:12.938',-132.2177393
'0:12.941',-129.8366294
'0:12.945',-117.4019446
'0:12.949',-111.4491699
'0:12.953',-119.0554931
'0:12.957',-113.631854
'0:12.961',-113.631854
'0:12.965',-102.8507176
'0:12.969',-64.81910179
'0:12.973',-40.28044183
'0:12.977',-48.94503605
'0:12.980',-77.25378663
'0:12.984',-128.4476487
'0:12.988',-170.7784906
'0:12.992',-181.559627
'0:12.996',-164.5611482
'0:13.000',-102.5861499
'0:13.004',-11.70712349
'0:13.008',46.23321648
'0:13.012',-0.39685164
'0:13.016',-83.73569681
'0:13.020',-73.21912825
'0:13.023',107.6790793
'0:13.027',291.0245387
'0:13.031',426.3509491
'0:13.035',539.3213837
'0:13.039',470.8644752
'0:13.043',235.2007408
'0:13.047',116.3436735
'0:13.051',66.47265031
'0:13.055',87.50578742
'0:13.059',48.94503605
'0:13.063',35.45208016
'0:13.066',68.06005688
'0:13.070',95.57510417
'0:13.074',98.81605926
'0:13.078',110.9200344
'0:13.082',116.0791058
'0:13.086',-5.22521331
'0:13.090',-190.2242212
'0:13.094',-253.5220583
'0:13.098',-231.4306502
'0:13.102',-194.7880151
'0:13.105',-165.6855612
'0:13.109',-144.6524241
'0:13.113',-152.4571731
'0:13.117',-145.9752629
'0:13.121',-144.6524241
'0:13.125',-134.4004233
'0:13.129',-143.8587208
'0:13.133',-133.60672
'0:13.137',-128.4476487
'0:13.141',-129.2413519
'0:13.145',-119.0554931
'0:13.148',-126.8602421
'0:13.152',-115.5499702
'0:13.156',-110.9200344
'0:13.160',-98.28692374
'0:13.164',-73.21912825
'0:13.168',-33.00482836
'0:13.172',-19.84258218
'0:13.176',-27.91189894
'0:13.180',-45.17494543
'0:13.184',-7.67246511
'0:13.188',73.48369601
'0:13.191',100.9326014
'0:13.195',69.7136054
'0:13.199',13.62523976
'0:13.203',-29.23473775
'0:13.207',-66.73721807
'0:13.211',-61.5781467
'0:13.215',-18.45360143
'0:13.219',19.84258218
'0:13.223',76.7246511
'0:13.227',77.78292215
'0:13.230',72.35928302
'0:13.234',83.14041934
'0:13.238',99.87433031
'0:13.242',105.827105
'0:13.246',109.5971956
'0:13.250',90.74674251
'0:13.254',85.58767114
'0:13.258',84.00026457
'0:13.262',102.8507176
'0:13.266',90.74674251
'0:13.270',75.60023811
'0:13.273',72.09471526
'0:13.277',68.06005688
'0:13.281',53.24426219
'0:13.285',26.85362789
'0:13.289',28.70560222
'0:13.293',38.69303525
'0:13.297',17.65989814
'0:13.301',5.22521331
'0:13.305',-3.9023745
'0:13.309',-3.37323897
'0:13.313',20.90085323
'0:13.316',-0.13228388
'0:13.320',-25.7292149
'0:13.324',-48.41590052
'0:13.328',-64.81910179
'0:13.332',-59.72617237
'0:13.336',-51.65685561
'0:13.340',-45.96864872
'0:13.344',-49.73873933
'0:13.348',-46.76235201
'0:13.352',-57.0143528
'0:13.355',-50.53244262
'0:13.359',-47.29148753
'0:13.363',-20.37171771
'0:13.367',-16.33705933
'0:13.371',-22.75282757
'0:13.375',-15.4772141
'0:13.379',15.74178186
'0:13.383',70.24274092
'0:13.387',107.1499438
'0:13.391',90.74674251
'0:13.395',41.14028706
'0:13.398',-37.6347642
'0:13.402',-98.5514915
'0:13.406',-116.6082413
'0:13.410',-92.33414908
'0:13.414',-65.34823732
'0:13.418',-44.64580991
'0:13.422',-35.45208016
'0:13.426',-33.26939612
'0:13.430',-24.67094385
'0:13.434',-16.33705933
'0:13.438',2.05040016
'0:13.441',26.25835042
'0:13.445',14.94807858
'0:13.449',26.25835042
'0:13.453',18.45360143
'0:13.457',33.53396389
'0:13.461',55.69151399
'0:13.465',76.46008334
'0:13.469',74.2773993
'0:13.473',53.77339771
'0:13.477',21.95912428
'0:13.480',-20.90085323
'0:13.484',-65.08366955
'0:13.488',-84.79396786
'0:13.492',-92.59871685
'0:13.496',-64.02539851
'0:13.500',-43.52139692
'0:13.504',-35.98121569
'0:13.508',-34.65837688
'0:13.512',-40.28044183
'0:13.516',-76.46008334
'0:13.520',-104.1735565
'0:13.523',-83.73569681
'0:13.527',-70.50730868
'0:13.531',-75.60023811
'0:13.535',-60.25530789
'0:13.539',-55.95608175
'0:13.543',-36.24578345
'0:13.547',-7.14332959
'0:13.551',3.63780673
'0:13.555',-10.9134202
'0:13.559',10.64885244
'0:13.563',105.0334017
'0:13.566',330.6435611
'0:13.570',541.7686355
'0:13.574',756.5976586
'0:13.578',950.7242543
'0:13.582',871.2216416
'0:13.586',609.4318407
'0:13.590',380.7791521
'0:13.594',233.0841987
'0:13.598',91.5404458
'0:13.602',18.18903367
'0:13.605',-0.92598717
'0:13.609',-2.57953568
'0:13.613',-0.92598717
'0:13.617',-9.06144586
'0:13.621',-0.39685164
'0:13.625',12.83153648
'0:13.629',-17.65989814
'0:13.633',-44.05053244
'0:13.637',-53.50882995
'0:13.641',-50.53244262
'0:13.645',-40.01587407
'0:13.648',-35.71664793
'0:13.652',-42.72769363
'0:13.656',-51.06157815
'0:13.660',-50.0033071
'0:13.664',-41.66942258
'0:13.668',-37.03948674
'0:13.672',-41.66942258
'0:13.676',-33.53396389
'0:13.680',-34.39380911
'0:13.684',-11.17798796
'0:13.688',-6.3496263
'0:13.691',-24.14180832
'0:13.695',-45.4395132
'0:13.699',-47.55605529
'0:13.703',-44.91037767
'0:13.707',-40.87571929
'0:13.711',-25.46464713
'0:13.715',-60.25530789
'0:13.719',-29.76387327
'0:13.723',-14.41894305
'0:13.727',3.63780673
'0:13.730',6.08505854
'0:13.734',6.3496263
'0:13.738',19.84258218
'0:13.742',2.31496792
'0:13.746',4.43151002
'0:13.750',21.95912428
'0:13.754',36.24578345
'0:13.758',50.0033071
'0:13.762',50.53244262
'0:13.766',53.77339771
'0:13.770',70.50730868
'0:13.773',68.06005688
'0:13.777',81.81758053
'0:13.781',82.34671605
'0:13.785',85.58767114
'0:13.789',102.3215821
'0:13.793',99.60976255
'0:13.797',98.02235598
'0:13.801',98.81605926
'0:13.805',101.2633111
'0:13.809',86.11680667
'0:13.813',84.52940009
'0:13.816',81.81758053
'0:13.820',66.20808255
'0:13.824',37.6347642
'0:13.828',39.22217078
'0:13.832',35.45208016
'0:13.836',16.07249157
'0:13.840',17.39533038
'0:13.844',5.22521331
'0:13.848',-8.73073616
'0:13.852',-27.38276341
'0:13.855',-15.74178186
'0:13.859',-17.13076262
'0:13.863',-28.70560222
'0:13.867',-39.7513063
'0:13.871',-41.40485482
'0:13.875',-31.94655731
'0:13.879',-50.26787486
'0:13.883',-29.49930551
'0:13.887',-24.93551161
'0:13.891',-25.7292149
'0:13.895',-30.35915074
'0:13.898',-17.13076262
'0:13.902',-14.68351081
'0:13.906',-9.85514915
'0:13.910',6.61419406
'0:13.914',2.05040016
'0:13.918',15.21264634
'0:13.922',32.47569284
'0:13.926',21.42998876
'0:13.930',24.14180832
'0:13.934',20.37171771
'0:13.938',31.15285402
'0:13.941',15.4772141
'0:13.945',6.08505854
'0:13.949',9.06144586
'0:13.953',19.84258218
'0:13.957',13.62523976
'0:13.961',14.94807858
'0:13.965',6.3496263
'0:13.969',-5.82049077
'0:13.973',-10.38428467
'0:13.977',-2.57953568
'0:13.980',-3.37323897
'0:13.984',4.16694226
'0:13.988',25.20007937
'0:13.992',21.42998876
'0:13.996',15.21264634
'0:14.000',-0.92598717
'0:14.004',4.69607778
'0:14.008',7.93703287
'0:14.012',4.69607778
'0:14.016',-15.74178186
'0:14.020',-46.49778424
'0:14.023',-72.95456049
'0:14.027',-87.24121966
'0:14.031',-92.33414908
'0:14.035',-98.02235598
'0:14.039',-112.0444474
'0:14.043',-120.9074674
'0:14.047',-118.4602156
'0:14.051',-124.1484225
'0:14.055',-129.8366294
'0:14.059',-128.1830809
'0:14.063',-121.7011707
'0:14.066',-119.0554931
'0:14.070',-138.1705139
'0:14.074',-142.7343078
'0:14.078',-127.6539454
'0:14.082',-124.1484225
'0:14.086',-119.8491964
'0:14.090',-105.0334017
'0:14.094',-63.23169522
'0:14.098',-19.24730472
'0:14.102',-29.49930551
'0:14.105',-20.10714994
'0:14.109',57.27892056
'0:14.113',278.0607183
'0:14.117',455.453403
'0:14.121',581.3876579
'0:14.125',626.4303195
'0:14.129',497.5196772
'0:14.133',265.1630399
'0:14.137',131.6886037
'0:14.141',85.05853562
'0:14.145',28.70560222
'0:14.148',-0.39685164
'0:14.152',48.41590052
'0:14.156',60.25530789
'0:14.160',32.7402606
'0:14.164',14.68351081
'0:14.168',17.9244659
'0:14.172',16.33705933
'0:14.176',-18.71816919
'0:14.180',-44.91037767
'0:14.184',-50.0033071
'0:14.188',-49.47417157
'0:14.191',-49.47417157
'0:14.195',-49.73873933
'0:14.199',-60.25530789
'0:14.203',-66.73721807
'0:14.207',-50.79701038
'0:14.211',-49.73873933
'0:14.215',-64.02539851
'0:14.219',-89.35776176
'0:14.223',-82.08214829
'0:14.227',-69.7136054
'0:14.230',-83.47112904
'0:14.234',-77.78292215
'0:14.238',-87.50578742
'0:14.242',-83.14041934
'0:14.246',-71.30101197
'0:14.250',-67.79548912
'0:14.254',-60.51987565
'0:14.258',-69.7136054
'0:14.262',-66.73721807
'0:14.266',-56.22064951
'0:14.270',-52.18599114
'0:14.273',-43.78596468
'0:14.277',-52.18599114
'0:14.281',-50.0033071
'0:14.285',-40.87571929
'0:14.289',-36.51035121
'0:14.293',-27.11819565
'0:14.297',-19.57801442
'0:14.301',-18.45360143
'0:14.305',-24.67094385
'0:14.309',-19.24730472
'0:14.313',-10.11971691
'0:14.316',-4.16694226
'0:14.320',-3.63780673
'0:14.324',21.95912428
'0:14.328',27.91189894
'0:14.332',23.34810503
'0:14.336',14.94807858
'0:14.340',13.88980753
'0:14.344',20.63628547
'0:14.348',25.99378266
'0:14.352',38.69303525
'0:14.355',31.68198955
'0:14.359',30.6237185
'0:14.363',36.51035121
'0:14.367',25.7292149
'0:14.371',23.87724056
'0:14.375',16.86619485
'0:14.379',-1.19055493
'0:14.383',-11.44255572
'0:14.387',-6.61419406
'0:14.391',-24.67094385
'0:14.395',-30.6237185
'0:14.398',-48.41590052
'0:14.402',-44.38124215
'0:14.406',-71.30101197
'0:14.410',-71.8301475
'0:14.414',-62.70255969
'0:14.418',-66.47265031
'0:14.422',-61.84271447
'0:14.426',-55.42694623
'0:14.430',-70.50730868
'0:14.434',-60.51987565
'0:14.438',-50.53244262
'0:14.441',-47.886765
'0:14.445',-55.69151399
'0:14.449',-67.79548912
'0:14.453',-58.07262385
'0:14.457',-51.06157815
'0:14.461',-65.67894702
'0:14.465',-55.69151399
'0:14.469',-51.32614591
'0:14.473',-57.54348833
'0:14.477',-50.0033071
'0:14.480',-49.73873933
'0:14.484',-56.48521728
'0:14.488',-50.53244262
'0:14.492',-55.95608175
'0:14.496',-49.47417157
'0:14.500',-50.53244262
'0:14.504',-57.27892056
'0:14.508',-65.34823732
'0:14.512',-69.44903763
'0:14.516',-79.96560619
'0:14.520',-67.53092136
'0:14.523',-44.64580991
'0:14.527',-51.65685561
'0:14.531',-35.98121569
'0:14.535',-29.49930551
'0:14.539',-4.16694226
'0:14.543',1.19055493
'0:14.547',-3.37323897
'0:14.551',-0.92598717
'0:14.555',4.96064555
'0:14.559',-19.24730472
'0:14.563',-45.4395132
'0:14.566',-50.0033071
'0:14.570',-64.81910179
'0:14.574',-75.07110259
'0:14.578',-83.47112904
'0:14.582',-79.37032873
'0:14.586',-68.85376017
'0:14.590',-65.67894702
'0:14.594',-73.21912825
'0:14.598',-81.02387724
'0:14.602',-78.8411932
'0:14.605',-101.2633111
'0:14.609',-112.0444474
'0:14.613',-103.3798532
'0:14.617',-98.02235598
'0:14.621',-82.08214829
'0:14.625',-55.95608175
'0:14.629',-48.68046828
'0:14.633',-37.37019644
'0:14.637',-15.74178186
'0:14.641',-2.57953568
'0:14.645',-8.4661684
'0:14.648',47.29148753
'0:14.652',227.6605596
'0:14.656',429.856472
'0:14.660',557.3781335
'0:14.664',678.4178848
'0:14.668',637.7405913
'0:14.672',386.467359
'0:14.676',195.8462861
'0:14.680',93.6569879
'0:14.684',85.32310338
'0:14.688',50.53244262
'0:14.691',51.06157815
'0:14.695',63.49626298
'0:14.699',44.64580991
'0:14.703',5.82049077
'0:14.707',3.37323897
'0:14.711',1.45512269
'0:14.715',-17.65989814
'0:14.719',-79.96560619
'0:14.723',-101.7924466
'0:14.727',-125.4712613
'0:14.730',-114.9546928
'0:14.734',-117.1373768
'0:14.738',-128.1830809
'0:14.742',-133.0775845
'0:14.746',-141.411469
'0:14.750',-131.6886037
'0:14.754',-117.6665123
'0:14.758',-112.3090152
'0:14.762',-131.9531715
'0:14.766',-139.228785
'0:14.770',-130.6303327
'0:14.773',-133.60672
'0:14.777',-127.9185131
'0:14.781',-116.0791058
'0:14.785',-108.8034923
'0:14.789',-114.4255573
'0:14.793',-99.08062703
'0:14.797',-109.5971956
'0:14.801',-114.9546928
'0:14.805',-108.5389245
'0:14.809',-84.00026457
'0:14.813',-84.26483233
'0:14.816',-75.86480587
'0:14.820',-65.34823732
'0:14.824',-60.78444342
'0:14.828',-52.4505589
'0:14.832',-35.45208016
'0:14.836',-27.11819565
'0:14.840',-32.47569284
'0:14.844',-12.56696871
'0:14.848',-4.96064555
'0:14.852',27.64733117
'0:14.855',21.16542099
'0:14.859',33.00482836
'0:14.863',51.65685561
'0:14.867',57.80805609
'0:14.871',75.33567035
'0:14.875',85.8522389
'0:14.879',97.16251075
'0:14.883',114.9546928
'0:14.887',105.5625372
'0:14.891',108.8034923
'0:14.895',119.5846286
'0:14.898',97.16251075
'0:14.902',98.81605926
'0:14.906',74.01283154
'0:14.910',76.98921886
'0:14.914',71.03644421
'0:14.918',48.68046828
'0:14.922',50.26787486
'0:14.926',40.80957735
'0:14.930',28.1764667
'0:14.934',23.6126728
'0:14.938',16.86619485
'0:14.941',-14.15437529
'0:14.945',-22.75282757
'0:14.949',-20.10714994
'0:14.953',-41.40485482
'0:14.957',-62.43799193
'0:14.961',-61.5781467
'0:14.965',-72.35928302
'0:14.969',-69.7136054
'0:14.973',-57.80805609
'0:14.977',-62.96712746
'0:14.980',-61.84271447
'0:14.984',-71.56557973
'0:14.988',-68.32462464
'0:14.992',-88.29949071
'0:14.996',-78.04748991
'0:15.000',-78.8411932
'0:15.004',-88.56405847
'0:15.008',-99.34519479
'0:15.012',-86.38137443
'0:15.016',-94.25226536
'0:15.020',-95.31053641
'0:15.023',-73.48369601
'0:15.027',-68.58919241
'0:15.031',-54.567101
'0:15.035',-60.51987565
'0:15.039',-46.23321648
'0:15.043',-41.93399034
'0:15.047',-52.18599114
'0:15.051',-52.4505589
'0:15.055',-58.33719161
'0:15.059',-31.15285402
'0:15.063',-13.360672
'0:15.066',-6.3496263
'0:15.070',-2.84410345
'0:15.074',23.87724056
'0:15.078',32.7402606
'0:15.082',18.45360143
'0:15.086',11.97169125
'0:15.090',30.88828626
'0:15.094',7.93703287
'0:15.098',-44.64580991
'0:15.102',-88.29949071
'0:15.105',-82.87585158
'0:15.109',-85.58767114
'0:15.113',-76.7246511
'0:15.117',-63.23169522
'0:15.121',-57.80805609
'0:15.125',-51.06157815
'0:15.129',-51.65685561
'0:15.133',-42.72769363
'0:15.137',-31.41742179
'0:15.141',-27.11819565
'0:15.145',-34.65837688
'0:15.148',-33.26939612
'0:15.152',-25.20007937
'0:15.156',-31.68198955
'0:15.160',-27.91189894
'0:15.164',-34.92294464
'0:15.168',-32.21112507
'0:15.172',-39.7513063
'0:15.176',-0.39685164
'0:15.180',31.41742179
'0:15.184',41.40485482
'0:15.188',3.10867121
'0:15.191',15.4772141
'0:15.195',172.1674714
'0:15.199',378.66261
'0:15.203',546.0678616
'0:15.207',714.5313844
'0:15.211',775.5142536
'0:15.215',565.712018
'0:15.219',323.3679476
'0:15.223',237.3834248
'0:15.227',147.8933792
'0:15.230',35.98121569
'0:15.234',10.64885244
'0:15.238',10.11971691
'0:15.242',2.31496792
'0:15.246',-17.65989814
'0:15.250',-28.44103446
'0:15.254',-37.37019644
'0:15.258',-38.42846749
'0:15.262',-76.98921886
'0:15.266',-95.57510417
'0:15.270',-92.59871685
'0:15.273',-88.56405847
'0:15.277',-88.82862623
'0:15.281',-92.33414908
'0:15.285',-109.8617633
'0:15.289',-107.4145115
'0:15.293',-89.35776176
'0:15.297',-75.07110259
'0:15.301',-77.25378663
'0:15.305',-76.12937364
'0:15.309',-73.48369601
'0:15.313',-26.25835042
'0:15.316',1.45512269
'0:15.320',16.86619485
'0:15.324',21.69455652
'0:15.328',-20.10714994
'0:15.332',-67.00178583
'0:15.336',-104.4381242
'0:15.340',-110.9200344
'0:15.344',-96.1042397
'0:15.348',-90.48217475
'0:15.352',-54.30253324
'0:15.355',-41.40485482
'0:15.359',-45.70408096
'0:15.363',-29.49930551
'0:15.367',-25.46464713
'0:15.371',23.87724056
'0:15.375',51.92142337
'0:15.379',50.0033071
'0:15.383',53.50882995
'0:15.387',42.46312587
'0:15.391',42.19855811
'0:15.395',52.18599114
'0:15.398',79.37032873
'0:15.402',97.75778821
'0:15.406',89.35776176
'0:15.410',92.86328461
'0:15.414',71.8301475
'0:15.418',65.08366955
'0:15.422',80.23017395
'0:15.426',85.58767114
'0:15.430',105.827105
'0:15.434',103.6444209
'0:15.438',83.47112904
'0:15.441',98.02235598
'0:15.445',84.79396786
'0:15.449',88.56405847
'0:15.453',87.50578742
'0:15.457',98.81605926
'0:15.461',112.0444474
'0:15.465',99.34519479
'0:15.469',74.2773993
'0:15.473',43.52139692
'0:15.477',-9.32601363
'0:15.480',-76.7246511
'0:15.484',-76.12937364
'0:15.488',-75.60023811
'0:15.492',-75.33567035
'0:15.496',-60.25530789
'0:15.500',-61.04901118
'0:15.504',-59.99074013
'0:15.508',-58.33719161
'0:15.512',-27.38276341
'0:15.516',-29.76387327
'0:15.520',-28.70560222
'0:15.523',-41.40485482
'0:15.527',-40.01587407
'0:15.531',-27.64733117
'0:15.535',-15.4772141
'0:15.539',-14.41894305
'0:15.543',6.3496263
'0:15.547',23.6126728
'0:15.551',20.63628547
'0:15.555',3.10867121
'0:15.559',-10.9134202
'0:15.563',-24.14180832
'0:15.566',-24.67094385
'0:15.570',33.26939612
'0:15.574',45.17494543
'0:15.578',35.45208016
'0:15.582',13.09610424
'0:15.586',-33.53396389
'0:15.590',-57.80805609
'0:15.594',-51.32614591
'0:15.598',-50.26787486
'0:15.602',-40.28044183
'0:15.605',-34.65837688
'0:15.609',-55.69151399
'0:15.613',-48.68046828
'0:15.617',-34.92294464
'0:15.621',-27.64733117
'0:15.625',-4.43151002
'0:15.629',85.8522389
'0:15.633',168.6619485
'0:15.637',199.6163767
'0:15.641',138.1705139
'0:15.645',13.360672
'0:15.648',-40.28044183
'0:15.652',24.40637608
'0:15.656',69.11832793
'0:15.660',120.1137641
'0:15.664',91.01131027
'0:15.668',-56.74978504
'0:15.672',-206.6274225
'0:15.676',-223.0967657
'0:15.680',-182.9486077
'0:15.684',-141.9406045
'0:15.688',-85.58767114
'0:15.691',-76.46008334
'0:15.695',-117.4019446
'0:15.699',-126.5956743
'0:15.703',-47.886765
'0:15.707',-30.6237185
'0:15.711',-45.17494543
'0:15.715',-60.25530789
'0:15.719',-87.24121966
'0:15.723',-95.83967194
'0:15.727',-81.288445
'0:15.730',-64.02539851
'0:15.734',-30.02844103
'0:15.738',-9.06144586
'0:15.742',29.76387327
'0:15.746',30.02844103
'0:15.750',82.08214829
'0:15.754',253.852768
'0:15.758',485.1511343
'0:15.762',571.9293604
'0:15.766',671.1422713
'0:15.770',736.1597989
'0:15.773',577.8821351
'0:15.777',369.4688802
'0:15.781',242.2117865
'0:15.785',141.6760368
'0:15.789',50.26787486
'0:15.793',-8.20160063
'0:15.797',-54.30253324
'0:15.801',-70.77187645
'0:15.805',-59.72617237
'0:15.809',-52.4505589
'0:15.813',-42.72769363
'0:15.816',-68.58919241
'0:15.820',-99.34519479
'0:15.824',-105.5625372
'0:15.828',-101.2633111
'0:15.832',-108.2743568
'0:15.836',-85.8522389
'0:15.840',-69.97817316
'0:15.844',-75.33567035
'0:15.848',-82.87585158
'0:15.852',-103.1152854
'0:15.855',-129.8366294
'0:15.859',-102.0570144
'0:15.863',-65.08366955
'0:15.867',-56.48521728
'0:15.871',-84.79396786
'0:15.875',-136.5831074
'0:15.879',-174.2840135
'0:15.883',-160.7910576
'0:15.887',-142.9988756
'0:15.891',-123.3547192
'0:15.895',-106.0916727
'0:15.898',-92.86328461
'0:15.902',-94.78140089
'0:15.906',-92.86328461
'0:15.910',-89.62232952
'0:15.914',-58.33719161
'0:15.918',30.6237185
'0:15.922',43.52139692
'0:15.926',36.51035121
'0:15.930',-15.74178186
'0:15.934',-94.25226536
'0:15.938',-106.3562405
'0:15.941',-72.62385078
'0:15.945',-71.03644421
'0:15.949',-69.7136054
'0:15.953',-59.99074013
'0:15.957',-70.24274092
'0:15.961',-85.8522389
'0:15.965',-86.11680667
'0:15.969',-56.74978504
'0:15.973',-16.86619485
'0:15.977',-7.93703287
'0:15.980',-18.45360143
'0:15.984',-18.18903367
'0:15.988',-7.93703287
'0:15.992',28.97016998
'0:15.996',38.16389973
'0:16.000',30.6237185
'0:16.004',17.13076262
'0:16.008',25.7292149
'0:16.012',12.83153648
'0:16.016',6.87876182
'0:16.020',-0.39685164
'0:16.023',-30.6237185
'0:16.027',-37.89933197
'0:16.031',-35.1875124
'0:16.035',-57.54348833
'0:16.039',-64.02539851
'0:16.043',-62.96712746
'0:16.047',-56.48521728
'0:16.051',-52.97969442
'0:16.055',-41.40485482
'0:16.059',-62.96712746
'0:16.063',-76.98921886
'0:16.066',-55.69151399
'0:16.070',6.87876182
'0:16.074',17.13076262
'0:16.078',-28.70560222
'0:16.082',-67.53092136
'0:16.086',-65.34823732
'0:16.090',-59.19703684
'0:16.094',-51.92142337
'0:16.098',-32.47569284
'0:16.102',-21.69455652
'0:16.105',-32.21112507
'0:16.109',-23.34810503
'0:16.113',-33.53396389
'0:16.117',-32.7402606
'0:16.121',-23.08353727
'0:16.125',-17.39533038
'0:16.129',-37.89933197
'0:16.133',-61.5781467
'0:16.137',-47.55605529
'0:16.141',-26.85362789
'0:16.145',-21.42998876
'0:16.148',-37.03948674
'0:16.152',-41.66942258
'0:16.156',-45.70408096
'0:16.160',-43.78596468
'0:16.164',-23.6126728
'0:16.168',8.4661684
'0:16.172',35.98121569
'0:16.176',18.98273695
'0:16.180',-22.48825981
'0:16.184',-95.04596865
'0:16.188',-144.1232886
'0:16.191',-124.1484225
'0:16.195',-117.4019446
'0:16.199',-126.3311066
'0:16.203',-112.3090152
'0:16.207',-95.04596865
'0:16.211',-75.86480587
'0:16.215',-54.30253324
'0:16.219',-47.29148753
'0:16.223',-16.60162709
'0:16.227',-13.62523976
'0:16.230',-55.16237846
'0:16.234',-79.37032873
'0:16.238',-77.51835439
'0:16.242',-84.26483233
'0:16.246',-80.23017395
'0:16.250',-102.0570144
'0:16.254',-109.3326278
'0:16.258',-109.3326278
'0:16.262',-102.3215821
'0:16.266',-82.34671605
'0:16.270',-86.11680667
'0:16.273',-91.27587803
'0:16.277',-106.6208083
'0:16.281',-54.83166876
'0:16.285',-23.08353727
'0:16.289',6.3496263
'0:16.293',6.08505854
'0:16.297',-5.82049077
'0:16.301',-79.96560619
'0:16.305',-141.9406045
'0:16.309',-164.825716
'0:16.313',-80.75930948
'0:16.316',117.4019446
'0:16.320',372.4452675
'0:16.324',558.4364045
'0:16.328',730.2070243
'0:16.332',780.8717508
'0:16.336',561.9419274
'0:16.340',363.8468153
'0:16.344',217.4085588
'0:16.348',135.7232621
'0:16.352',58.66790132
'0:16.355',17.65989814
'0:16.359',15.74178186
'0:16.363',1.19055493
'0:16.367',19.24730472
'0:16.371',23.6126728
'0:16.375',14.68351081
'0:16.379',15.4772141
'0:16.383',-11.70712349
'0:16.387',-24.93551161
'0:16.391',-23.6126728
'0:16.395',-36.51035121
'0:16.398',-51.06157815
'0:16.402',-74.01283154
'0:16.406',-131.6886037
'0:16.410',-178.0541041
'0:16.414',-165.1564257
'0:16.418',-139.228785
'0:16.422',-98.81605926
'0:16.426',-85.8522389
'0:16.430',-94.51683312
'0:16.434',-96.1042397
'0:16.438',-89.35776176
'0:16.441',-67.79548912
'0:16.445',-85.8522389
'0:16.449',-91.5404458
'0:16.453',-93.9876976
'0:16.457',-89.88689728
'0:16.461',-100.6680336
'0:16.465',-69.7136054
'0:16.469',-76.12937364
'0:16.473',-46.76235201
'0:16.477',-27.38276341
'0:16.480',-21.16542099
'0:16.484',57.27892056
'0:16.488',81.55301277
'0:16.492',96.36880746
'0:16.496',57.80805609
'0:16.500',-26.85362789
'0:16.504',-45.4395132
'0:16.508',-76.98921886
'0:16.512',-100.6680336
'0:16.516',-30.35915074
'0:16.520',11.17798796
'0:16.523',13.88980753
'0:16.527',23.87724056
'0:16.531',48.15133276
'0:16.535',64.81910179
'0:16.539',73.48369601
'0:16.543',79.10576096
'0:16.547',74.80653482
'0:16.551',51.06157815
'0:16.555',65.61280508
'0:16.559',71.03644421
'0:16.563',76.46008334
'0:16.566',74.80653482
'0:16.570',53.24426219
'0:16.574',66.73721807
'0:16.578',84.52940009
'0:16.582',57.80805609
'0:16.586',29.49930551
'0:16.590',41.14028706
'0:16.594',48.68046828
'0:16.598',48.15133276
'0:16.602',40.54500959
'0:16.605',46.49778424
'0:16.609',72.62385078
'0:16.613',94.25226536
'0:16.617',62.96712746
'0:16.621',-2.57953568
'0:16.625',-56.74978504
'0:16.629',-82.34671605
'0:16.633',-85.05853562
'0:16.637',-57.80805609
'0:16.641',-43.25682916
'0:16.645',-43.25682916
'0:16.648',-15.4772141
'0:16.652',-18.18903367
'0:16.656',-24.93551161
'0:16.660',-26.85362789
'0:16.664',-26.85362789
'0:16.668',0.66141941
'0:16.672',-17.65989814
'0:16.676',-39.48673854
'0:16.680',-10.9134202
'0:16.684',2.05040016
'0:16.688',-0.66141941
'0:16.691',-14.15437529
'0:16.695',-20.37171771
'0:16.699',-11.97169125
'0:16.703',-16.33705933
'0:16.707',-16.33705933
'0:16.711',-12.23625901
'0:16.715',-4.96064555
'0:16.719',-13.88980753
'0:16.723',-16.33705933
'0:16.727',-29.76387327
'0:16.730',-25.99378266
'0:16.734',-36.77491898
'0:16.738',-16.60162709
'0:16.742',-3.63780673
'0:16.746',1.19055493
'0:16.750',-7.40789735
'0:16.754',-17.39533038
'0:16.758',-0.66141941
'0:16.762',9.06144586
'0:16.766',15.4772141
'0:16.770',10.38428467
'0:16.773',-13.88980753
'0:16.777',-30.35915074
'0:16.781',-38.69303525
'0:16.785',-49.73873933
'0:16.789',-69.44903763
'0:16.793',-61.5781467
'0:16.797',-64.02539851
'0:16.801',-57.27892056
'0:16.805',-66.20808255
'0:16.809',-67.26635359
'0:16.813',-59.99074013
'0:16.816',-79.96560619
'0:16.820',-89.09319399
'0:16.824',-81.55301277
'0:16.828',-68.06005688
'0:16.832',-61.31357894
'0:16.836',-64.02539851
'0:16.840',-56.74978504
'0:16.844',-33.86467359
'0:16.848',10.11971691
'0:16.852',17.13076262
'0:16.855',-13.88980753
'0:16.859',11.44255572
'0:16.863',138.4350817
'0:16.867',345.194788
'0:16.871',509.4252265
'0:16.875',665.2556386
'0:16.879',736.1597989
'0:16.883',545.0095906
'0:16.887',305.3111978
'0:16.891',188.5706727
'0:16.895',133.60672
'0:16.898',71.8301475
'0:16.902',62.43799193
'0:16.906',71.8301475
'0:16.910',71.30101197
'0:16.914',51.65685561
'0:16.918',39.48673854
'0:16.922',28.97016998
'0:16.926',23.6126728
'0:16.930',-21.69455652
'0:16.934',-56.22064951
'0:16.938',-72.35928302
'0:16.941',-71.56557973
'0:16.945',-76.7246511
'0:16.949',-69.97817316
'0:16.953',-71.30101197
'0:16.957',-73.48369601
'0:16.961',-73.21912825
'0:16.965',-60.78444342
'0:16.969',-68.32462464
'0:16.973',-84.52940009
'0:16.977',-88.03492294
'0:16.980',-75.07110259
'0:16.984',-79.10576096
'0:16.988',-82.87585158
'0:16.992',-81.55301277
'0:16.996',-87.50578742
'0:17.000',-92.59871685
'0:17.004',-79.63489649
'0:17.008',-82.08214829
'0:17.012',-79.96560619
'0:17.016',-86.64594219
'0:17.020',-77.51835439
'0:17.023',-65.08366955
'0:17.027',-65.67894702
'0:17.031',-61.84271447
'0:17.035',-53.77339771
'0:17.039',-46.76235201
'0:17.043',-18.98273695
'0:17.047',13.09610424
'0:17.051',3.10867121
'0:17.055',13.09610424
'0:17.059',49.47417157
'0:17.063',58.07262385
'0:17.066',76.7246511
'0:17.070',85.58767114
'0:17.074',109.8617633
'0:17.078',112.0444474
'0:17.082',121.7011707
'0:17.086',110.3908989
'0:17.090',119.8491964
'0:17.094',95.04596865
'0:17.098',95.83967194
'0:17.102',103.9089887
'0:17.105',107.9436471
'0:17.109',118.7247834
'0:17.113',126.5956743
'0:17.117',111.4491699
'0:17.121',104.4381242
'0:17.125',93.39242013
'0:17.129',87.50578742
'0:17.133',78.31205768
'0:17.137',62.43799193
'0:17.141',39.7513063
'0:17.145',30.02844103
'0:17.148',23.6126728
'0:17.152',13.360672
'0:17.156',12.23625901
'0:17.160',5.82049077
'0:17.164',12.83153648
'0:17.168',7.93703287
'0:17.172',-1.7858324
'0:17.176',-3.37323897
'0:17.180',4.43151002
'0:17.184',-4.43151002
'0:17.188',-6.87876182
'0:17.191',-15.74178186
'0:17.195',-19.24730472
'0:17.199',-13.360672
'0:17.203',-21.69455652
'0:17.207',-6.61419406
'0:17.211',0.39685164
'0:17.215',-19.24730472
'0:17.219',-12.83153648
'0:17.223',-5.55592301
'0:17.227',-7.14332959
'0:17.230',-14.68351081
'0:17.234',-18.18903367
'0:17.238',-28.70560222
'0:17.242',-22.22369204
'0:17.246',-23.6126728
'0:17.250',-30.35915074
'0:17.254',-18.18903367
'0:17.258',-14.41894305
'0:17.262',-23.08353727
'0:17.266',-21.69455652
'0:17.270',-28.44103446
'0:17.273',-18.18903367
'0:17.277',-16.07249157
'0:17.281',-8.4661684
'0:17.285',-20.90085323
'0:17.289',-25.7292149
'0:17.293',-17.13076262
'0:17.297',-17.65989814
'0:17.301',4.96064555
'0:17.305',25.20007937
'0:17.309',37.89933197
'0:17.313',47.82062306
'0:17.316',62.96712746
'0:17.320',68.58919241
'0:17.324',73.48369601
'0:17.328',86.91050995
'0:17.332',80.49474172
'0:17.336',64.02539851
'0:17.340',38.69303525
'0:17.344',27.38276341
'0:17.348',7.40789735
'0:17.352',-0.13228388
'0:17.355',-17.39533038
'0:17.359',-11.44255572
'0:17.363',-22.22369204
'0:17.367',-24.40637608
'0:17.371',-31.41742179
'0:17.375',-48.94503605
'0:17.379',-28.44103446
'0:17.383',-39.7513063
'0:17.387',-40.54500959
'0:17.391',-45.70408096
'0:17.395',-33.00482836
'0:17.398',-45.70408096
'0:17.402',-39.7513063
'0:17.406',-39.48673854
'0:17.410',-13.88980753
'0:17.414',12.56696871
'0:17.418',16.07249157
'0:17.422',9.32601363
'0:17.426',89.35776176
'0:17.430',341.9538329
'0:17.434',578.6758384
'0:17.438',779.548912
'0:17.441',920.8280971
'0:17.445',845.8231365
'0:17.449',574.3766122
'0:17.453',350.3538594
'0:17.457',220.1203783
'0:17.461',90.15146504
'0:17.465',39.48673854
'0:17.469',44.64580991
'0:17.473',47.82062306
'0:17.477',35.1875124
'0:17.480',23.6126728
'0:17.484',23.01739533
'0:17.488',27.91189894
'0:17.492',0.92598717
'0:17.496',-41.66942258
'0:17.500',-54.30253324
'0:17.504',-74.54196706
'0:17.508',-70.50730868
'0:17.512',-64.55453403
'0:17.516',-74.80653482
'0:17.520',-55.95608175
'0:17.523',-44.64580991
'0:17.527',-23.87724056
'0:17.531',-31.15285402
'0:17.535',-39.48673854
'0:17.539',-38.16389973
'0:17.543',-29.49930551
'0:17.547',-24.93551161
'0:17.551',-14.68351081
'0:17.555',-22.48825981
'0:17.559',-21.42998876
'0:17.563',-13.88980753
'0:17.566',-9.59058139
'0:17.570',-13.88980753
'0:17.574',-5.22521331
'0:17.578',-21.42998876
'0:17.582',-13.88980753
'0:17.586',-9.85514915
'0:17.590',1.45512269
'0:17.594',10.11971691
'0:17.598',10.11971691
'0:17.602',17.65989814
'0:17.605',7.14332959
'0:17.609',18.98273695
'0:17.613',41.66942258
'0:17.617',39.7513063
'0:17.621',48.68046828
'0:17.625',40.54500959
'0:17.629',52.97969442
'0:17.633',58.07262385
'0:17.637',39.22217078
'0:17.641',48.41590052
'0:17.645',55.95608175
'0:17.648',67.79548912
'0:17.652',73.48369601
'0:17.656',71.30101197
'0:17.660',79.96560619
'0:17.664',72.09471526
'0:17.668',69.44903763
'0:17.672',59.19703684
'0:17.676',55.16237846
'0:17.680',61.5781467
'0:17.684',54.30253324
'0:17.688',38.16389973
'0:17.691',29.76387327
'0:17.695',23.34810503
'0:17.699',11.70712349
'0:17.703',4.96064555
'0:17.707',-9.06144586
'0:17.711',-32.47569284
'0:17.715',-39.48673854
'0:17.719',-53.50882995
'0:17.723',-61.04901118
'0:17.727',-57.80805609
'0:17.730',-64.28996627
'0:17.734',-71.30101197
'0:17.738',-85.05853562
'0:17.742',-77.25378663
'0:17.746',-74.80653482
'0:17.750',-64.81910179
'0:17.754',-71.03644421
'0:17.758',-68.58919241
'0:17.762',-76.7246511
'0:17.766',-73.74826377
'0:17.770',-64.28996627
'0:17.773',-55.69151399
'0:17.777',-54.03796547
'0:17.781',-45.17494543
'0:17.785',-40.87571929
'0:17.789',-46.23321648
'0:17.793',-38.16389973
'0:17.797',-38.42846749
'0:17.801',-45.70408096
'0:17.805',-55.42694623
'0:17.809',-44.38124215
'0:17.813',-54.03796547
'0:17.816',-55.16237846
'0:17.820',-46.76235201
'0:17.824',-40.28044183
'0:17.828',-43.78596468
'0:17.832',-51.92142337
'0:17.836',-53.77339771
'0:17.840',-62.96712746
'0:17.844',-41.40485482
'0:17.848',-44.64580991
'0:17.852',-35.71664793
'0:17.855',-37.37019644
'0:17.859',-46.49778424
'0:17.863',-55.95608175
'0:17.867',-58.66790132
'0:17.871',-51.65685561
'0:17.875',-39.48673854
'0:17.879',-63.76083074
'0:17.883',-54.567101
'0:17.887',-87.50578742
'0:17.891',-96.63337522
'0:17.895',-118.4602156
'0:17.898',-128.7122164
'0:17.902',-135.9878299
'0:17.906',-151.1343343
'0:17.910',-144.1232886
'0:17.914',-135.4586944
'0:17.918',-131.424036
'0:17.922',-120.9074674
'0:17.926',-117.9310801
'0:17.930',-125.2066936
'0:17.934',-132.7468748
'0:17.938',-130.6303327
'0:17.941',-122.2303062
'0:17.945',-133.8712878
'0:17.949',-123.3547192
'0:17.953',-115.814538
'0:17.957',-69.44903763
'0:17.961',-30.88828626
'0:17.965',-7.93703287
'0:17.969',-38.95760302
'0:17.973',-28.1764667
'0:17.977',89.09319399
'0:17.980',272.7032211
'0:17.984',405.0532443
'0:17.988',500.4960646
'0:17.992',495.6677029
'0:17.996',275.6796084
'0:18.000',82.34671605
'0:18.004',22.22369204
'0:18.008',38.16389973
'0:18.012',21.16542099
'0:18.016',36.77491898
'0:18.020',47.02691977
'0:18.023',69.97817316
'0:18.027',39.22217078
'0:18.031',23.87724056
'0:18.035',21.95912428
'0:18.039',14.15437529
'0:18.043',-40.28044183
'0:18.047',-68.06005688
'0:18.051',-71.8301475
'0:18.055',-63.76083074
'0:18.059',-70.77187645
'0:18.063',-71.8301475
'0:18.066',-81.81758053
'0:18.070',-86.97665189
'0:18.074',-81.02387724
'0:18.078',-72.35928302
'0:18.082',-87.50578742
'0:18.086',-94.78140089
'0:18.090',-116.3436735
'0:18.094',-97.42707851
'0:18.098',-91.27587803
'0:18.102',-104.4381242
'0:18.105',-108.2743568
'0:18.109',-113.631854
'0:18.113',-113.8964217
'0:18.117',-108.5389245
'0:18.121',-105.0334017
'0:18.125',-107.4145115
'0:18.129',-96.63337522
'0:18.133',-97.75778821
'0:18.137',-77.51835439
'0:18.141',-88.82862623
'0:18.145',-89.09319399
'0:18.148',-93.9876976
'0:18.152',-81.288445
'0:18.156',-79.10576096
'0:18.160',-89.09319399
'0:18.164',-71.56557973
'0:18.168',-76.98921886
'0:18.172',-65.34823732
'0:18.176',-63.49626298
'0:18.180',-41.66942258
'0:18.184',-40.01587407
'0:18.188',-27.91189894
'0:18.191',-31.94655731
'0:18.195',-14.94807858
'0:18.199',-10.38428467
'0:18.203',-7.93703287
'0:18.207',-10.38428467
'0:18.211',-14.15437529
'0:18.215',-14.68351081
'0:18.219',-11.17798796
'0:18.223',-8.4661684
'0:18.227',-10.11971691
'0:18.230',17.39533038
'0:18.234',15.74178186
'0:18.238',4.96064555
'0:18.242',9.59058139
'0:18.246',-7.93703287
'0:18.250',-13.360672
'0:18.254',-16.07249157
'0:18.258',-12.83153648
'0:18.262',-23.6126728
'0:18.266',-23.34810503
'0:18.270',-28.44103446
'0:18.273',-32.21112507
'0:18.277',-29.49930551
'0:18.281',-40.01587407
'0:18.285',-38.69303525
'0:18.289',-43.52139692
'0:18.293',-32.47569284
'0:18.297',-31.15285402
'0:18.301',-25.20007937
'0:18.305',-22.22369204
'0:18.309',-10.64885244
'0:18.313',-16.07249157
'0:18.316',-14.94807858
'0:18.320',-9.06144586
'0:18.324',-21.69455652
'0:18.328',-24.93551161
'0:18.332',-30.6237185
'0:18.336',-31.41742179
'0:18.340',-41.93399034
'0:18.344',-37.89933197
'0:18.348',-25.20007937
'0:18.352',-16.07249157
'0:18.355',-16.60162709
'0:18.359',-25.20007937
'0:18.363',-4.69607778
'0:18.367',-24.40637608
'0:18.371',-14.94807858
'0:18.375',-0.92598717
'0:18.379',4.43151002
'0:18.383',-4.96064555
'0:18.387',-5.82049077
'0:18.391',-12.83153648
'0:18.395',-16.86619485
'0:18.398',2.57953568
'0:18.402',8.4661684
'0:18.406',25.20007937
'0:18.410',35.71664793
'0:18.414',47.29148753
'0:18.418',34.92294464
'0:18.422',57.27892056
'0:18.426',41.93399034
'0:18.430',37.03948674
'0:18.434',32.7402606
'0:18.438',3.37323897
'0:18.441',-6.3496263
'0:18.445',-21.42998876
'0:18.449',-27.11819565
'0:18.453',-32.47569284
'0:18.457',-45.96864872
'0:18.461',-39.22217078
'0:18.465',-37.89933197
'0:18.469',-12.23625901
'0:18.473',-17.9244659
'0:18.477',-13.88980753
'0:18.480',-6.61419406
'0:18.484',-5.22521331
'0:18.488',4.16694226
'0:18.492',14.15437529
'0:18.496',1.45512269
'0:18.500',9.85514915
'0:18.504',27.11819565
'0:18.508',66.20808255
'0:18.512',90.74674251
'0:18.516',80.49474172
'0:18.520',77.25378663
'0:18.523',125.4712613
'0:18.527',329.0561545
'0:18.531',517.2299755
'0:18.535',655.2682056
'0:18.539',749.3220451
'0:18.543',625.5704742
'0:18.547',366.2279251
'0:18.551',231.4306502
'0:18.555',162.4446061
'0:18.559',118.4602156
'0:18.563',92.06958132
'0:18.566',100.1388981
'0:18.570',114.1609895
'0:18.574',94.78140089
'0:18.578',84.79396786
'0:18.582',59.99074013
'0:18.586',53.50882995
'0:18.590',20.90085323
'0:18.594',-30.35915074
'0:18.598',-43.52139692
'0:18.602',-40.54500959
'0:18.605',-47.02691977
'0:18.609',-43.52139692
'0:18.613',-61.04901118
'0:18.617',-59.99074013
'0:18.621',-58.66790132
'0:18.625',-63.76083074
'0:18.629',-73.21912825
'0:18.633',-89.88689728
'0:18.637',-92.06958132
'0:18.641',-62.43799193
'0:18.645',-51.65685561
'0:18.648',-56.22064951
'0:18.652',-69.44903763
'0:18.656',-73.21912825
'0:18.660',-63.76083074
'0:18.664',-84.79396786
'0:18.668',-70.77187645
'0:18.672',-68.06005688
'0:18.676',-58.66790132
'0:18.680',-50.0033071
'0:18.684',-52.97969442
'0:18.688',-37.03948674
'0:18.691',-49.73873933
'0:18.695',-57.27892056
'0:18.699',-50.0033071
'0:18.703',-23.34810503
'0:18.707',-22.75282757
'0:18.711',-0.66141941
'0:18.715',-7.93703287
'0:18.719',13.62523976
'0:18.723',23.6126728
'0:18.727',25.7292149
'0:18.730',48.68046828
'0:18.734',40.80957735
'0:18.738',45.4395132
'0:18.742',55.42694623
'0:18.746',57.80805609
'0:18.750',50.0033071
'0:18.754',58.07262385
'0:18.758',59.99074013
'0:18.762',69.44903763
'0:18.766',73.21912825
'0:18.770',82.61128382
'0:18.773',74.54196706
'0:18.777',60.51987565
'0:18.781',69.44903763
'0:18.785',72.35928302
'0:18.789',66.20808255
'0:18.793',59.19703684
'0:18.797',45.17494543
'0:18.801',37.03948674
'0:18.805',40.01587407
'0:18.809',33.53396389
'0:18.813',11.44255572
'0:18.816',-2.05040016
'0:18.820',4.43151002
'0:18.824',-9.59058139
'0:18.828',-14.41894305
'0:18.832',-19.84258218
'0:18.836',-34.39380911
'0:18.840',-28.44103446
'0:18.844',-26.58906012
'0:18.848',-30.6237185
'0:18.852',-19.84258218
'0:18.855',-34.65837688
'0:18.859',-28.44103446
'0:18.863',-25.99378266
'0:18.867',-30.35915074
'0:18.871',-19.84258218
'0:18.875',-19.24730472
'0:18.879',-13.360672
'0:18.883',-9.85514915
'0:18.887',-13.09610424
'0:18.891',-18.45360143
'0:18.895',-18.71816919
'0:18.898',-14.15437529
'0:18.902',-41.66942258
'0:18.906',-27.38276341
'0:18.910',-34.12924135
'0:18.914',-35.98121569
'0:18.918',-31.15285402
'0:18.922',-25.99378266
'0:18.926',-27.38276341
'0:18.930',-32.7402606
'0:18.934',-50.53244262
'0:18.938',-62.17342417
'0:18.941',-58.07262385
'0:18.945',-60.25530789
'0:18.949',-49.73873933
'0:18.953',-35.98121569
'0:18.957',-16.07249157
'0:18.961',-10.9134202
'0:18.965',-10.38428467
'0:18.969',0.66141941
'0:18.973',12.23625901
'0:18.977',30.02844103
'0:18.980',35.98121569
'0:18.984',23.01739533
'0:18.988',19.84258218
'0:18.992',14.15437529
'0:18.996',13.360672
'0:19.000',2.84410345
'0:19.004',-8.4661684
'0:19.008',4.43151002
'0:19.012',-2.57953568
'0:19.016',-3.63780673
'0:19.020',2.05040016
'0:19.023',6.87876182
'0:19.027',4.69607778
'0:19.031',-1.19055493
'0:19.035',-3.10867121
'0:19.039',-14.15437529
'0:19.043',-24.67094385
'0:19.047',-26.25835042
'0:19.051',-48.41590052
'0:19.055',-35.45208016
'0:19.059',-16.86619485
'0:19.063',18.98273695
'0:19.066',50.53244262
'0:19.070',17.13076262
'0:19.074',48.94503605
'0:19.078',233.6133342
'0:19.082',476.4865401
'0:19.086',667.1076129
'0:19.090',826.7081156
'0:19.094',845.2940009
'0:19.098',601.0318143
'0:19.102',360.3412924
'0:19.105',229.8432436
'0:19.109',131.1594682
'0:19.113',38.42846749
'0:19.117',39.22217078
'0:19.121',58.07262385
'0:19.125',43.78596468
'0:19.129',17.13076262
'0:19.133',-7.40789735
'0:19.137',6.61419406
'0:19.141',-7.93703287
'0:19.145',-66.20808255
'0:19.148',-90.15146504
'0:19.152',-87.77035518
'0:19.156',-79.37032873
'0:19.160',-76.12937364
'0:19.164',-97.16251075
'0:19.168',-103.1152854
'0:19.172',-102.8507176
'0:19.176',-97.42707851
'0:19.180',-93.6569879
'0:19.184',-111.7798796
'0:19.188',-116.3436735
'0:19.191',-102.5861499
'0:19.195',-99.60976255
'0:19.199',-94.78140089
'0:19.203',-94.25226536
'0:19.207',-82.87585158
'0:19.211',-86.11680667
'0:19.215',-98.81605926
'0:19.219',-78.04748991
'0:19.223',-93.9876976
'0:19.227',-66.73721807
'0:19.230',-70.50730868
'0:19.234',-51.65685561
'0:19.238',-30.88828626
'0:19.242',-29.76387327
'0:19.246',-32.7402606
'0:19.250',-20.10714994
'0:19.254',-19.57801442
'0:19.258',-0.13228388
'0:19.262',-13.62523976
'0:19.266',0.92598717
'0:19.270',-3.10867121
'0:19.273',11.70712349
'0:19.277',14.68351081
'0:19.281',18.45360143
'0:19.285',17.9244659
'0:19.289',29.76387327
'0:19.293',27.38276341
'0:19.297',45.70408096
'0:19.301',33.86467359
'0:19.305',35.1875124
'0:19.309',46.76235201
'0:19.313',42.72769363
'0:19.316',44.91037767
'0:19.320',49.73873933
'0:19.324',35.71664793
'0:19.328',47.55605529
'0:19.332',42.46312587
'0:19.336',43.52139692
'0:19.340',33.53396389
'0:19.344',20.90085323
'0:19.348',17.13076262
'0:19.352',-4.69607778
'0:19.355',-4.96064555
'0:19.359',-15.74178186
'0:19.363',-27.64733117
'0:19.367',-14.94807858
'0:19.371',-21.69455652
'0:19.375',-37.6347642
'0:19.379',-31.41742179
'0:19.383',-28.1764667
'0:19.387',-31.68198955
'0:19.391',-36.77491898
'0:19.395',-52.4505589
'0:19.398',-47.02691977
'0:19.402',-44.91037767
'0:19.406',-63.49626298
'0:19.410',-51.92142337
'0:19.414',-52.97969442
'0:19.418',-33.26939612
'0:19.422',-45.4395132
'0:19.426',-45.4395132
'0:19.430',-49.73873933
'0:19.434',-52.18599114
'0:19.438',-50.0033071
'0:19.441',-46.23321648
'0:19.445',-30.35915074
'0:19.449',-33.86467359
'0:19.453',-19.84258218
'0:19.457',-17.9244659
'0:19.461',1.19055493
'0:19.465',1.71969046
'0:19.469',14.94807858
'0:19.473',12.83153648
'0:19.477',14.68351081
'0:19.480',2.31496792
'0:19.484',-12.23625901
'0:19.488',-15.4772141
'0:19.492',11.44255572
'0:19.496',10.9134202
'0:19.500',16.60162709
'0:19.504',20.90085323
'0:19.508',2.84410345
'0:19.512',-2.31496792
'0:19.516',-4.43151002
'0:19.520',14.15437529
'0:19.523',17.9244659
'0:19.527',18.45360143
'0:19.531',15.21264634
'0:19.535',-17.9244659
'0:19.539',-31.41742179
'0:19.543',-45.17494543
'0:19.547',-62.17342417
'0:19.551',-80.75930948
'0:19.555',-82.08214829
'0:19.559',-96.63337522
'0:19.563',-109.5971956
'0:19.566',-109.5971956
'0:19.570',-97.42707851
'0:19.574',-99.87433031
'0:19.578',-112.5735829
'0:19.582',-107.9436471
'0:19.586',-108.5389245
'0:19.590',-97.75778821
'0:19.594',-115.814538
'0:19.598',-96.1042397
'0:19.602',-92.33414908
'0:19.605',-77.25378663
'0:19.609',-50.26787486
'0:19.613',-21.16542099
'0:19.617',-47.886765
'0:19.621',-55.69151399
'0:19.625',20.63628547
'0:19.629',210.3975131
'0:19.633',405.0532443
'0:19.637',560.089953
'0:19.641',618.2948608
'0:19.645',476.2219724
'0:19.648',217.9376943
'0:19.652',85.58767114
'0:19.656',17.13076262
'0:19.660',-12.83153648
'0:19.664',-25.7292149
'0:19.668',-16.33705933
'0:19.672',-13.88980753
'0:19.676',-15.74178186
'0:19.680',-29.76387327
'0:19.684',-41.93399034
'0:19.688',-31.68198955
'0:19.691',-44.64580991
'0:19.695',-93.12785237
'0:19.699',-122.8255837
'0:19.703',-106.885376
'0:19.707',-84.79396786
'0:19.711',-95.31053641
'0:19.715',-106.885376
'0:19.719',-120.1137641
'0:19.723',-107.4145115
'0:19.727',-102.3215821
'0:19.730',-95.31053641
'0:19.734',-120.9074674
'0:19.738',-118.1956479
'0:19.742',-107.9436471
'0:19.746',-103.6444209
'0:19.750',-94.78140089
'0:19.754',-118.7247834
'0:19.758',-116.3436735
'0:19.762',-108.2743568
'0:19.766',-104.7688339
'0:19.770',-94.78140089
'0:19.773',-101.5278788
'0:19.777',-114.9546928
'0:19.781',-107.1499438
'0:19.785',-89.35776176
'0:19.789',-79.96560619
'0:19.793',-69.7136054
'0:19.797',-66.73721807
'0:19.801',-73.74826377
'0:19.805',-71.03644421
'0:19.809',-62.43799193
'0:19.813',-69.7136054
'0:19.816',-67.00178583
'0:19.820',-73.74826377
'0:19.824',-54.567101
'0:19.828',-61.84271447
'0:19.832',-68.58919241
'0:19.836',-66.20808255
'0:19.840',-58.33719161
'0:19.844',-40.01587407
'0:19.848',-45.70408096
'0:19.852',-35.45208016
'0:19.855',-33.86467359
'0:19.859',-26.85362789
'0:19.863',-23.87724056
'0:19.867',-28.1764667
'0:19.871',-18.45360143
'0:19.875',-33.86467359
'0:19.879',-42.19855811
'0:19.883',-38.69303525
'0:19.887',-28.44103446
'0:19.891',-35.45208016
'0:19.895',-34.12924135
'0:19.898',-41.93399034
'0:19.902',-68.85376017
'0:19.906',-73.48369601
'0:19.910',-82.34671605
'0:19.914',-84.00026457
'0:19.918',-76.46008334
'0:19.922',-70.24274092
'0:19.926',-72.95456049
'0:19.930',-49.47417157
'0:19.934',-52.4505589
'0:19.938',-45.17494543
'0:19.941',-37.6347642
'0:19.945',-23.87724056
'0:19.949',-17.13076262
'0:19.953',-4.69607778
'0:19.957',2.05040016
'0:19.961',10.38428467
'0:19.965',25.20007937
'0:19.969',47.29148753
'0:19.973',42.72769363
'0:19.977',50.0033071
'0:19.980',43.52139692
'0:19.984',58.33719161
'0:19.988',48.15133276
'0:19.992',42.99226139
'0:19.996',64.81910179
'0:20.000',57.54348833
