'0:00.000',104.1673419
'0:00.004',114.4090594
'0:00.008',117.1315413
'0:00.012',124.7155979
'0:00.016',126.8546908
'0:00.020',136.8371243
'0:00.023',114.9924484
'0:00.027',102.028249
'0:00.031',93.14777243
'0:00.035',94.24972937
'0:00.039',72.14576946
'0:00.043',67.2841947
'0:00.047',68.90471962
'0:00.051',74.28486235
'0:00.055',76.16467126
'0:00.059',72.40505344
'0:00.063',52.44018643
'0:00.066',53.54214337
'0:00.070',57.0424772
'0:00.074',58.33889714
'0:00.078',55.68123627
'0:00.082',52.9587544
'0:00.086',53.54214337
'0:00.090',56.19980424
'0:00.094',57.56104517
'0:00.098',55.68123627
'0:00.102',53.21803839
'0:00.105',53.21803839
'0:00.109',55.42195228
'0:00.113',41.35579597
'0:00.117',71.56238049
'0:00.121',52.18090244
'0:00.125',53.21803839
'0:00.129',40.57794401
'0:00.133',57.30176119
'0:00.137',53.80142736
'0:00.141',51.59751347
'0:00.145',53.21803839
'0:00.148',56.45908823
'0:00.152',56.71837222
'0:00.156',54.06071135
'0:00.160',51.92161845
'0:00.164',52.9587544
'0:00.168',55.42195228
'0:00.172',40.83722799
'0:00.176',39.21670307
'0:00.180',20.87236098
'0:00.184',20.61307699
'0:00.188',6.61174168
'0:00.191',-7.38959364
'0:00.195',-8.49155058
'0:00.199',-27.35446066
'0:00.203',-43.30042587
'0:00.207',-56.71837222
'0:00.211',-55.68123627
'0:00.215',-88.80476564
'0:00.219',-105.7878668
'0:00.223',-121.993116
'0:00.227',-121.733832
'0:00.230',-137.3556923
'0:00.234',-152.4589845
'0:00.238',-168.3401287
'0:00.242',-169.1828017
'0:00.246',-186.1659029
'0:00.250',-185.3232299
'0:00.254',-184.8046619
'0:00.258',-184.5453779
'0:00.262',-184.8046619
'0:00.266',-169.7013697
'0:00.270',-154.0795094
'0:00.273',-137.6149762
'0:00.277',-135.7351673
'0:00.281',-103.6487739
'0:00.285',-105.0100148
'0:00.289',-89.12887062
'0:00.293',-72.40505344
'0:00.297',-71.04381251
'0:00.301',-54.57927932
'0:00.305',-55.42195228
'0:00.309',-40.31866002
'0:00.313',-24.69679979
'0:00.316',-23.33555885
'0:00.320',-21.71503393
'0:00.324',-6.0931737
'0:00.328',-8.2322666
'0:00.332',-8.2322666
'0:00.336',-6.61174168
'0:00.340',10.1120755
'0:00.344',9.01011856
'0:00.348',23.59484284
'0:00.352',23.85412683
'0:00.355',25.99321972
'0:00.359',27.09517667
'0:00.363',25.73393574
'0:00.367',8.49155058
'0:00.371',8.75083457
'0:00.375',9.59350753
'0:00.379',9.59350753
'0:00.383',9.01011856
'0:00.387',-6.87102566
'0:00.391',-6.0931737
'0:00.395',-6.61174168
'0:00.398',-22.75216988
'0:00.402',-37.85546214
'0:00.406',-22.4928859
'0:00.410',-39.47598706
'0:00.414',-23.85412683
'0:00.418',-23.59484284
'0:00.422',-22.4928859
'0:00.426',-21.97431792
'0:00.430',-37.85546214
'0:00.434',-38.43885111
'0:00.438',-23.85412683
'0:00.441',-24.3726948
'0:00.445',-22.75216988
'0:00.449',-5.76906872
'0:00.453',-21.97431792
'0:00.457',8.49155058
'0:00.461',6.87102566
'0:00.465',8.75083457
'0:00.469',11.47331644
'0:00.473',11.47331644
'0:00.477',-6.61174168
'0:00.480',-7.71369862
'0:00.484',-7.38959364
'0:00.488',-6.0931737
'0:00.492',9.85279152
'0:00.496',24.11341082
'0:00.500',8.2322666
'0:00.504',10.63064348
'0:00.508',11.47331644
'0:00.512',24.95608377
'0:00.516',22.75216988
'0:00.520',8.75083457
'0:00.523',11.99188441
'0:00.527',11.73260042
'0:00.531',39.21670307
'0:00.535',21.13164496
'0:00.539',9.85279152
'0:00.543',14.13097731
'0:00.547',11.99188441
'0:00.551',6.61174168
'0:00.555',4.99121675
'0:00.559',9.01011856
'0:00.563',13.09384136
'0:00.566',11.73260042
'0:00.570',-7.97298261
'0:00.574',6.0931737
'0:00.578',7.71369862
'0:00.582',11.21403245
'0:00.586',11.99188441
'0:00.590',24.69679979
'0:00.594',37.07761018
'0:00.598',23.07627487
'0:00.602',28.19713362
'0:00.605',28.97498558
'0:00.609',24.95608377
'0:00.613',21.13164496
'0:00.617',22.75216988
'0:00.621',27.09517667
'0:00.625',43.81899385
'0:00.629',40.31866002
'0:00.633',53.21803839
'0:00.637',39.21670307
'0:00.641',43.81899385
'0:00.645',28.71570159
'0:00.648',40.83722799
'0:00.652',5.50978473
'0:00.656',7.97298261
'0:00.660',-4.47264878
'0:00.664',11.21403245
'0:00.668',6.87102566
'0:00.672',20.353793
'0:00.676',22.75216988
'0:00.680',27.35446066
'0:00.684',27.87302863
'0:00.688',39.73527105
'0:00.691',67.02491071
'0:00.695',130.3550246
'0:00.699',181.3043281
'0:00.703',202.0470471
'0:00.707',157.5798433
'0:00.711',48.42128462
'0:00.715',-78.56304814
'0:00.719',-192.6480025
'0:00.723',-292.9260846
'0:00.727',-251.3758257
'0:00.730',-117.1315413
'0:00.734',-84.52657985
'0:00.738',-68.90471962
'0:00.742',-42.45775292
'0:00.746',-34.6144123
'0:00.750',-17.95541612
'0:00.754',-19.83522503
'0:00.758',-5.25050074
'0:00.762',5.50978473
'0:00.766',-16.01078621
'0:00.770',-29.49355355
'0:00.773',-33.83656034
'0:00.777',-24.11341082
'0:00.781',-29.23426956
'0:00.785',-15.75150223
'0:00.789',-27.87302863
'0:00.793',-32.99388738
'0:00.797',-24.95608377
'0:00.801',0.38892598
'0:00.805',-0.97231495
'0:00.809',-9.85279152
'0:00.813',1.23159894
'0:00.816',6.0931737
'0:00.820',-0.97231495
'0:00.824',15.75150223
'0:00.828',7.38959364
'0:00.832',1.75016691
'0:00.836',6.0931737
'0:00.840',13.87169332
'0:00.844',14.97365026
'0:00.848',8.49155058
'0:00.852',18.73326808
'0:00.855',20.87236098
'0:00.859',28.19713362
'0:00.863',15.75150223
'0:00.867',10.88992747
'0:00.871',4.1485438
'0:00.875',3.88925981
'0:00.879',10.1120755
'0:00.883',14.39026129
'0:00.887',11.21403245
'0:00.891',-9.85279152
'0:00.895',-25.73393574
'0:00.898',-21.71503393
'0:00.902',-19.57594104
'0:00.906',-22.23360191
'0:00.910',-10.37135949
'0:00.914',-10.63064348
'0:00.918',-21.71503393
'0:00.922',-2.85212386
'0:00.926',-21.71503393
'0:00.930',-9.85279152
'0:00.934',-10.63064348
'0:00.938',-6.87102566
'0:00.941',11.99188441
'0:00.945',10.37135949
'0:00.949',22.4928859
'0:00.953',37.07761018
'0:00.957',40.31866002
'0:00.961',59.70013807
'0:00.965',58.92228611
'0:00.969',40.31866002
'0:00.973',54.83856331
'0:00.977',71.04381251
'0:00.980',88.28619767
'0:00.984',89.6474386
'0:00.988',89.90672259
'0:00.992',104.1673419
'0:00.996',117.9742142
'0:01.000',118.7520662
'0:01.004',121.733832
'0:01.008',122.770968
'0:01.012',135.9944513
'0:01.016',133.0126855
'0:01.020',149.4772187
'0:01.023',152.4589845
'0:01.027',154.3387934
'0:01.031',137.3556923
'0:01.035',119.2706341
'0:01.039',118.2334982
'0:01.043',103.1302059
'0:01.047',89.12887062
'0:01.051',88.80476564
'0:01.055',86.14710477
'0:01.059',84.26729586
'0:01.063',85.5637158
'0:01.066',72.66433743
'0:01.070',73.18290541
'0:01.074',70.20113955
'0:01.078',51.92161845
'0:01.082',38.11474613
'0:01.086',40.57794401
'0:01.090',39.73527105
'0:01.094',36.5590422
'0:01.098',20.09450901
'0:01.102',22.4928859
'0:01.105',8.49155058
'0:01.109',7.38959364
'0:01.113',-11.21403245
'0:01.117',-11.73260042
'0:01.121',-25.99321972
'0:01.125',-8.75083457
'0:01.129',-25.73393574
'0:01.133',-26.5766087
'0:01.137',-42.45775292
'0:01.141',-25.99321972
'0:01.145',-26.31732471
'0:01.148',-26.5766087
'0:01.152',-25.99321972
'0:01.156',-25.73393574
'0:01.160',-41.35579597
'0:01.164',-25.73393574
'0:01.168',-27.35446066
'0:01.172',-27.09517667
'0:01.176',-40.83722799
'0:01.180',-39.73527105
'0:01.184',-25.99321972
'0:01.188',-28.71570159
'0:01.191',-27.61374464
'0:01.195',-24.3726948
'0:01.199',-23.33555885
'0:01.203',-25.47465175
'0:01.207',-27.87302863
'0:01.211',-27.35446066
'0:01.215',-24.69679979
'0:01.219',-38.95741909
'0:01.223',-40.05937603
'0:01.227',-43.30042587
'0:01.230',-44.07827784
'0:01.234',-41.67990095
'0:01.238',-39.21670307
'0:01.242',-40.05937603
'0:01.246',-42.45775292
'0:01.250',-43.30042587
'0:01.254',-41.67990095
'0:01.258',-39.73527105
'0:01.262',-39.73527105
'0:01.266',-41.67990095
'0:01.270',-42.7170369
'0:01.273',-57.0424772
'0:01.277',-54.83856331
'0:01.281',-71.04381251
'0:01.285',-73.18290541
'0:01.289',-74.80343033
'0:01.293',-89.38815461
'0:01.297',-86.66567274
'0:01.301',-102.287533
'0:01.305',-104.4914469
'0:01.309',-91.26796352
'0:01.313',-91.00867953
'0:01.316',-87.5083457
'0:01.320',-85.30443181
'0:01.324',-71.56238049
'0:01.328',-59.70013807
'0:01.332',-59.44085408
'0:01.336',-39.47598706
'0:01.340',-21.45574995
'0:01.344',-23.33555885
'0:01.348',-10.1120755
'0:01.352',5.25050074
'0:01.355',23.33555885
'0:01.359',25.99321972
'0:01.363',26.5766087
'0:01.367',24.11341082
'0:01.371',37.85546214
'0:01.375',53.54214337
'0:01.379',56.19980424
'0:01.383',43.55970986
'0:01.387',42.97632089
'0:01.391',38.95741909
'0:01.395',36.81832619
'0:01.398',38.95741909
'0:01.402',42.45775292
'0:01.406',57.82032916
'0:01.410',54.31999533
'0:01.414',53.21803839
'0:01.418',55.68123627
'0:01.422',73.44218939
'0:01.426',72.66433743
'0:01.430',70.78452852
'0:01.434',70.20113955
'0:01.438',71.56238049
'0:01.441',88.28619767
'0:01.445',102.546817
'0:01.449',116.8722573
'0:01.453',102.546817
'0:01.457',105.5285828
'0:01.461',120.8911591
'0:01.465',101.768965
'0:01.469',54.83856331
'0:01.473',26.83589268
'0:01.477',-19.83522503
'0:01.480',-54.83856331
'0:01.484',-75.3219983
'0:01.488',-76.68323923
'0:01.492',-58.66300212
'0:01.496',-55.94052025
'0:01.500',-55.42195228
'0:01.504',-10.88992747
'0:01.508',47.57861166
'0:01.512',95.54614931
'0:01.516',164.8397949
'0:01.520',216.0483824
'0:01.523',215.7890984
'0:01.527',152.7182685
'0:01.531',91.78653149
'0:01.535',13.09384136
'0:01.539',-84.00801188
'0:01.543',-73.76629438
'0:01.547',-80.18357306
'0:01.551',-109.6123056
'0:01.555',-101.250397
'0:01.559',-84.52657985
'0:01.563',-75.90538727
'0:01.566',-34.6144123
'0:01.570',-0.38892598
'0:01.574',39.73527105
'0:01.578',59.95942206
'0:01.582',56.19980424
'0:01.586',35.19780127
'0:01.590',50.8196615
'0:01.594',54.31999533
'0:01.598',57.82032916
'0:01.602',56.45908823
'0:01.605',52.69947041
'0:01.609',66.44152174
'0:01.613',68.58061463
'0:01.617',72.66433743
'0:01.621',88.54548165
'0:01.625',100.1484401
'0:01.629',98.00934719
'0:01.633',100.991113
'0:01.637',105.0100148
'0:01.641',104.4914469
'0:01.645',85.04514782
'0:01.648',52.18090244
'0:01.652',23.59484284
'0:01.656',24.95608377
'0:01.660',21.45574995
'0:01.664',33.31799236
'0:01.668',49.19913658
'0:01.672',53.54214337
'0:01.676',41.67990095
'0:01.680',40.31866002
'0:01.684',19.57594104
'0:01.688',17.63131113
'0:01.691',35.45708526
'0:01.695',53.80142736
'0:01.699',38.6981351
'0:01.703',53.21803839
'0:01.707',50.8196615
'0:01.711',66.44152174
'0:01.715',68.58061463
'0:01.719',70.78452852
'0:01.723',70.20113955
'0:01.727',67.54347868
'0:01.730',81.80409798
'0:01.734',82.90605493
'0:01.738',85.88782078
'0:01.742',86.66567274
'0:01.746',84.26729586
'0:01.750',82.06338197
'0:01.754',67.02491071
'0:01.758',69.68257158
'0:01.762',69.94185557
'0:01.766',67.2841947
'0:01.770',65.40438579
'0:01.773',66.70080572
'0:01.777',68.90471962
'0:01.781',69.1640036
'0:01.785',67.2841947
'0:01.789',65.66366978
'0:01.793',66.18223775
'0:01.797',68.06204666
'0:01.801',53.21803839
'0:01.805',67.54347868
'0:01.809',49.19913658
'0:01.813',49.97698855
'0:01.816',51.92161845
'0:01.820',36.81832619
'0:01.824',35.97565323
'0:01.828',33.57727635
'0:01.832',32.73460339
'0:01.836',18.99255207
'0:01.840',21.13164496
'0:01.844',19.83522503
'0:01.848',1.49088293
'0:01.852',1.23159894
'0:01.855',-12.83455737
'0:01.859',4.1485438
'0:01.863',-13.35312534
'0:01.867',-14.13097731
'0:01.871',-14.13097731
'0:01.875',-13.35312534
'0:01.879',-12.83455737
'0:01.883',-13.09384136
'0:01.887',-13.87169332
'0:01.891',-14.13097731
'0:01.895',-28.71570159
'0:01.898',-12.51045239
'0:01.902',-14.13097731
'0:01.906',0.64820997
'0:01.910',-14.13097731
'0:01.914',-26.83589268
'0:01.918',-10.88992747
'0:01.922',-30.33622651
'0:01.926',-31.43818346
'0:01.930',-29.81765854
'0:01.934',-12.2511684
'0:01.938',-12.83455737
'0:01.941',1.49088293
'0:01.945',0.97231495
'0:01.949',2.85212386
'0:01.953',4.47264878
'0:01.957',-11.47331644
'0:01.961',-13.09384136
'0:01.965',-14.71436628
'0:01.969',-29.81765854
'0:01.973',-27.61374464
'0:01.977',-12.2511684
'0:01.980',-30.07694252
'0:01.984',-14.45508229
'0:01.988',-13.87169332
'0:01.992',3.11140785
'0:01.996',-12.2511684
'0:02.000',-11.99188441
'0:02.004',-13.09384136
'0:02.008',1.49088293
'0:02.012',1.49088293
'0:02.016',3.37069183
'0:02.020',20.09450901
'0:02.023',18.73326808
'0:02.027',17.63131113
'0:02.031',33.83656034
'0:02.035',65.66366978
'0:02.039',81.28553001
'0:02.043',113.3719234
'0:02.047',145.1990329
'0:02.051',145.9768848
'0:02.055',147.8566937
'0:02.059',132.7534015
'0:02.063',146.8195578
'0:02.066',159.2003682
'0:02.070',143.8377919
'0:02.074',163.478554
'0:02.078',164.3212269
'0:02.082',162.182134
'0:02.086',159.7189362
'0:02.090',144.3563599
'0:02.094',131.7162655
'0:02.098',132.2348335
'0:02.102',113.3719234
'0:02.105',95.28686532
'0:02.109',96.12953828
'0:02.113',82.06338197
'0:02.117',98.00934719
'0:02.121',64.56171283
'0:02.125',64.30242884
'0:02.129',64.04314486
'0:02.133',64.04314486
'0:02.137',64.04314486
'0:02.141',48.68056861
'0:02.145',33.57727635
'0:02.148',17.37202715
'0:02.152',0.38892598
'0:02.156',-0.64820997
'0:02.160',14.13097731
'0:02.164',14.39026129
'0:02.168',-14.71436628
'0:02.172',2.52801888
'0:02.176',-16.01078621
'0:02.180',-18.47398409
'0:02.184',-33.31799236
'0:02.188',-45.95808674
'0:02.191',-45.43951877
'0:02.195',-33.31799236
'0:02.199',-36.23493722
'0:02.203',-34.09584433
'0:02.207',-29.49355355
'0:02.211',-28.71570159
'0:02.215',-32.47531941
'0:02.219',-19.83522503
'0:02.223',-34.35512831
'0:02.227',-29.23426956
'0:02.230',-12.83455737
'0:02.234',-1.49088293
'0:02.238',-4.73193277
'0:02.242',-1.49088293
'0:02.246',34.35512831
'0:02.250',33.57727635
'0:02.254',15.75150223
'0:02.258',15.23293425
'0:02.262',0.38892598
'0:02.266',1.75016691
'0:02.270',-30.07694252
'0:02.273',-31.11407847
'0:02.277',-48.68056861
'0:02.281',-48.68056861
'0:02.285',-32.47531941
'0:02.289',-32.21603542
'0:02.293',-47.06004369
'0:02.297',-46.47665472
'0:02.301',-47.57861166
'0:02.305',-48.9398526
'0:02.309',-2.59283987
'0:02.313',44.07827784
'0:02.316',123.6136409
'0:02.320',218.7708643
'0:02.324',252.4777826
'0:02.328',212.0294806
'0:02.332',139.2355012
'0:02.336',73.18290541
'0:02.340',-45.95808674
'0:02.344',-66.70080572
'0:02.348',-98.78719915
'0:02.352',-202.88972
'0:02.355',-244.958547
'0:02.359',-222.0119141
'0:02.363',-204.18614
'0:02.367',-157.3205593
'0:02.371',-112.5292505
'0:02.375',-101.250397
'0:02.379',-103.9080579
'0:02.383',-100.6670081
'0:02.387',-91.00867953
'0:02.391',-67.02491071
'0:02.395',-55.42195228
'0:02.398',-38.95741909
'0:02.402',-34.09584433
'0:02.406',-40.83722799
'0:02.410',-3.37069183
'0:02.414',6.35245769
'0:02.418',8.75083457
'0:02.422',17.11274316
'0:02.426',24.95608377
'0:02.430',27.61374464
'0:02.434',37.33689417
'0:02.438',41.09651198
'0:02.441',34.6144123
'0:02.445',26.83589268
'0:02.449',43.30042587
'0:02.453',50.56037752
'0:02.457',55.68123627
'0:02.461',52.18090244
'0:02.465',45.18023478
'0:02.469',28.19713362
'0:02.473',34.09584433
'0:02.477',38.11474613
'0:02.480',34.93851728
'0:02.484',29.49355355
'0:02.488',28.71570159
'0:02.492',32.99388738
'0:02.496',36.81832619
'0:02.500',34.93851728
'0:02.504',30.33622651
'0:02.508',28.97498558
'0:02.512',32.47531941
'0:02.516',35.71636925
'0:02.520',34.93851728
'0:02.523',15.49221824
'0:02.527',14.39026129
'0:02.531',0.38892598
'0:02.535',-12.51045239
'0:02.539',-13.09384136
'0:02.543',-16.85345917
'0:02.547',-3.37069183
'0:02.551',-16.85345917
'0:02.555',-27.61374464
'0:02.559',-11.73260042
'0:02.563',-17.37202715
'0:02.566',-20.09450901
'0:02.570',29.49355355
'0:02.574',32.73460339
'0:02.578',35.71636925
'0:02.582',34.35512831
'0:02.586',46.21737073
'0:02.590',59.95942206
'0:02.594',63.2004719
'0:02.598',67.54347868
'0:02.602',67.54347868
'0:02.605',78.88715313
'0:02.609',91.00867953
'0:02.613',93.40705641
'0:02.617',99.37058812
'0:02.621',100.4077241
'0:02.625',111.4921145
'0:02.629',106.6305398
'0:02.633',109.0289167
'0:02.637',114.4090594
'0:02.641',116.0295843
'0:02.645',96.12953828
'0:02.648',92.30509947
'0:02.652',92.62920445
'0:02.656',96.12953828
'0:02.660',98.00934719
'0:02.664',80.44285705
'0:02.668',77.52591219
'0:02.672',61.061379
'0:02.676',47.83789565
'0:02.680',49.45842057
'0:02.684',47.31932768
'0:02.688',28.71570159
'0:02.691',29.23426956
'0:02.695',30.85479449
'0:02.699',31.69746744
'0:02.703',30.5955105
'0:02.707',44.33756182
'0:02.711',44.07827784
'0:02.715',46.47665472
'0:02.719',32.73460339
'0:02.723',32.21603542
'0:02.727',13.35312534
'0:02.730',12.2511684
'0:02.734',28.71570159
'0:02.738',14.71436628
'0:02.742',16.01078621
'0:02.746',14.71436628
'0:02.750',42.97632089
'0:02.754',42.19846893
'0:02.758',30.5955105
'0:02.762',-11.99188441
'0:02.766',-13.09384136
'0:02.770',-20.87236098
'0:02.773',-9.59350753
'0:02.777',10.1120755
'0:02.781',2.0094509
'0:02.785',19.83522503
'0:02.789',13.09384136
'0:02.793',23.07627487
'0:02.797',25.47465175
'0:02.801',32.99388738
'0:02.805',20.353793
'0:02.809',15.49221824
'0:02.813',-6.87102566
'0:02.816',9.01011856
'0:02.820',-1.49088293
'0:02.824',18.47398409
'0:02.828',-0.12964199
'0:02.832',10.37135949
'0:02.836',-6.61174168
'0:02.840',-1.75016691
'0:02.844',1.75016691
'0:02.848',-0.38892598
'0:02.852',-20.61307699
'0:02.855',-21.19646596
'0:02.859',-33.57727635
'0:02.863',-30.85479449
'0:02.867',-32.99388738
'0:02.871',-36.81832619
'0:02.875',-52.69947041
'0:02.879',-49.19913658
'0:02.883',-47.57861166
'0:02.887',-49.71770456
'0:02.891',-52.44018643
'0:02.895',-52.18090244
'0:02.898',-49.45842057
'0:02.902',-47.83789565
'0:02.906',-49.19913658
'0:02.910',-67.02491071
'0:02.914',-82.38748695
'0:02.918',-65.0802808
'0:02.922',-81.28553001
'0:02.926',-81.544814
'0:02.930',-66.70080572
'0:02.934',-82.64677094
'0:02.938',-80.76696203
'0:02.941',-79.92428908
'0:02.945',-65.92295376
'0:02.949',-67.80276267
'0:02.953',-66.18223775
'0:02.957',-63.78386087
'0:02.961',-63.2004719
'0:02.965',-65.0802808
'0:02.969',-51.33822948
'0:02.973',-66.44152174
'0:02.977',-47.57861166
'0:02.980',-47.06004369
'0:02.984',-48.9398526
'0:02.988',-65.66366978
'0:02.992',-64.56171283
'0:02.996',-63.45975588
'0:03.000',-64.04314486
'0:03.004',-65.0802808
'0:03.008',-65.40438579
'0:03.012',-64.30242884
'0:03.016',-78.88715313
'0:03.020',-78.56304814
'0:03.023',-80.44285705
'0:03.027',-81.80409798
'0:03.031',-96.12953828
'0:03.035',-93.92562439
'0:03.039',-94.50901336
'0:03.043',-112.0106825
'0:03.047',-97.16667423
'0:03.051',-112.2699665
'0:03.055',-79.14643711
'0:03.059',-64.30242884
'0:03.063',-64.82099682
'0:03.066',-63.2004719
'0:03.070',-61.57994698
'0:03.074',-61.90405196
'0:03.078',-48.09717964
'0:03.082',-49.19913658
'0:03.086',-16.3348912
'0:03.090',16.01078621
'0:03.094',32.21603542
'0:03.098',64.04314486
'0:03.102',48.9398526
'0:03.105',35.71636925
'0:03.109',35.71636925
'0:03.113',32.73460339
'0:03.117',30.5955105
'0:03.121',16.59417519
'0:03.125',4.47264878
'0:03.129',4.47264878
'0:03.133',15.49221824
'0:03.137',12.2511684
'0:03.141',30.85479449
'0:03.145',19.83522503
'0:03.148',37.07761018
'0:03.152',32.21603542
'0:03.156',44.33756182
'0:03.160',107.7324967
'0:03.164',172.9424195
'0:03.168',238.7357313
'0:03.172',333.3743866
'0:03.176',333.0502817
'0:03.180',260.8396912
'0:03.184',142.476551
'0:03.188',61.061379
'0:03.191',-46.8007597
'0:03.195',-71.56238049
'0:03.199',-55.16266829
'0:03.203',-109.0289167
'0:03.207',-148.1159777
'0:03.211',-123.3543569
'0:03.215',-92.04581548
'0:03.219',-48.42128462
'0:03.223',12.2511684
'0:03.227',41.93918494
'0:03.230',41.09651198
'0:03.234',13.35312534
'0:03.238',-24.69679979
'0:03.242',-48.68056861
'0:03.246',-24.11341082
'0:03.250',-27.35446066
'0:03.254',-20.87236098
'0:03.258',-24.3726948
'0:03.262',-1.49088293
'0:03.266',21.45574995
'0:03.270',4.99121675
'0:03.273',-1.23159894
'0:03.277',-5.25050074
'0:03.281',13.09384136
'0:03.285',2.85212386
'0:03.289',5.25050074
'0:03.293',0.64820997
'0:03.297',-4.47264878
'0:03.301',-18.99255207
'0:03.305',-13.35312534
'0:03.309',3.88925981
'0:03.313',-0.64820997
'0:03.316',-4.1485438
'0:03.320',-2.0094509
'0:03.324',2.52801888
'0:03.328',3.37069183
'0:03.332',-0.12964199
'0:03.336',-3.11140785
'0:03.340',-2.0094509
'0:03.344',1.75016691
'0:03.348',-12.51045239
'0:03.352',0.64820997
'0:03.355',-18.73326808
'0:03.359',-17.95541612
'0:03.363',-14.71436628
'0:03.367',2.0094509
'0:03.371',-16.01078621
'0:03.375',-17.11274316
'0:03.379',-16.85345917
'0:03.383',-15.49221824
'0:03.387',0.38892598
'0:03.391',-0.64820997
'0:03.395',-0.97231495
'0:03.398',0.38892598
'0:03.402',-14.45508229
'0:03.406',-29.81765854
'0:03.410',-31.43818346
'0:03.414',-48.9398526
'0:03.418',-32.99388738
'0:03.422',-32.21603542
'0:03.426',-31.11407847
'0:03.430',-15.49221824
'0:03.434',-16.85345917
'0:03.438',-1.23159894
'0:03.441',15.23293425
'0:03.445',62.68190392
'0:03.449',78.04448017
'0:03.453',79.92428908
'0:03.457',51.33822948
'0:03.461',21.13164496
'0:03.465',17.63131113
'0:03.469',27.87302863
'0:03.473',88.80476564
'0:03.477',138.9762172
'0:03.480',161.0801771
'0:03.484',164.8397949
'0:03.488',115.7703003
'0:03.492',65.66366978
'0:03.496',16.59417519
'0:03.500',16.01078621
'0:03.504',61.061379
'0:03.508',89.90672259
'0:03.512',61.83923096
'0:03.516',22.4928859
'0:03.520',-23.33555885
'0:03.523',-16.3348912
'0:03.527',20.09450901
'0:03.531',36.81832619
'0:03.535',80.76696203
'0:03.539',72.92362142
'0:03.543',22.4928859
'0:03.547',-33.83656034
'0:03.551',-38.6981351
'0:03.555',-36.23493722
'0:03.559',-14.71436628
'0:03.563',2.0094509
'0:03.566',-2.0094509
'0:03.570',-4.47264878
'0:03.574',-17.95541612
'0:03.578',-29.23426956
'0:03.582',-60.28352704
'0:03.586',-79.66500509
'0:03.590',-99.62987211
'0:03.594',-84.00801188
'0:03.598',-96.64810625
'0:03.602',-108.7696327
'0:03.605',-125.2341659
'0:03.609',-129.5123516
'0:03.613',-132.4941175
'0:03.617',-130.3550246
'0:03.621',-126.0120178
'0:03.625',-94.24972937
'0:03.629',-98.26863118
'0:03.633',-99.37058812
'0:03.637',-95.87025429
'0:03.641',-108.2510647
'0:03.645',-77.78519618
'0:03.648',-67.54347868
'0:03.652',-68.32133065
'0:03.656',-62.68190392
'0:03.660',-58.33889714
'0:03.664',-45.18023478
'0:03.668',-51.07894549
'0:03.672',-51.33822948
'0:03.676',-30.85479449
'0:03.680',-11.99188441
'0:03.684',1.75016691
'0:03.688',-1.75016691
'0:03.691',-1.23159894
'0:03.695',2.26873489
'0:03.699',19.57594104
'0:03.703',16.85345917
'0:03.707',30.33622651
'0:03.711',30.85479449
'0:03.715',49.71770456
'0:03.719',35.45708526
'0:03.723',34.93851728
'0:03.727',16.59417519
'0:03.730',31.11407847
'0:03.734',31.69746744
'0:03.738',18.47398409
'0:03.742',4.47264878
'0:03.746',17.63131113
'0:03.750',28.97498558
'0:03.754',28.97498558
'0:03.758',18.47398409
'0:03.762',22.23360191
'0:03.766',3.37069183
'0:03.770',-2.0094509
'0:03.773',11.99188441
'0:03.777',30.85479449
'0:03.781',50.8196615
'0:03.785',35.71636925
'0:03.789',2.52801888
'0:03.793',-14.97365026
'0:03.797',-31.69746744
'0:03.801',-0.64820997
'0:03.805',-1.23159894
'0:03.809',-14.71436628
'0:03.813',-28.19713362
'0:03.816',1.75016691
'0:03.820',43.30042587
'0:03.824',57.82032916
'0:03.828',49.19913658
'0:03.832',-20.87236098
'0:03.836',-52.9587544
'0:03.840',-80.44285705
'0:03.844',-89.38815461
'0:03.848',-54.06071135
'0:03.852',-28.4564176
'0:03.855',-23.85412683
'0:03.859',-13.61240933
'0:03.863',-21.71503393
'0:03.867',-20.87236098
'0:03.871',-12.83455737
'0:03.875',-23.85412683
'0:03.879',-27.87302863
'0:03.883',-35.71636925
'0:03.887',-37.07761018
'0:03.891',-30.5955105
'0:03.895',-25.21536776
'0:03.898',-27.61374464
'0:03.902',-18.73326808
'0:03.906',-21.19646596
'0:03.910',-15.49221824
'0:03.914',-9.59350753
'0:03.918',-26.31732471
'0:03.922',-32.21603542
'0:03.926',-35.97565323
'0:03.930',-32.73460339
'0:03.934',-27.35446066
'0:03.938',-11.21403245
'0:03.941',-0.64820997
'0:03.945',-3.88925981
'0:03.949',0.12964199
'0:03.953',-10.1120755
'0:03.957',-25.21536776
'0:03.961',-30.5955105
'0:03.965',-51.07894549
'0:03.969',-48.9398526
'0:03.973',-44.07827784
'0:03.977',-42.7170369
'0:03.980',-31.11407847
'0:03.984',-34.93851728
'0:03.988',-32.73460339
'0:03.992',-27.61374464
'0:03.996',-26.5766087
'0:04.000',-30.33622651
'0:04.004',-2.85212386
'0:04.008',59.18157009
'0:04.012',109.6123056
'0:04.016',192.6480025
'0:04.020',224.99368
'0:04.023',178.9059512
'0:04.027',73.44218939
'0:04.031',-18.73326808
'0:04.035',-119.2706341
'0:04.039',-160.5616091
'0:04.043',-104.4914469
'0:04.047',-86.92495673
'0:04.051',-137.6149762
'0:04.055',-129.5123516
'0:04.059',-123.3543569
'0:04.063',-91.26796352
'0:04.066',-60.54281103
'0:04.070',-29.49355355
'0:04.074',-17.11274316
'0:04.078',-22.23360191
'0:04.082',-36.81832619
'0:04.086',-57.0424772
'0:04.090',-46.21737073
'0:04.094',-35.71636925
'0:04.098',-39.21670307
'0:04.102',-35.45708526
'0:04.105',-55.68123627
'0:04.109',-61.57994698
'0:04.113',-67.54347868
'0:04.117',-70.52524454
'0:04.121',-67.02491071
'0:04.125',-72.40505344
'0:04.129',-63.45975588
'0:04.133',-37.33689417
'0:04.137',-23.33555885
'0:04.141',-18.21470011
'0:04.145',-22.23360191
'0:04.148',0.97231495
'0:04.152',24.95608377
'0:04.156',23.85412683
'0:04.160',32.21603542
'0:04.164',43.30042587
'0:04.168',78.88715313
'0:04.172',101.509681
'0:04.176',103.9080579
'0:04.180',99.62987211
'0:04.184',110.1308736
'0:04.188',94.76829735
'0:04.191',100.991113
'0:04.195',103.3894899
'0:04.199',99.37058812
'0:04.203',94.24972937
'0:04.207',94.50901336
'0:04.211',114.7331644
'0:04.215',132.4941175
'0:04.219',176.4427533
'0:04.223',188.0457118
'0:04.227',159.9782202
'0:04.230',120.6318751
'0:04.234',75.06271431
'0:04.238',51.07894549
'0:04.242',103.3894899
'0:04.246',179.1652352
'0:04.250',189.6662367
'0:04.254',126.5954068
'0:04.258',4.1485438
'0:04.262',-41.35579597
'0:04.266',-45.69880276
'0:04.270',-47.57861166
'0:04.273',16.85345917
'0:04.277',44.59684581
'0:04.281',23.59484284
'0:04.285',10.1120755
'0:04.289',21.13164496
'0:04.293',45.18023478
'0:04.297',40.57794401
'0:04.301',40.83722799
'0:04.305',45.43951877
'0:04.309',37.59617815
'0:04.313',43.81899385
'0:04.316',70.20113955
'0:04.320',86.66567274
'0:04.324',78.04448017
'0:04.328',57.0424772
'0:04.332',30.85479449
'0:04.336',7.97298261
'0:04.340',-8.49155058
'0:04.344',-18.47398409
'0:04.348',-40.57794401
'0:04.352',-19.83522503
'0:04.355',-27.35446066
'0:04.359',-25.47465175
'0:04.363',-17.11274316
'0:04.367',-24.11341082
'0:04.371',-20.61307699
'0:04.375',-27.35446066
'0:04.379',-24.69679979
'0:04.383',-31.95675143
'0:04.387',-8.2322666
'0:04.391',54.57927932
'0:04.395',78.30376416
'0:04.398',25.21536776
'0:04.402',-51.07894549
'0:04.406',-123.095073
'0:04.410',-119.2706341
'0:04.414',-91.78653149
'0:04.418',-67.2841947
'0:04.422',-40.83722799
'0:04.426',-56.45908823
'0:04.430',-65.0802808
'0:04.434',-102.611638
'0:04.438',-97.7500632
'0:04.441',-75.64610329
'0:04.445',-14.13097731
'0:04.449',86.92495673
'0:04.453',115.5110163
'0:04.457',66.44152174
'0:04.461',-12.2511684
'0:04.465',-93.92562439
'0:04.469',-145.9768848
'0:04.473',-145.1990329
'0:04.477',-91.26796352
'0:04.480',4.1485438
'0:04.484',72.40505344
'0:04.488',64.04314486
'0:04.492',11.21403245
'0:04.496',-61.32066299
'0:04.500',-100.1484401
'0:04.504',-104.1673419
'0:04.508',-86.40638876
'0:04.512',-76.42395525
'0:04.516',-50.30109353
'0:04.520',-22.23360191
'0:04.523',-7.38959364
'0:04.527',-34.35512831
'0:04.531',-39.21670307
'0:04.535',-33.31799236
'0:04.539',6.35245769
'0:04.543',36.23493722
'0:04.547',60.28352704
'0:04.551',73.44218939
'0:04.555',65.0802808
'0:04.559',26.5766087
'0:04.563',10.1120755
'0:04.566',44.8561298
'0:04.570',67.02491071
'0:04.574',28.19713362
'0:04.578',-16.85345917
'0:04.582',-30.5955105
'0:04.586',-2.85212386
'0:04.590',11.99188441
'0:04.594',36.81832619
'0:04.598',28.97498558
'0:04.602',21.71503393
'0:04.605',-27.09517667
'0:04.609',-31.11407847
'0:04.613',-30.07694252
'0:04.617',-10.1120755
'0:04.621',1.75016691
'0:04.625',-9.01011856
'0:04.629',-26.83589268
'0:04.633',-59.18157009
'0:04.637',-42.97632089
'0:04.641',-17.95541612
'0:04.645',-42.45775292
'0:04.648',-24.69679979
'0:04.652',-11.47331644
'0:04.656',1.49088293
'0:04.660',-2.59283987
'0:04.664',-21.97431792
'0:04.668',-51.33822948
'0:04.672',-57.30176119
'0:04.676',-34.35512831
'0:04.680',-8.75083457
'0:04.684',-8.2322666
'0:04.688',-0.64820997
'0:04.691',8.75083457
'0:04.695',28.4564176
'0:04.699',37.33689417
'0:04.703',40.57794401
'0:04.707',34.09584433
'0:04.711',42.7170369
'0:04.715',28.19713362
'0:04.719',36.5590422
'0:04.723',40.05937603
'0:04.727',65.0802808
'0:04.730',57.56104517
'0:04.734',75.64610329
'0:04.738',83.68390689
'0:04.742',72.40505344
'0:04.746',67.80276267
'0:04.750',44.33756182
'0:04.754',28.19713362
'0:04.758',18.99255207
'0:04.762',69.1640036
'0:04.766',109.6123056
'0:04.770',120.1133071
'0:04.773',94.50901336
'0:04.777',27.09517667
'0:04.781',-17.95541612
'0:04.785',30.5955105
'0:04.789',46.47665472
'0:04.793',99.04648314
'0:04.797',102.870922
'0:04.801',113.1126395
'0:04.805',147.0788418
'0:04.809',159.2003682
'0:04.813',114.7331644
'0:04.816',28.71570159
'0:04.820',-67.54347868
'0:04.824',-131.9755495
'0:04.828',-69.42328759
'0:04.832',-0.64820997
'0:04.836',-35.19780127
'0:04.840',-79.14643711
'0:04.844',-116.0295843
'0:04.848',-125.2341659
'0:04.852',-117.3908252
'0:04.855',-78.56304814
'0:04.859',21.71503393
'0:04.863',40.31866002
'0:04.867',-4.47264878
'0:04.871',-55.42195228
'0:04.875',-41.67990095
'0:04.879',-32.21603542
'0:04.883',-28.19713362
'0:04.887',-49.71770456
'0:04.891',-51.92161845
'0:04.895',-12.83455737
'0:04.898',24.3726948
'0:04.902',32.99388738
'0:04.906',35.19780127
'0:04.910',33.57727635
'0:04.914',20.09450901
'0:04.918',23.33555885
'0:04.922',17.11274316
'0:04.926',5.25050074
'0:04.930',-12.2511684
'0:04.934',-12.51045239
'0:04.938',18.73326808
'0:04.941',28.97498558
'0:04.945',21.97431792
'0:04.949',23.59484284
'0:04.953',4.99121675
'0:04.957',17.37202715
'0:04.961',27.09517667
'0:04.965',6.35245769
'0:04.969',-5.50978473
'0:04.973',6.0931737
'0:04.977',13.87169332
'0:04.980',8.49155058
'0:04.984',-7.38959364
'0:04.988',-17.63131113
'0:04.992',-9.59350753
'0:04.996',-5.50978473
'0:05.000',5.25050074
'0:05.004',8.49155058
'0:05.008',16.01078621
'0:05.012',22.75216988
'0:05.016',25.47465175
'0:05.020',20.87236098
'0:05.023',25.73393574
'0:05.027',33.31799236
'0:05.031',23.07627487
'0:05.035',24.95608377
'0:05.039',51.07894549
'0:05.043',55.42195228
'0:05.047',49.97698855
'0:05.051',57.56104517
'0:05.055',57.0424772
'0:05.059',65.0802808
'0:05.063',86.14710477
'0:05.066',81.80409798
'0:05.070',59.44085408
'0:05.074',28.71570159
'0:05.078',18.99255207
'0:05.082',20.87236098
'0:05.086',15.23293425
'0:05.090',10.1120755
'0:05.094',11.73260042
'0:05.098',17.63131113
'0:05.102',19.83522503
'0:05.105',31.43818346
'0:05.109',26.25250371
'0:05.113',27.87302863
'0:05.117',33.57727635
'0:05.121',20.09450901
'0:05.125',1.23159894
'0:05.129',-3.62997582
'0:05.133',-20.353793
'0:05.137',-16.3348912
'0:05.141',-13.61240933
'0:05.145',-15.49221824
'0:05.148',-34.93851728
'0:05.152',-50.30109353
'0:05.156',-78.56304814
'0:05.160',-92.30509947
'0:05.164',-80.44285705
'0:05.168',-85.6285368
'0:05.172',-84.52657985
'0:05.176',-78.88715313
'0:05.180',-60.80209501
'0:05.184',-64.56171283
'0:05.188',-52.69947041
'0:05.191',-36.5590422
'0:05.195',-16.3348912
'0:05.199',-13.09384136
'0:05.203',-14.13097731
'0:05.207',-2.26873489
'0:05.211',11.47331644
'0:05.215',45.18023478
'0:05.219',79.92428908
'0:05.223',81.28553001
'0:05.227',80.76696203
'0:05.230',94.76829735
'0:05.234',109.0289167
'0:05.238',125.7527338
'0:05.242',159.2003682
'0:05.246',159.7189362
'0:05.250',129.2530677
'0:05.254',83.16533892
'0:05.258',35.45708526
'0:05.262',16.3348912
'0:05.266',27.61374464
'0:05.270',41.93918494
'0:05.273',45.69880276
'0:05.277',65.92295376
'0:05.281',64.82099682
'0:05.285',45.69880276
'0:05.289',59.70013807
'0:05.293',91.78653149
'0:05.297',78.56304814
'0:05.301',50.8196615
'0:05.305',19.57594104
'0:05.309',-16.3348912
'0:05.313',-20.353793
'0:05.316',-21.19646596
'0:05.320',-17.95541612
'0:05.324',-14.71436628
'0:05.328',-0.64820997
'0:05.332',-20.09450901
'0:05.336',-35.19780127
'0:05.340',-32.21603542
'0:05.344',-16.3348912
'0:05.348',-34.35512831
'0:05.352',-35.19780127
'0:05.355',-34.09584433
'0:05.359',-48.09717964
'0:05.363',-47.83789565
'0:05.367',-50.04180954
'0:05.371',-51.59751347
'0:05.375',-50.56037752
'0:05.379',-48.42128462
'0:05.383',-47.83789565
'0:05.387',-49.45842057
'0:05.391',-50.8196615
'0:05.395',-65.92295376
'0:05.398',-63.78386087
'0:05.402',-63.78386087
'0:05.406',-50.56037752
'0:05.410',-51.92161845
'0:05.414',-49.71770456
'0:05.418',-46.8007597
'0:05.422',-47.06004369
'0:05.426',-49.71770456
'0:05.430',-35.71636925
'0:05.434',-50.04180954
'0:05.438',-46.21737073
'0:05.441',-45.95808674
'0:05.445',-49.19913658
'0:05.449',-51.59751347
'0:05.453',-34.6144123
'0:05.457',-47.31932768
'0:05.461',-45.18023478
'0:05.465',-62.94118791
'0:05.469',-50.56037752
'0:05.473',-51.92161845
'0:05.477',-33.31799236
'0:05.480',-45.69880276
'0:05.484',-29.81765854
'0:05.488',-48.9398526
'0:05.492',-65.66366978
'0:05.496',-79.14643711
'0:05.500',-62.16333595
'0:05.504',-64.30242884
'0:05.508',-50.56037752
'0:05.512',-50.04180954
'0:05.516',-62.16333595
'0:05.520',-59.95942206
'0:05.523',-62.94118791
'0:05.527',-66.44152174
'0:05.531',-66.18223775
'0:05.535',-31.69746744
'0:05.539',0.38892598
'0:05.543',-0.38892598
'0:05.547',-15.23293425
'0:05.551',-75.3219983
'0:05.555',-105.0100148
'0:05.559',-94.50901336
'0:05.563',-85.88782078
'0:05.566',-69.42328759
'0:05.570',-61.57994698
'0:05.574',-56.19980424
'0:05.578',-59.70013807
'0:05.582',-51.59751347
'0:05.586',-22.4928859
'0:05.590',29.81765854
'0:05.594',36.23493722
'0:05.598',54.31999533
'0:05.602',64.56171283
'0:05.605',121.733832
'0:05.609',215.0112464
'0:05.613',284.0456081
'0:05.617',277.5635084
'0:05.621',204.769529
'0:05.625',91.78653149
'0:05.629',19.57594104
'0:05.633',-35.97565323
'0:05.637',-4.99121675
'0:05.641',-16.3348912
'0:05.645',-72.66433743
'0:05.648',-72.40505344
'0:05.652',-51.07894549
'0:05.656',-27.35446066
'0:05.660',24.69679979
'0:05.664',98.00934719
'0:05.668',86.40638876
'0:05.672',37.33689417
'0:05.676',0.97231495
'0:05.680',-49.19913658
'0:05.684',-63.2004719
'0:05.688',-61.90405196
'0:05.691',-63.45975588
'0:05.695',-65.66366978
'0:05.699',-81.02624602
'0:05.703',-78.30376416
'0:05.707',-62.42261994
'0:05.711',-49.45842057
'0:05.715',-50.56037752
'0:05.719',-63.2004719
'0:05.723',-75.06271431
'0:05.727',-61.061379
'0:05.730',-66.44152174
'0:05.734',-52.18090244
'0:05.738',-17.37202715
'0:05.742',2.0094509
'0:05.746',3.11140785
'0:05.750',1.49088293
'0:05.754',-16.3348912
'0:05.758',-15.49221824
'0:05.762',1.23159894
'0:05.766',31.69746744
'0:05.770',76.94252322
'0:05.773',108.7696327
'0:05.777',112.8533555
'0:05.781',86.14710477
'0:05.785',70.52524454
'0:05.789',79.66500509
'0:05.793',120.3725911
'0:05.797',137.8742602
'0:05.801',162.700702
'0:05.805',136.8371243
'0:05.809',102.287533
'0:05.813',62.68190392
'0:05.816',58.92228611
'0:05.820',77.26662821
'0:05.824',112.8533555
'0:05.828',113.6312074
'0:05.832',96.64810625
'0:05.836',48.68056861
'0:05.840',33.83656034
'0:05.844',78.56304814
'0:05.848',120.8911591
'0:05.852',121.993116
'0:05.855',145.1990329
'0:05.859',148.9586507
'0:05.863',113.8904914
'0:05.867',78.04448017
'0:05.871',45.69880276
'0:05.875',32.47531941
'0:05.879',32.99388738
'0:05.883',-0.64820997
'0:05.887',-32.99388738
'0:05.891',-17.63131113
'0:05.895',11.99188441
'0:05.898',26.83589268
'0:05.902',29.81765854
'0:05.906',33.31799236
'0:05.910',63.78386087
'0:05.914',90.16600657
'0:05.918',89.12887062
'0:05.922',48.68056861
'0:05.926',8.2322666
'0:05.930',34.93851728
'0:05.934',130.6143086
'0:05.938',171.8404626
'0:05.941',110.1308736
'0:05.945',37.59617815
'0:05.949',-59.70013807
'0:05.953',-101.768965
'0:05.957',-121.2152641
'0:05.961',-64.30242884
'0:05.965',-24.95608377
'0:05.969',-0.97231495
'0:05.973',-16.01078621
'0:05.977',-48.42128462
'0:05.980',-75.3219983
'0:05.984',-73.44218939
'0:05.988',-51.92161845
'0:05.992',-50.30109353
'0:05.996',-64.04314486
'0:06.000',-43.30042587
'0:06.004',-27.61374464
'0:06.008',-36.5590422
'0:06.012',-46.21737073
'0:06.016',-44.33756182
'0:06.020',-59.70013807
'0:06.023',-45.95808674
'0:06.027',-22.4928859
'0:06.031',-30.5955105
'0:06.035',-57.30176119
'0:06.039',-56.71837222
'0:06.043',-47.06004369
'0:06.047',-41.35579597
'0:06.051',-46.47665472
'0:06.055',-54.83856331
'0:06.059',-55.68123627
'0:06.063',-48.09717964
'0:06.066',-42.7170369
'0:06.070',-45.95808674
'0:06.074',-52.9587544
'0:06.078',-39.21670307
'0:06.082',-34.09584433
'0:06.086',-27.87302863
'0:06.090',-28.71570159
'0:06.094',-34.93851728
'0:06.098',-22.4928859
'0:06.102',-19.25183605
'0:06.105',2.26873489
'0:06.109',18.47398409
'0:06.113',13.87169332
'0:06.117',-3.88925981
'0:06.121',-16.3348912
'0:06.125',-12.83455737
'0:06.129',-14.71436628
'0:06.133',-18.99255207
'0:06.137',-35.45708526
'0:06.141',-16.3348912
'0:06.145',16.3348912
'0:06.148',14.39026129
'0:06.152',-32.21603542
'0:06.156',-60.54281103
'0:06.160',-76.42395525
'0:06.164',-96.64810625
'0:06.168',-100.1484401
'0:06.172',-98.78719915
'0:06.176',-94.76829735
'0:06.180',-93.14777243
'0:06.184',-95.87025429
'0:06.188',-83.4246229
'0:06.191',-83.16533892
'0:06.195',-79.14643711
'0:06.199',-61.061379
'0:06.203',-48.09717964
'0:06.207',-66.44152174
'0:06.211',-64.56171283
'0:06.215',-61.57994698
'0:06.219',-61.32066299
'0:06.223',-64.04314486
'0:06.227',-65.66366978
'0:06.230',-33.57727635
'0:06.234',-31.95675143
'0:06.238',-14.13097731
'0:06.242',-45.43951877
'0:06.246',-61.061379
'0:06.250',-78.30376416
'0:06.254',-79.92428908
'0:06.258',-64.82099682
'0:06.262',-48.68056861
'0:06.266',-16.01078621
'0:06.270',15.75150223
'0:06.273',31.69746744
'0:06.277',48.68056861
'0:06.281',49.71770456
'0:06.285',50.56037752
'0:06.289',65.0802808
'0:06.293',63.45975588
'0:06.297',64.30242884
'0:06.301',81.80409798
'0:06.305',97.16667423
'0:06.309',95.87025429
'0:06.313',80.76696203
'0:06.316',82.38748695
'0:06.320',66.44152174
'0:06.324',64.82099682
'0:06.328',78.56304814
'0:06.332',78.30376416
'0:06.336',81.02624602
'0:06.340',67.2841947
'0:06.344',66.44152174
'0:06.348',78.30376416
'0:06.352',60.80209501
'0:06.355',64.56171283
'0:06.359',51.92161845
'0:06.363',50.56037752
'0:06.367',30.5955105
'0:06.371',-1.75016691
'0:06.375',0.97231495
'0:06.379',-13.61240933
'0:06.383',-15.23293425
'0:06.387',-18.21470011
'0:06.391',-18.73326808
'0:06.395',-16.01078621
'0:06.398',-14.13097731
'0:06.402',-14.97365026
'0:06.406',-17.63131113
'0:06.410',28.19713362
'0:06.414',74.80343033
'0:06.418',140.0781741
'0:06.422',236.0132494
'0:06.426',283.4622191
'0:06.430',255.9781164
'0:06.434',168.5994127
'0:06.438',122.511684
'0:06.441',18.99255207
'0:06.445',-20.353793
'0:06.449',-37.59617815
'0:06.453',-110.1308736
'0:06.457',-135.4758834
'0:06.461',-125.7527338
'0:06.465',-91.00867953
'0:06.469',-62.16333595
'0:06.473',-34.6144123
'0:06.477',-22.75216988
'0:06.480',-9.59350753
'0:06.484',-22.23360191
'0:06.488',-27.35446066
'0:06.492',-3.11140785
'0:06.496',-8.75083457
'0:06.500',-24.3726948
'0:06.504',-34.09584433
'0:06.508',-41.67990095
'0:06.512',-37.33689417
'0:06.516',-27.61374464
'0:06.520',-25.21536776
'0:06.523',-48.09717964
'0:06.527',-54.57927932
'0:06.531',-22.23360191
'0:06.535',-0.64820997
'0:06.539',19.25183605
'0:06.543',2.26873489
'0:06.547',-32.47531941
'0:06.551',-33.83656034
'0:06.555',-33.31799236
'0:06.559',-62.94118791
'0:06.563',-107.7324967
'0:06.566',-93.6663404
'0:06.570',-115.2517323
'0:06.574',-131.7162655
'0:06.578',-96.38882227
'0:06.582',-17.37202715
'0:06.586',-19.83522503
'0:06.590',-32.47531941
'0:06.594',-43.30042587
'0:06.598',-43.81899385
'0:06.602',-33.83656034
'0:06.605',-52.9587544
'0:06.609',-48.42128462
'0:06.613',-74.28486235
'0:06.617',-74.28486235
'0:06.621',-81.28553001
'0:06.625',-39.47598706
'0:06.629',-21.71503393
'0:06.633',2.85212386
'0:06.637',7.13030965
'0:06.641',49.19913658
'0:06.645',102.870922
'0:06.648',119.0113502
'0:06.652',115.5110163
'0:06.656',62.68190392
'0:06.660',26.83589268
'0:06.664',11.21403245
'0:06.668',-11.99188441
'0:06.672',13.09384136
'0:06.676',55.68123627
'0:06.680',54.83856331
'0:06.684',76.68323923
'0:06.688',116.8722573
'0:06.691',153.2368365
'0:06.695',134.1146424
'0:06.699',93.40705641
'0:06.703',69.42328759
'0:06.707',40.05937603
'0:06.711',22.4928859
'0:06.715',48.68056861
'0:06.719',71.3030965
'0:06.723',66.70080572
'0:06.727',42.97632089
'0:06.730',26.83589268
'0:06.734',2.0094509
'0:06.738',-8.75083457
'0:06.742',-29.23426956
'0:06.746',-37.33689417
'0:06.750',-54.57927932
'0:06.754',-63.2004719
'0:06.758',-57.82032916
'0:06.762',-61.90405196
'0:06.766',-69.1640036
'0:06.770',-54.83856331
'0:06.773',-33.57727635
'0:06.777',-43.55970986
'0:06.781',-28.19713362
'0:06.785',-50.30109353
'0:06.789',-37.33689417
'0:06.793',-34.6144123
'0:06.797',-13.61240933
'0:06.801',-13.09384136
'0:06.805',-47.31932768
'0:06.809',-49.19913658
'0:06.813',-34.35512831
'0:06.816',-2.26873489
'0:06.820',-0.64820997
'0:06.824',17.11274316
'0:06.828',78.56304814
'0:06.832',106.3712558
'0:06.836',77.78519618
'0:06.840',54.31999533
'0:06.844',39.73527105
'0:06.848',16.3348912
'0:06.852',40.05937603
'0:06.855',40.83722799
'0:06.859',34.93851728
'0:06.863',40.57794401
'0:06.867',18.73326808
'0:06.871',-5.50978473
'0:06.875',9.26940254
'0:06.879',30.85479449
'0:06.883',35.97565323
'0:06.887',35.19780127
'0:06.891',44.8561298
'0:06.895',26.25250371
'0:06.898',31.11407847
'0:06.902',51.07894549
'0:06.906',34.09584433
'0:06.910',61.061379
'0:06.914',73.44218939
'0:06.918',76.94252322
'0:06.922',52.18090244
'0:06.926',23.07627487
'0:06.930',1.23159894
'0:06.934',-21.97431792
'0:06.938',-52.44018643
'0:06.941',-76.68323923
'0:06.945',-89.38815461
'0:06.949',-64.82099682
'0:06.953',-58.07961315
'0:06.957',-40.31866002
'0:06.961',0.97231495
'0:06.965',98.52791516
'0:06.969',153.5609415
'0:06.973',88.54548165
'0:06.977',-24.3726948
'0:06.980',-108.7696327
'0:06.984',-151.0977436
'0:06.988',-172.4238515
'0:06.992',-162.441418
'0:06.996',-115.5110163
'0:07.000',-68.90471962
'0:07.004',-56.19980424
'0:07.008',-39.47598706
'0:07.012',-45.69880276
'0:07.016',-49.71770456
'0:07.020',-20.61307699
'0:07.023',-24.11341082
'0:07.027',-52.9587544
'0:07.031',-42.7170369
'0:07.035',-35.19780127
'0:07.039',-8.75083457
'0:07.043',-9.01011856
'0:07.047',-33.57727635
'0:07.051',-54.06071135
'0:07.055',-49.71770456
'0:07.059',-43.55970986
'0:07.063',-58.92228611
'0:07.066',-64.04314486
'0:07.070',-53.21803839
'0:07.074',-51.92161845
'0:07.078',-45.43951877
'0:07.082',-57.82032916
'0:07.086',-61.32066299
'0:07.090',-67.54347868
'0:07.094',-68.06204666
'0:07.098',-62.68190392
'0:07.102',-74.02557837
'0:07.105',-75.90538727
'0:07.109',-66.44152174
'0:07.113',-69.1640036
'0:07.117',-64.04314486
'0:07.121',-58.07961315
'0:07.125',-43.55970986
'0:07.129',-34.35512831
'0:07.133',-36.81832619
'0:07.137',-31.43818346
'0:07.141',-25.47465175
'0:07.145',-11.21403245
'0:07.148',-17.95541612
'0:07.152',-19.83522503
'0:07.156',-14.97365026
'0:07.160',5.50978473
'0:07.164',3.62997582
'0:07.168',14.71436628
'0:07.172',13.09384136
'0:07.176',17.11274316
'0:07.180',21.45574995
'0:07.184',4.99121675
'0:07.188',0.64820997
'0:07.191',-2.26873489
'0:07.195',-31.11407847
'0:07.199',-41.67990095
'0:07.203',-42.45775292
'0:07.207',-48.42128462
'0:07.211',-36.23493722
'0:07.215',-48.68056861
'0:07.219',-26.31732471
'0:07.223',-26.5766087
'0:07.227',-47.06004369
'0:07.230',-49.71770456
'0:07.234',-32.47531941
'0:07.238',17.11274316
'0:07.242',94.50901336
'0:07.246',155.1814664
'0:07.250',219.8728212
'0:07.254',210.6682397
'0:07.258',124.1322089
'0:07.262',30.85479449
'0:07.266',-26.31732471
'0:07.270',-116.0295843
'0:07.273',-84.78586384
'0:07.277',-95.02758133
'0:07.281',-166.2010358
'0:07.285',-181.5636121
'0:07.289',-161.3394611
'0:07.293',-139.4947852
'0:07.297',-87.5083457
'0:07.301',-43.30042587
'0:07.305',-37.07761018
'0:07.309',-27.35446066
'0:07.313',-37.33689417
'0:07.316',-21.45574995
'0:07.320',2.85212386
'0:07.324',39.73527105
'0:07.328',36.23493722
'0:07.332',30.33622651
'0:07.336',60.80209501
'0:07.340',80.44285705
'0:07.344',100.991113
'0:07.348',116.3536893
'0:07.352',112.5292505
'0:07.355',95.54614931
'0:07.359',83.16533892
'0:07.363',85.30443181
'0:07.367',82.90605493
'0:07.371',109.8715896
'0:07.375',139.4947852
'0:07.379',205.5473809
'0:07.383',194.5278115
'0:07.387',152.1997005
'0:07.391',73.44218939
'0:07.395',20.61307699
'0:07.398',-2.26873489
'0:07.402',-4.47264878
'0:07.406',-0.38892598
'0:07.410',20.09450901
'0:07.414',34.09584433
'0:07.418',29.81765854
'0:07.422',28.97498558
'0:07.426',32.73460339
'0:07.430',35.71636925
'0:07.434',34.09584433
'0:07.438',45.69880276
'0:07.441',44.33756182
'0:07.445',78.88715313
'0:07.449',97.16667423
'0:07.453',66.44152174
'0:07.457',35.45708526
'0:07.461',17.63131113
'0:07.465',14.71436628
'0:07.469',13.35312534
'0:07.473',30.85479449
'0:07.477',32.73460339
'0:07.480',33.57727635
'0:07.484',31.95675143
'0:07.488',45.69880276
'0:07.492',45.69880276
'0:07.496',48.09717964
'0:07.500',49.97698855
'0:07.504',48.68056861
'0:07.508',46.21737073
'0:07.512',45.69880276
'0:07.516',47.57861166
'0:07.520',64.56171283
'0:07.523',47.83789565
'0:07.527',62.68190392
'0:07.531',61.57994698
'0:07.535',62.94118791
'0:07.539',48.9398526
'0:07.543',49.19913658
'0:07.547',46.8007597
'0:07.551',44.8561298
'0:07.555',45.69880276
'0:07.559',48.09717964
'0:07.563',48.68056861
'0:07.566',46.8007597
'0:07.570',29.49355355
'0:07.574',-0.38892598
'0:07.578',1.49088293
'0:07.582',14.97365026
'0:07.586',-3.88925981
'0:07.590',12.83455737
'0:07.594',-0.38892598
'0:07.598',1.75016691
'0:07.602',14.97365026
'0:07.605',42.19846893
'0:07.609',11.21403245
'0:07.613',-74.80343033
'0:07.617',-131.9755495
'0:07.621',-186.9437548
'0:07.625',-184.8046619
'0:07.629',-173.7850925
'0:07.633',-163.21927
'0:07.637',-135.7351673
'0:07.641',-106.8898238
'0:07.645',-72.40505344
'0:07.648',-61.57994698
'0:07.652',-50.30109353
'0:07.656',-52.9587544
'0:07.660',-54.57927932
'0:07.664',-68.58061463
'0:07.668',-91.52724751
'0:07.672',-98.26863118
'0:07.676',-102.028249
'0:07.680',-72.14576946
'0:07.684',-23.85412683
'0:07.688',15.49221824
'0:07.691',11.73260042
'0:07.695',-47.57861166
'0:07.699',-76.42395525
'0:07.703',-81.544814
'0:07.707',-52.9587544
'0:07.711',47.06004369
'0:07.715',100.1484401
'0:07.719',83.16533892
'0:07.723',13.09384136
'0:07.727',-67.54347868
'0:07.730',-59.95942206
'0:07.734',-6.61174168
'0:07.738',67.02491071
'0:07.742',100.991113
'0:07.746',49.71770456
'0:07.750',0.97231495
'0:07.754',-29.23426956
'0:07.758',-44.8561298
'0:07.762',-32.21603542
'0:07.766',-19.83522503
'0:07.770',-3.11140785
'0:07.773',1.23159894
'0:07.777',-10.88992747
'0:07.781',-12.83455737
'0:07.785',-33.57727635
'0:07.789',-50.04180954
'0:07.793',-16.01078621
'0:07.797',-30.33622651
'0:07.801',-60.54281103
'0:07.805',-76.68323923
'0:07.809',-95.54614931
'0:07.813',-97.49077921
'0:07.816',-96.64810625
'0:07.820',-79.14643711
'0:07.824',-93.92562439
'0:07.828',-78.30376416
'0:07.832',-95.87025429
'0:07.836',-79.92428908
'0:07.840',-64.04314486
'0:07.844',-47.57861166
'0:07.848',-31.43818346
'0:07.852',-46.21737073
'0:07.855',-60.28352704
'0:07.859',-60.80209501
'0:07.863',-32.47531941
'0:07.867',-3.62997582
'0:07.871',-0.97231495
'0:07.875',4.99121675
'0:07.879',21.97431792
'0:07.883',47.57861166
'0:07.887',89.6474386
'0:07.891',108.2510647
'0:07.895',132.4941175
'0:07.898',151.6163116
'0:07.902',146.2361688
'0:07.906',125.2341659
'0:07.910',80.18357306
'0:07.914',40.05937603
'0:07.918',-6.0931737
'0:07.922',1.49088293
'0:07.926',23.07627487
'0:07.930',40.05937603
'0:07.934',51.59751347
'0:07.938',74.28486235
'0:07.941',67.80276267
'0:07.945',58.07961315
'0:07.949',57.56104517
'0:07.953',97.16667423
'0:07.957',133.0126855
'0:07.961',160.5616091
'0:07.965',139.7540691
'0:07.969',95.87025429
'0:07.973',55.94052025
'0:07.977',39.73527105
'0:07.980',45.95808674
'0:07.984',7.71369862
'0:07.988',-17.11274316
'0:07.992',-23.59484284
'0:07.996',-40.83722799
'0:08.000',-66.18223775
'0:08.004',-72.14576946
'0:08.008',-67.54347868
'0:08.012',-43.81899385
'0:08.016',-11.99188441
'0:08.020',-3.37069183
'0:08.023',24.3726948
'0:08.027',106.1119718
'0:08.031',235.4946814
'0:08.035',284.0456081
'0:08.039',180.2023712
'0:08.043',17.37202715
'0:08.047',-93.92562439
'0:08.051',-190.1848047
'0:08.055',-282.6843671
'0:08.059',-278.9247493
'0:08.063',-190.7681936
'0:08.066',-158.0984112
'0:08.070',-161.5987451
'0:08.074',-101.250397
'0:08.078',-38.6981351
'0:08.082',12.83455737
'0:08.086',18.73326808
'0:08.090',-40.05937603
'0:08.094',-57.30176119
'0:08.098',-50.30109353
'0:08.102',-40.05937603
'0:08.105',-34.93851728
'0:08.109',-10.1120755
'0:08.113',-9.01011856
'0:08.117',-16.01078621
'0:08.121',-21.19646596
'0:08.125',-18.21470011
'0:08.129',-11.47331644
'0:08.133',-9.85279152
'0:08.137',-14.97365026
'0:08.141',-35.19780127
'0:08.145',-33.31799236
'0:08.148',-13.09384136
'0:08.152',3.11140785
'0:08.156',-15.49221824
'0:08.160',-16.3348912
'0:08.164',-30.85479449
'0:08.168',-44.33756182
'0:08.172',-29.23426956
'0:08.176',-17.37202715
'0:08.180',-18.73326808
'0:08.184',0.64820997
'0:08.188',-11.73260042
'0:08.191',-11.47331644
'0:08.195',-15.49221824
'0:08.199',-18.21470011
'0:08.203',-0.97231495
'0:08.207',2.52801888
'0:08.211',4.1485438
'0:08.215',17.37202715
'0:08.219',29.49355355
'0:08.223',30.33622651
'0:08.227',34.6144123
'0:08.230',37.07761018
'0:08.234',34.35512831
'0:08.238',30.33622651
'0:08.242',30.33622651
'0:08.246',49.19913658
'0:08.250',51.07894549
'0:08.254',65.66366978
'0:08.258',62.94118791
'0:08.262',62.94118791
'0:08.266',50.30109353
'0:08.270',36.81832619
'0:08.273',19.25183605
'0:08.277',15.49221824
'0:08.281',28.97498558
'0:08.285',46.21737073
'0:08.289',65.40438579
'0:08.293',82.06338197
'0:08.297',65.0802808
'0:08.301',64.04314486
'0:08.305',63.78386087
'0:08.309',95.28686532
'0:08.313',110.3901576
'0:08.316',126.8546908
'0:08.320',128.7344997
'0:08.324',98.78719915
'0:08.328',67.80276267
'0:08.332',49.71770456
'0:08.336',45.95808674
'0:08.340',44.59684581
'0:08.344',47.31932768
'0:08.348',34.6144123
'0:08.352',34.35512831
'0:08.355',14.97365026
'0:08.359',13.09384136
'0:08.363',14.13097731
'0:08.367',32.21603542
'0:08.371',32.21603542
'0:08.375',15.75150223
'0:08.379',15.23293425
'0:08.383',-0.64820997
'0:08.387',30.85479449
'0:08.391',44.8561298
'0:08.395',76.42395525
'0:08.398',78.30376416
'0:08.402',65.92295376
'0:08.406',81.80409798
'0:08.410',77.52591219
'0:08.414',60.28352704
'0:08.418',47.57861166
'0:08.422',50.56037752
'0:08.426',32.99388738
'0:08.430',29.23426956
'0:08.434',12.2511684
'0:08.438',14.97365026
'0:08.441',1.49088293
'0:08.445',0.64820997
'0:08.449',12.51045239
'0:08.453',10.63064348
'0:08.457',13.61240933
'0:08.461',17.63131113
'0:08.465',17.11274316
'0:08.469',13.35312534
'0:08.473',11.21403245
'0:08.477',-2.0094509
'0:08.480',1.75016691
'0:08.484',0.97231495
'0:08.488',12.51045239
'0:08.492',25.47465175
'0:08.496',43.81899385
'0:08.500',17.95541612
'0:08.504',-25.99321972
'0:08.508',-76.42395525
'0:08.512',-83.4246229
'0:08.516',-72.66433743
'0:08.520',-53.80142736
'0:08.523',-46.47665472
'0:08.527',-43.81899385
'0:08.531',-17.63131113
'0:08.535',-39.47598706
'0:08.539',-36.5590422
'0:08.543',-29.81765854
'0:08.547',-28.19713362
'0:08.551',-48.68056861
'0:08.555',-84.00801188
'0:08.559',-97.7500632
'0:08.563',-94.50901336
'0:08.566',-79.66500509
'0:08.570',-67.80276267
'0:08.574',-68.58061463
'0:08.578',-95.54614931
'0:08.582',-106.6305398
'0:08.586',-109.3530216
'0:08.590',-116.3536893
'0:08.594',-102.611638
'0:08.598',-82.06338197
'0:08.602',-76.42395525
'0:08.605',-75.90538727
'0:08.609',-65.40438579
'0:08.613',-7.71369862
'0:08.617',40.05937603
'0:08.621',32.99388738
'0:08.625',-20.87236098
'0:08.629',-99.8891561
'0:08.633',-157.5798433
'0:08.637',-167.8215608
'0:08.641',-136.5778403
'0:08.645',-96.64810625
'0:08.648',-43.30042587
'0:08.652',-61.061379
'0:08.656',-80.18357306
'0:08.660',-65.92295376
'0:08.664',-18.47398409
'0:08.668',91.52724751
'0:08.672',123.095073
'0:08.676',67.54347868
'0:08.680',-63.78386087
'0:08.684',-173.7850925
'0:08.688',-205.2880969
'0:08.691',-191.0274776
'0:08.695',-126.8546908
'0:08.699',-16.59417519
'0:08.703',25.73393574
'0:08.707',23.59484284
'0:08.711',29.23426956
'0:08.715',71.04381251
'0:08.719',61.32066299
'0:08.723',-3.62997582
'0:08.727',-92.88848844
'0:08.730',-120.8911591
'0:08.734',-0.12964199
'0:08.738',56.71837222
'0:08.742',48.42128462
'0:08.746',-19.25183605
'0:08.750',-54.83856331
'0:08.754',-87.18424072
'0:08.758',-75.3219983
'0:08.762',-27.61374464
'0:08.766',33.31799236
'0:08.770',7.97298261
'0:08.773',2.52801888
'0:08.777',27.35446066
'0:08.781',94.24972937
'0:08.785',196.4076204
'0:08.789',225.7715319
'0:08.793',186.4251869
'0:08.797',92.62920445
'0:08.801',42.97632089
'0:08.805',-25.99321972
'0:08.809',-3.62997582
'0:08.813',-13.35312534
'0:08.816',-70.78452852
'0:08.820',-83.4246229
'0:08.824',-12.51045239
'0:08.828',64.82099682
'0:08.832',121.1504431
'0:08.836',106.3712558
'0:08.840',85.88782078
'0:08.844',45.43951877
'0:08.848',7.38959364
'0:08.852',-67.02491071
'0:08.855',-69.42328759
'0:08.859',-48.68056861
'0:08.863',-12.51045239
'0:08.867',-28.97498558
'0:08.871',-47.06004369
'0:08.875',-64.04314486
'0:08.879',-63.2004719
'0:08.883',-62.42261994
'0:08.887',-62.68190392
'0:08.891',-47.83789565
'0:08.895',-48.68056861
'0:08.898',-31.69746744
'0:08.902',-14.97365026
'0:08.906',0.64820997
'0:08.910',15.75150223
'0:08.914',31.69746744
'0:08.918',32.99388738
'0:08.922',34.6144123
'0:08.926',18.99255207
'0:08.930',48.68056861
'0:08.934',92.30509947
'0:08.938',107.9917807
'0:08.941',113.8904914
'0:08.945',87.76762969
'0:08.949',70.52524454
'0:08.953',32.21603542
'0:08.957',28.4564176
'0:08.961',30.5955105
'0:08.965',65.92295376
'0:08.969',96.90739024
'0:08.973',94.50901336
'0:08.977',110.3901576
'0:08.980',96.90739024
'0:08.984',114.9924484
'0:08.988',159.2003682
'0:08.992',216.8910554
'0:08.996',233.6148725
'0:09.000',211.2516286
'0:09.004',186.6844708
'0:09.008',103.6487739
'0:09.012',47.57861166
'0:09.016',10.63064348
'0:09.020',-17.95541612
'0:09.023',-12.51045239
'0:09.027',2.0094509
'0:09.031',42.19846893
'0:09.035',69.94185557
'0:09.039',107.1491077
'0:09.043',146.4954528
'0:09.047',147.5974098
'0:09.051',81.02624602
'0:09.055',16.59417519
'0:09.059',31.69746744
'0:09.063',59.18157009
'0:09.066',104.1673419
'0:09.070',122.770968
'0:09.074',67.54347868
'0:09.078',55.94052025
'0:09.082',48.09717964
'0:09.086',115.2517323
'0:09.090',113.6312074
'0:09.094',50.8196615
'0:09.098',-28.97498558
'0:09.102',-53.21803839
'0:09.105',-61.90405196
'0:09.109',-55.42195228
'0:09.113',7.97298261
'0:09.117',42.7170369
'0:09.121',73.70147338
'0:09.125',56.19980424
'0:09.129',31.69746744
'0:09.133',-3.88925981
'0:09.137',-34.93851728
'0:09.141',-52.69947041
'0:09.145',-55.94052025
'0:09.148',-52.18090244
'0:09.152',-41.67990095
'0:09.156',-7.13030965
'0:09.160',-5.25050074
'0:09.164',-4.73193277
'0:09.168',-16.59417519
'0:09.172',-24.69679979
'0:09.176',6.87102566
'0:09.180',-6.61174168
'0:09.184',-3.11140785
'0:09.188',-29.49355355
'0:09.191',-24.11341082
'0:09.195',-11.73260042
'0:09.199',-23.85412683
'0:09.203',-32.99388738
'0:09.207',-42.97632089
'0:09.211',-41.09651198
'0:09.215',-30.5955105
'0:09.219',-40.83722799
'0:09.223',-31.43818346
'0:09.227',-41.35579597
'0:09.230',-41.35579597
'0:09.234',-16.3348912
'0:09.238',-10.88992747
'0:09.242',-14.71436628
'0:09.246',-22.23360191
'0:09.250',-23.59484284
'0:09.254',-17.37202715
'0:09.258',-12.2511684
'0:09.262',-14.45508229
'0:09.266',-20.87236098
'0:09.270',-22.75216988
'0:09.273',-18.21470011
'0:09.277',-13.35312534
'0:09.281',-14.45508229
'0:09.285',-4.1485438
'0:09.289',-6.87102566
'0:09.293',-18.21470011
'0:09.297',-12.51045239
'0:09.301',-29.23426956
'0:09.305',-65.92295376
'0:09.309',-68.32133065
'0:09.313',-67.2841947
'0:09.316',-64.04314486
'0:09.320',-62.94118791
'0:09.324',-49.71770456
'0:09.328',-52.44018643
'0:09.332',-51.07894549
'0:09.336',-47.57861166
'0:09.340',-46.47665472
'0:09.344',-48.9398526
'0:09.348',-51.59751347
'0:09.352',-50.8196615
'0:09.355',-47.83789565
'0:09.359',-62.16333595
'0:09.363',-48.09717964
'0:09.367',-51.59751347
'0:09.371',-51.33822948
'0:09.375',-47.83789565
'0:09.379',-30.33622651
'0:09.383',-32.47531941
'0:09.387',-34.6144123
'0:09.391',-3.11140785
'0:09.395',-16.85345917
'0:09.398',-13.61240933
'0:09.402',-45.18023478
'0:09.406',-62.94118791
'0:09.410',-66.18223775
'0:09.414',-51.33822948
'0:09.418',-34.09584433
'0:09.422',-0.38892598
'0:09.426',15.49221824
'0:09.430',15.23293425
'0:09.434',31.11407847
'0:09.438',46.8007597
'0:09.441',47.31932768
'0:09.445',79.14643711
'0:09.449',124.9748819
'0:09.453',155.7000344
'0:09.457',142.995119
'0:09.461',101.509681
'0:09.465',71.04381251
'0:09.469',64.04314486
'0:09.473',87.18424072
'0:09.477',88.02691368
'0:09.480',97.7500632
'0:09.484',103.3894899
'0:09.488',97.7500632
'0:09.492',58.07961315
'0:09.496',11.99188441
'0:09.500',3.62997582
'0:09.504',4.73193277
'0:09.508',-17.63131113
'0:09.512',-22.75216988
'0:09.516',40.83722799
'0:09.520',60.54281103
'0:09.523',34.93851728
'0:09.527',-9.85279152
'0:09.531',-61.061379
'0:09.535',-52.69947041
'0:09.539',4.99121675
'0:09.543',116.6129733
'0:09.547',232.2536316
'0:09.551',285.601312
'0:09.555',243.85659
'0:09.559',183.184137
'0:09.563',115.5110163
'0:09.566',30.5955105
'0:09.570',-33.83656034
'0:09.574',-32.73460339
'0:09.578',-96.12953828
'0:09.582',-173.4609875
'0:09.586',-174.8222284
'0:09.590',-165.9417519
'0:09.594',-122.770968
'0:09.598',-88.02691368
'0:09.602',-64.04314486
'0:09.605',-59.95942206
'0:09.609',-64.04314486
'0:09.613',-70.20113955
'0:09.617',-70.20113955
'0:09.621',-49.19913658
'0:09.625',-45.95808674
'0:09.629',-32.21603542
'0:09.633',-36.81832619
'0:09.637',-36.81832619
'0:09.641',-32.73460339
'0:09.645',-29.81765854
'0:09.648',-47.31932768
'0:09.652',-35.19780127
'0:09.656',-37.33689417
'0:09.660',-34.09584433
'0:09.664',-30.07694252
'0:09.668',-30.33622651
'0:09.672',-34.09584433
'0:09.676',-51.92161845
'0:09.680',-33.83656034
'0:09.684',-31.69746744
'0:09.688',-31.69746744
'0:09.691',-33.31799236
'0:09.695',-34.35512831
'0:09.699',-33.83656034
'0:09.703',-31.95675143
'0:09.707',-31.69746744
'0:09.711',-48.42128462
'0:09.715',-48.9398526
'0:09.719',-64.82099682
'0:09.723',-79.4057211
'0:09.727',-94.50901336
'0:09.730',-65.0802808
'0:09.734',-6.35245769
'0:09.738',70.78452852
'0:09.742',60.80209501
'0:09.746',-21.71503393
'0:09.750',-142.476551
'0:09.754',-169.1828017
'0:09.758',-141.957983
'0:09.762',-84.26729586
'0:09.766',-36.5590422
'0:09.770',-2.26873489
'0:09.773',-3.62997582
'0:09.777',-20.61307699
'0:09.781',16.01078621
'0:09.785',116.6129733
'0:09.789',178.3225622
'0:09.793',171.0626106
'0:09.797',104.4914469
'0:09.801',47.83789565
'0:09.805',10.88992747
'0:09.809',13.87169332
'0:09.813',18.73326808
'0:09.816',34.6144123
'0:09.820',45.43951877
'0:09.824',42.7170369
'0:09.828',77.26662821
'0:09.832',96.64810625
'0:09.836',128.4752157
'0:09.840',125.7527338
'0:09.844',109.8715896
'0:09.848',81.544814
'0:09.852',67.54347868
'0:09.855',79.66500509
'0:09.859',89.90672259
'0:09.863',74.80343033
'0:09.867',65.92295376
'0:09.871',69.1640036
'0:09.875',79.14643711
'0:09.879',56.71837222
'0:09.883',27.87302863
'0:09.887',19.83522503
'0:09.891',5.25050074
'0:09.895',-63.78386087
'0:09.898',-145.4583169
'0:09.902',-191.0274776
'0:09.906',-175.3407964
'0:09.910',-195.3056634
'0:09.914',-165.6824679
'0:09.918',-133.3367905
'0:09.922',-113.8904914
'0:09.926',-95.28686532
'0:09.930',-95.54614931
'0:09.934',-97.7500632
'0:09.938',-82.90605493
'0:09.941',-81.80409798
'0:09.945',-63.78386087
'0:09.949',-47.83789565
'0:09.953',-33.83656034
'0:09.957',-34.35512831
'0:09.961',-16.59417519
'0:09.965',-15.23293425
'0:09.969',0.38892598
'0:09.973',-1.23159894
'0:09.977',45.18023478
'0:09.980',106.8898238
'0:09.984',155.4407504
'0:09.988',128.9937837
'0:09.992',88.02691368
'0:09.996',55.16266829
'0:10.000',92.30509947
'0:10.004',146.2361688
'0:10.008',151.3570276
'0:10.012',135.7351673
'0:10.016',187.7864278
'0:10.020',219.8728212
'0:10.023',161.0801771
'0:10.027',93.92562439
'0:10.031',17.37202715
'0:10.035',-15.75150223
'0:10.039',-23.07627487
'0:10.043',7.71369862
'0:10.047',49.45842057
'0:10.051',42.7170369
'0:10.055',20.61307699
'0:10.059',-13.09384136
'0:10.063',-19.57594104
'0:10.066',-49.19913658
'0:10.070',4.47264878
'0:10.074',76.68323923
'0:10.078',63.2004719
'0:10.082',3.37069183
'0:10.086',-38.17956713
'0:10.090',6.0931737
'0:10.094',51.92161845
'0:10.098',9.85279152
'0:10.102',-69.94185557
'0:10.105',-107.7324967
'0:10.109',-58.33889714
'0:10.113',8.2322666
'0:10.117',77.26662821
'0:10.121',54.83856331
'0:10.125',-17.95541612
'0:10.129',-59.18157009
'0:10.133',-64.82099682
'0:10.137',-25.21536776
'0:10.141',-20.61307699
'0:10.145',7.71369862
'0:10.148',21.71503393
'0:10.152',4.73193277
'0:10.156',-34.6144123
'0:10.160',-49.45842057
'0:10.164',-43.30042587
'0:10.168',-30.33622651
'0:10.172',-12.51045239
'0:10.176',-17.95541612
'0:10.180',-17.63131113
'0:10.184',18.73326808
'0:10.188',31.43818346
'0:10.191',21.45574995
'0:10.195',3.62997582
'0:10.199',0.97231495
'0:10.203',15.75150223
'0:10.207',27.61374464
'0:10.211',37.33689417
'0:10.215',6.35245769
'0:10.219',-11.73260042
'0:10.223',-0.38892598
'0:10.227',-6.87102566
'0:10.230',-11.47331644
'0:10.234',-38.95741909
'0:10.238',-73.18290541
'0:10.242',-64.56171283
'0:10.246',-58.07961315
'0:10.250',-61.90405196
'0:10.254',-70.20113955
'0:10.258',-56.45908823
'0:10.262',-50.30109353
'0:10.266',-43.55970986
'0:10.270',-13.87169332
'0:10.273',-37.07761018
'0:10.277',-22.75216988
'0:10.281',43.81899385
'0:10.285',109.2882006
'0:10.289',202.88972
'0:10.293',263.8214571
'0:10.297',237.1152064
'0:10.301',153.2368365
'0:10.305',46.8007597
'0:10.309',-41.67990095
'0:10.313',-134.1146424
'0:10.316',-106.6305398
'0:10.320',-116.8722573
'0:10.324',-153.8202255
'0:10.328',-152.1997005
'0:10.332',-132.4941175
'0:10.336',-110.9087256
'0:10.340',-58.66300212
'0:10.344',-29.49355355
'0:10.348',-7.38959364
'0:10.352',16.01078621
'0:10.355',-10.1120755
'0:10.359',-38.17956713
'0:10.363',-57.56104517
'0:10.367',-69.94185557
'0:10.371',-64.82099682
'0:10.375',-60.54281103
'0:10.379',-41.93918494
'0:10.383',-13.35312534
'0:10.387',-22.23360191
'0:10.391',-44.07827784
'0:10.395',-54.83856331
'0:10.398',-57.0424772
'0:10.402',-32.99388738
'0:10.406',-41.35579597
'0:10.410',-27.35446066
'0:10.414',-5.76906872
'0:10.418',-9.85279152
'0:10.422',-1.75016691
'0:10.426',22.75216988
'0:10.430',20.87236098
'0:10.434',12.2511684
'0:10.438',23.85412683
'0:10.441',44.59684581
'0:10.445',51.92161845
'0:10.449',53.21803839
'0:10.453',78.04448017
'0:10.457',71.82166447
'0:10.461',75.90538727
'0:10.465',68.58061463
'0:10.469',70.52524454
'0:10.473',62.94118791
'0:10.477',71.56238049
'0:10.480',73.70147338
'0:10.484',82.38748695
'0:10.488',85.88782078
'0:10.492',95.54614931
'0:10.496',88.02691368
'0:10.500',89.6474386
'0:10.504',97.42595822
'0:10.508',116.3536893
'0:10.512',95.54614931
'0:10.516',105.5285828
'0:10.520',105.5285828
'0:10.523',111.4921145
'0:10.527',99.62987211
'0:10.531',96.90739024
'0:10.535',90.42529056
'0:10.539',88.54548165
'0:10.543',93.40705641
'0:10.547',98.00934719
'0:10.551',96.64810625
'0:10.555',75.64610329
'0:10.559',74.02557837
'0:10.563',76.42395525
'0:10.566',95.02758133
'0:10.570',94.24972937
'0:10.574',61.061379
'0:10.578',61.061379
'0:10.582',60.54281103
'0:10.586',44.8561298
'0:10.590',45.43951877
'0:10.594',44.8561298
'0:10.598',43.81899385
'0:10.602',28.19713362
'0:10.605',13.87169332
'0:10.609',-1.49088293
'0:10.613',-3.37069183
'0:10.617',-21.19646596
'0:10.621',-35.97565323
'0:10.625',-34.09584433
'0:10.629',-34.6144123
'0:10.633',-36.5590422
'0:10.637',-52.69947041
'0:10.641',-51.07894549
'0:10.645',-50.30109353
'0:10.648',-51.33822948
'0:10.652',-52.69947041
'0:10.656',-52.44018643
'0:10.660',-51.07894549
'0:10.664',-50.30109353
'0:10.668',-66.44152174
'0:10.672',-67.2841947
'0:10.676',-68.06204666
'0:10.680',-67.80276267
'0:10.684',-82.38748695
'0:10.688',-81.28553001
'0:10.691',-82.64677094
'0:10.695',-84.52657985
'0:10.699',-84.26729586
'0:10.703',-82.38748695
'0:10.707',-81.28553001
'0:10.711',-82.06338197
'0:10.715',-83.68390689
'0:10.719',-83.68390689
'0:10.723',-66.70080572
'0:10.727',-66.18223775
'0:10.730',-65.66366978
'0:10.734',-65.92295376
'0:10.738',-51.07894549
'0:10.742',-66.70080572
'0:10.746',-64.82099682
'0:10.750',-64.56171283
'0:10.754',-65.92295376
'0:10.758',-67.02491071
'0:10.762',-66.44152174
'0:10.766',-64.82099682
'0:10.770',-64.30242884
'0:10.773',-65.40438579
'0:10.777',-66.44152174
'0:10.781',-66.18223775
'0:10.785',-64.82099682
'0:10.789',-64.30242884
'0:10.793',-64.82099682
'0:10.797',-50.56037752
'0:10.801',-50.8196615
'0:10.805',-33.31799236
'0:10.809',-32.21603542
'0:10.813',-31.95675143
'0:10.816',-17.37202715
'0:10.820',-3.11140785
'0:10.824',-2.26873489
'0:10.828',0.64820997
'0:10.832',1.49088293
'0:10.836',-0.38892598
'0:10.840',-2.59283987
'0:10.844',-2.26873489
'0:10.848',0.12964199
'0:10.852',1.23159894
'0:10.855',-0.12964199
'0:10.859',-2.0094509
'0:10.863',-2.0094509
'0:10.867',-0.38892598
'0:10.871',0.97231495
'0:10.875',-15.49221824
'0:10.879',-16.59417519
'0:10.883',-17.95541612
'0:10.887',-2.0094509
'0:10.891',-16.59417519
'0:10.895',-14.71436628
'0:10.898',-15.49221824
'0:10.902',-33.31799236
'0:10.906',-17.95541612
'0:10.910',-32.99388738
'0:10.914',-31.11407847
'0:10.918',-46.47665472
'0:10.922',-48.09717964
'0:10.926',-34.6144123
'0:10.930',-50.30109353
'0:10.934',-47.06004369
'0:10.938',-61.061379
'0:10.941',-78.30376416
'0:10.945',-81.544814
'0:10.949',-67.54347868
'0:10.953',-50.56037752
'0:10.957',-31.95675143
'0:10.961',-14.97365026
'0:10.965',-16.01078621
'0:10.969',-1.49088293
'0:10.973',13.87169332
'0:10.977',0.12964199
'0:10.980',33.83656034
'0:10.984',47.31932768
'0:10.988',45.43951877
'0:10.992',31.95675143
'0:10.996',19.57594104
'0:11.000',18.99255207
'0:11.004',-0.64820997
'0:11.008',-2.85212386
'0:11.012',29.81765854
'0:11.016',31.69746744
'0:11.020',49.45842057
'0:11.023',48.42128462
'0:11.027',47.06004369
'0:11.031',46.8007597
'0:11.035',32.47531941
'0:11.039',64.82099682
'0:11.043',108.7696327
'0:11.047',153.2368365
'0:11.051',233.8741565
'0:11.055',238.7357313
'0:11.059',182.924853
'0:11.063',75.64610329
'0:11.066',-24.11341082
'0:11.070',-112.5292505
'0:11.074',-133.8553584
'0:11.078',-40.05937603
'0:11.082',-6.87102566
'0:11.086',0.38892598
'0:11.090',20.61307699
'0:11.094',31.95675143
'0:11.098',25.99321972
'0:11.102',57.56104517
'0:11.105',62.94118791
'0:11.109',67.80276267
'0:11.113',66.18223775
'0:11.117',60.28352704
'0:11.121',58.07961315
'0:11.125',46.47665472
'0:11.129',51.33822948
'0:11.133',49.71770456
'0:11.137',28.71570159
'0:11.141',42.45775292
'0:11.145',29.23426956
'0:11.148',49.45842057
'0:11.152',33.31799236
'0:11.156',45.43951877
'0:11.160',42.19846893
'0:11.164',44.33756182
'0:11.168',48.68056861
'0:11.172',49.45842057
'0:11.176',61.32066299
'0:11.180',73.18290541
'0:11.184',59.70013807
'0:11.188',81.02624602
'0:11.191',65.92295376
'0:11.195',77.78519618
'0:11.199',57.82032916
'0:11.203',59.95942206
'0:11.207',64.04314486
'0:11.211',49.19913658
'0:11.215',46.21737073
'0:11.219',57.82032916
'0:11.223',42.19846893
'0:11.227',47.06004369
'0:11.230',49.19913658
'0:11.234',30.5955105
'0:11.238',42.45775292
'0:11.242',41.35579597
'0:11.246',45.18023478
'0:11.250',32.99388738
'0:11.254',32.21603542
'0:11.258',27.09517667
'0:11.262',40.05937603
'0:11.266',58.07961315
'0:11.270',93.6663404
'0:11.273',110.1308736
'0:11.277',92.88848844
'0:11.281',92.30509947
'0:11.285',76.94252322
'0:11.289',62.16333595
'0:11.293',61.83923096
'0:11.297',59.44085408
'0:11.301',58.33889714
'0:11.305',59.70013807
'0:11.309',45.95808674
'0:11.313',61.83923096
'0:11.316',58.66300212
'0:11.320',57.56104517
'0:11.324',59.44085408
'0:11.328',61.83923096
'0:11.332',45.95808674
'0:11.336',59.44085408
'0:11.340',41.09651198
'0:11.344',58.33889714
'0:11.348',60.28352704
'0:11.352',61.061379
'0:11.355',59.70013807
'0:11.359',58.07961315
'0:11.363',58.07961315
'0:11.367',44.33756182
'0:11.371',45.43951877
'0:11.375',43.55970986
'0:11.379',25.73393574
'0:11.383',26.25250371
'0:11.387',12.2511684
'0:11.391',-2.59283987
'0:11.395',-3.88925981
'0:11.398',-22.23360191
'0:11.402',-37.85546214
'0:11.406',-51.33822948
'0:11.410',-81.544814
'0:11.414',-98.78719915
'0:11.418',-102.287533
'0:11.422',-119.5947391
'0:11.426',-132.2348335
'0:11.430',-129.5123516
'0:11.434',-131.4569816
'0:11.438',-134.6332104
'0:11.441',-135.2165994
'0:11.445',-132.2348335
'0:11.449',-129.5123516
'0:11.453',-115.2517323
'0:11.457',-103.1302059
'0:11.461',-103.1302059
'0:11.465',-99.04648314
'0:11.469',-80.44285705
'0:11.473',-67.2841947
'0:11.477',-70.78452852
'0:11.480',-54.06071135
'0:11.484',-35.19780127
'0:11.488',-32.99388738
'0:11.492',-18.21470011
'0:11.496',-5.50978473
'0:11.500',-5.76906872
'0:11.504',13.09384136
'0:11.508',30.5955105
'0:11.512',44.8561298
'0:11.516',42.97632089
'0:11.520',44.07827784
'0:11.523',61.57994698
'0:11.527',61.83923096
'0:11.531',91.78653149
'0:11.535',90.16600657
'0:11.539',92.30509947
'0:11.543',79.66500509
'0:11.547',64.30242884
'0:11.551',61.061379
'0:11.555',41.93918494
'0:11.559',27.61374464
'0:11.563',15.23293425
'0:11.566',0.12964199
'0:11.570',-3.37069183
'0:11.574',-7.13030965
'0:11.578',-21.71503393
'0:11.582',-32.73460339
'0:11.586',-16.01078621
'0:11.590',-36.23493722
'0:11.594',-38.95741909
'0:11.598',-21.97431792
'0:11.602',-34.35512831
'0:11.605',-31.95675143
'0:11.609',-50.04180954
'0:11.613',-53.21803839
'0:11.617',-54.06071135
'0:11.621',-67.02491071
'0:11.625',-48.68056861
'0:11.629',-66.18223775
'0:11.633',-68.32133065
'0:11.637',-69.1640036
'0:11.641',-67.54347868
'0:11.645',-50.30109353
'0:11.648',-35.45708526
'0:11.652',-36.81832619
'0:11.656',-35.71636925
'0:11.660',-18.47398409
'0:11.664',-18.47398409
'0:11.668',-18.99255207
'0:11.672',-34.6144123
'0:11.676',-33.83656034
'0:11.680',-18.99255207
'0:11.684',-20.353793
'0:11.688',-4.1485438
'0:11.691',12.51045239
'0:11.695',13.61240933
'0:11.699',14.13097731
'0:11.703',13.61240933
'0:11.707',12.83455737
'0:11.711',12.51045239
'0:11.715',13.35312534
'0:11.719',13.87169332
'0:11.723',13.61240933
'0:11.727',12.83455737
'0:11.730',12.51045239
'0:11.734',13.35312534
'0:11.738',-1.75016691
'0:11.742',-1.49088293
'0:11.746',-33.83656034
'0:11.750',-49.71770456
'0:11.754',-50.30109353
'0:11.758',-51.59751347
'0:11.762',-51.92161845
'0:11.766',-50.56037752
'0:11.770',-65.0802808
'0:11.773',-49.71770456
'0:11.777',-67.54347868
'0:11.781',-67.2841947
'0:11.785',-66.18223775
'0:11.789',-34.6144123
'0:11.793',25.73393574
'0:11.797',71.04381251
'0:11.801',168.0808448
'0:11.805',249.7553007
'0:11.809',269.2015998
'0:11.813',226.6142049
'0:11.816',150.3198916
'0:11.820',84.00801188
'0:11.824',13.87169332
'0:11.828',9.26940254
'0:11.832',-37.07761018
'0:11.836',-124.1322089
'0:11.840',-121.733832
'0:11.844',-101.250397
'0:11.848',-64.82099682
'0:11.852',-29.23426956
'0:11.855',0.97231495
'0:11.859',23.85412683
'0:11.863',15.75150223
'0:11.867',4.73193277
'0:11.871',5.25050074
'0:11.875',15.49221824
'0:11.879',21.71503393
'0:11.883',31.69746744
'0:11.887',21.97431792
'0:11.891',21.97431792
'0:11.895',30.85479449
'0:11.898',36.5590422
'0:11.902',47.57861166
'0:11.906',38.95741909
'0:11.910',38.43885111
'0:11.914',61.57994698
'0:11.918',51.07894549
'0:11.922',33.31799236
'0:11.926',26.25250371
'0:11.930',38.43885111
'0:11.934',41.93918494
'0:11.938',48.68056861
'0:11.941',49.71770456
'0:11.945',44.07827784
'0:11.949',54.83856331
'0:11.953',41.09651198
'0:11.957',32.73460339
'0:11.961',19.25183605
'0:11.965',28.71570159
'0:11.969',21.45574995
'0:11.973',23.33555885
'0:11.977',0.38892598
'0:11.980',4.73193277
'0:11.984',13.09384136
'0:11.988',4.1485438
'0:11.992',21.45574995
'0:11.996',45.95808674
'0:12.000',50.8196615
'0:12.004',31.11407847
'0:12.008',55.42195228
'0:12.012',52.69947041
'0:12.016',59.44085408
'0:12.020',66.18223775
'0:12.023',79.92428908
'0:12.027',71.82166447
'0:12.031',85.04514782
'0:12.035',90.42529056
'0:12.039',112.5292505
'0:12.043',95.87025429
'0:12.047',75.06271431
'0:12.051',71.82166447
'0:12.055',73.18290541
'0:12.059',92.62920445
'0:12.063',108.5103487
'0:12.066',90.74939554
'0:12.070',74.54414634
'0:12.074',91.00867953
'0:12.078',75.06271431
'0:12.082',75.3219983
'0:12.086',90.16600657
'0:12.090',88.80476564
'0:12.094',74.28486235
'0:12.098',61.061379
'0:12.102',60.54281103
'0:12.105',57.0424772
'0:12.109',55.16266829
'0:12.113',41.67990095
'0:12.117',29.49355355
'0:12.121',13.61240933
'0:12.125',-5.76906872
'0:12.129',-9.01011856
'0:12.133',-8.49155058
'0:12.137',-5.25050074
'0:12.141',-18.99255207
'0:12.145',-20.61307699
'0:12.148',-24.11341082
'0:12.152',-40.57794401
'0:12.156',-37.33689417
'0:12.160',-20.09450901
'0:12.164',-22.23360191
'0:12.168',-24.11341082
'0:12.172',-23.33555885
'0:12.176',-20.87236098
'0:12.180',-20.353793
'0:12.184',-21.97431792
'0:12.188',-38.95741909
'0:12.191',-22.75216988
'0:12.195',-22.23360191
'0:12.199',-21.45574995
'0:12.203',-21.45574995
'0:12.207',-21.97431792
'0:12.211',-22.4928859
'0:12.215',-21.97431792
'0:12.219',-21.45574995
'0:12.223',-5.76906872
'0:12.227',-6.87102566
'0:12.230',-6.35245769
'0:12.234',-4.99121675
'0:12.238',-20.353793
'0:12.242',-20.61307699
'0:12.246',-22.4928859
'0:12.250',-23.07627487
'0:12.254',-21.97431792
'0:12.258',-20.61307699
'0:12.262',-35.97565323
'0:12.266',-37.07761018
'0:12.270',-38.6981351
'0:12.273',-38.95741909
'0:12.277',-37.33689417
'0:12.281',-51.59751347
'0:12.285',-51.92161845
'0:12.289',-54.06071135
'0:12.293',-55.42195228
'0:12.297',-69.42328759
'0:12.301',-51.33822948
'0:12.305',-68.06204666
'0:12.309',-69.42328759
'0:12.313',-70.52524454
'0:12.316',-69.68257158
'0:12.320',-68.06204666
'0:12.324',-67.80276267
'0:12.328',-68.90471962
'0:12.332',-69.68257158
'0:12.336',-69.42328759
'0:12.340',-68.06204666
'0:12.344',-67.80276267
'0:12.348',-68.32133065
'0:12.352',-69.1640036
'0:12.355',-68.90471962
'0:12.359',-68.06204666
'0:12.363',-67.54347868
'0:12.367',-68.06204666
'0:12.371',-68.58061463
'0:12.375',-68.58061463
'0:12.379',-67.80276267
'0:12.383',-51.92161845
'0:12.387',-52.69947041
'0:12.391',-52.18090244
'0:12.395',-51.33822948
'0:12.398',-66.44152174
'0:12.402',-51.07894549
'0:12.406',-52.9587544
'0:12.410',-52.9587544
'0:12.414',-50.8196615
'0:12.418',-65.0802808
'0:12.422',-65.66366978
'0:12.426',-83.68390689
'0:12.430',-84.52657985
'0:12.434',-83.4246229
'0:12.438',-82.38748695
'0:12.441',-82.06338197
'0:12.445',-83.16533892
'0:12.449',-83.68390689
'0:12.453',-67.80276267
'0:12.457',-82.64677094
'0:12.461',-65.40438579
'0:12.465',-66.44152174
'0:12.469',-52.18090244
'0:12.473',-36.5590422
'0:12.477',-34.93851728
'0:12.480',-17.11274316
'0:12.484',-2.0094509
'0:12.488',27.09517667
'0:12.492',26.83589268
'0:12.496',45.95808674
'0:12.500',48.42128462
'0:12.504',62.68190392
'0:12.508',59.70013807
'0:12.512',59.70013807
'0:12.516',77.78519618
'0:12.520',79.14643711
'0:12.523',78.56304814
'0:12.527',76.94252322
'0:12.531',60.80209501
'0:12.535',46.8007597
'0:12.539',32.21603542
'0:12.543',30.33622651
'0:12.547',27.35446066
'0:12.551',42.45775292
'0:12.555',28.97498558
'0:12.559',32.21603542
'0:12.563',31.11407847
'0:12.566',27.61374464
'0:12.570',10.63064348
'0:12.574',13.35312534
'0:12.578',0.12964199
'0:12.582',30.07694252
'0:12.586',87.18424072
'0:12.590',147.3381258
'0:12.594',246.2549669
'0:12.598',284.82346
'0:12.602',274.3224585
'0:12.605',196.1483364
'0:12.609',98.78719915
'0:12.613',0.38892598
'0:12.617',-50.30109353
'0:12.621',-68.90471962
'0:12.625',-147.5974098
'0:12.629',-206.1307699
'0:12.633',-191.5460456
'0:12.637',-169.1828017
'0:12.641',-127.1139748
'0:12.645',-74.28486235
'0:12.648',-48.09717964
'0:12.652',-44.07827784
'0:12.656',-49.71770456
'0:12.660',-72.66433743
'0:12.664',-56.19980424
'0:12.668',-50.30109353
'0:12.672',-61.57994698
'0:12.676',-48.42128462
'0:12.680',-39.73527105
'0:12.684',-41.35579597
'0:12.688',-34.6144123
'0:12.691',-28.97498558
'0:12.695',-31.43818346
'0:12.699',-22.75216988
'0:12.703',-25.21536776
'0:12.707',-19.57594104
'0:12.711',-28.71570159
'0:12.715',-45.18023478
'0:12.719',-36.81832619
'0:12.723',-26.5766087
'0:12.727',-38.17956713
'0:12.730',-28.97498558
'0:12.734',-43.30042587
'0:12.738',-50.56037752
'0:12.742',-72.66433743
'0:12.746',-54.57927932
'0:12.750',-48.09717964
'0:12.754',-45.18023478
'0:12.758',-33.83656034
'0:12.762',-39.47598706
'0:12.766',-53.54214337
'0:12.770',-31.69746744
'0:12.773',-45.69880276
'0:12.777',-48.9398526
'0:12.781',-38.17956713
'0:12.785',-38.43885111
'0:12.789',-32.99388738
'0:12.793',-29.23426956
'0:12.797',-31.69746744
'0:12.801',-36.81832619
'0:12.805',-37.85546214
'0:12.809',-33.57727635
'0:12.813',-14.71436628
'0:12.816',-16.59417519
'0:12.820',-4.47264878
'0:12.824',-5.25050074
'0:12.828',-1.49088293
'0:12.832',17.11274316
'0:12.836',30.5955105
'0:12.840',27.35446066
'0:12.844',58.92228611
'0:12.848',61.57994698
'0:12.852',80.44285705
'0:12.855',79.66500509
'0:12.859',61.83923096
'0:12.863',61.32066299
'0:12.867',61.83923096
'0:12.871',62.68190392
'0:12.875',62.68190392
'0:12.879',46.21737073
'0:12.883',45.95808674
'0:12.887',45.43951877
'0:12.891',60.80209501
'0:12.895',60.54281103
'0:12.898',46.47665472
'0:12.902',47.83789565
'0:12.906',30.5955105
'0:12.910',28.71570159
'0:12.914',27.87302863
'0:12.918',13.35312534
'0:12.922',0.12964199
'0:12.926',-0.38892598
'0:12.930',-3.88925981
'0:12.934',-21.19646596
'0:12.938',-18.47398409
'0:12.941',-31.95675143
'0:12.945',-48.09717964
'0:12.949',-50.8196615
'0:12.953',-68.90471962
'0:12.957',-82.90605493
'0:12.961',-95.54614931
'0:12.965',-96.12953828
'0:12.969',-84.26729586
'0:12.973',-102.028249
'0:12.977',-82.90605493
'0:12.980',-95.28686532
'0:12.984',-95.02758133
'0:12.988',-98.78719915
'0:12.992',-101.250397
'0:12.996',-99.37058812
'0:13.000',-80.18357306
'0:13.004',-64.56171283
'0:13.008',-51.33822948
'0:13.012',-52.44018643
'0:13.016',-49.45842057
'0:13.020',-46.8007597
'0:13.023',-47.57861166
'0:13.027',-50.56037752
'0:13.031',-36.23493722
'0:13.035',-50.04180954
'0:13.039',-46.21737073
'0:13.043',-31.11407847
'0:13.047',-34.93851728
'0:13.051',-20.61307699
'0:13.055',-18.21470011
'0:13.059',1.23159894
'0:13.063',-14.45508229
'0:13.066',-16.59417519
'0:13.070',-3.37069183
'0:13.074',-3.37069183
'0:13.078',-15.49221824
'0:13.082',2.52801888
'0:13.086',-0.38892598
'0:13.090',-18.99255207
'0:13.094',-33.31799236
'0:13.098',-45.95808674
'0:13.102',-30.33622651
'0:13.105',-34.6144123
'0:13.109',-82.38748695
'0:13.113',-78.04448017
'0:13.117',-62.16333595
'0:13.121',-35.19780127
'0:13.125',-37.85546214
'0:13.129',-64.30242884
'0:13.133',-58.07961315
'0:13.137',-45.18023478
'0:13.141',-37.33689417
'0:13.145',-8.2322666
'0:13.148',-17.37202715
'0:13.152',-24.3726948
'0:13.156',-9.85279152
'0:13.160',-35.45708526
'0:13.164',-39.47598706
'0:13.168',-2.85212386
'0:13.172',3.62997582
'0:13.176',20.353793
'0:13.180',30.33622651
'0:13.184',10.88992747
'0:13.188',30.33622651
'0:13.191',34.93851728
'0:13.195',20.09450901
'0:13.199',16.59417519
'0:13.203',12.51045239
'0:13.207',28.4564176
'0:13.211',32.21603542
'0:13.215',50.56037752
'0:13.219',33.31799236
'0:13.223',61.57994698
'0:13.227',75.3219983
'0:13.230',78.04448017
'0:13.234',67.54347868
'0:13.238',68.32133065
'0:13.242',47.57861166
'0:13.246',59.18157009
'0:13.250',75.3219983
'0:13.254',79.92428908
'0:13.258',68.06204666
'0:13.262',35.45708526
'0:13.266',30.85479449
'0:13.270',26.83589268
'0:13.273',-2.26873489
'0:13.277',-27.61374464
'0:13.281',-42.45775292
'0:13.285',-49.45842057
'0:13.289',-70.78452852
'0:13.293',-83.4246229
'0:13.297',-76.68323923
'0:13.301',-76.16467126
'0:13.305',-97.16667423
'0:13.309',-100.991113
'0:13.313',-99.04648314
'0:13.316',-79.14643711
'0:13.320',-16.3348912
'0:13.324',25.99321972
'0:13.328',103.1302059
'0:13.332',154.5980774
'0:13.336',131.9755495
'0:13.340',74.80343033
'0:13.344',-38.43885111
'0:13.348',-109.8715896
'0:13.352',-179.6838032
'0:13.355',-132.7534015
'0:13.359',-115.5110163
'0:13.363',-126.5954068
'0:13.367',-139.4947852
'0:13.371',-126.8546908
'0:13.375',-101.509681
'0:13.379',-71.3030965
'0:13.383',-34.09584433
'0:13.387',-11.99188441
'0:13.391',3.62997582
'0:13.395',-1.49088293
'0:13.398',-18.99255207
'0:13.402',-15.49221824
'0:13.406',-12.2511684
'0:13.410',1.75016691
'0:13.414',-2.26873489
'0:13.418',12.83455737
'0:13.422',16.01078621
'0:13.426',19.57594104
'0:13.430',18.99255207
'0:13.434',-0.12964199
'0:13.438',-1.75016691
'0:13.441',-0.38892598
'0:13.445',-13.61240933
'0:13.449',-13.09384136
'0:13.453',-0.38892598
'0:13.457',-3.11140785
'0:13.461',-1.23159894
'0:13.465',2.85212386
'0:13.469',18.73326808
'0:13.473',15.23293425
'0:13.477',13.61240933
'0:13.480',31.11407847
'0:13.484',33.57727635
'0:13.488',34.35512831
'0:13.492',48.09717964
'0:13.496',61.061379
'0:13.500',61.83923096
'0:13.504',65.92295376
'0:13.508',82.90605493
'0:13.512',79.92428908
'0:13.516',92.88848844
'0:13.520',124.3914929
'0:13.523',96.64810625
'0:13.527',100.991113
'0:13.531',129.2530677
'0:13.535',122.770968
'0:13.539',123.095073
'0:13.543',113.6312074
'0:13.547',117.6501092
'0:13.551',113.1126395
'0:13.555',137.3556923
'0:13.559',136.2537353
'0:13.563',128.4752157
'0:13.566',134.6332104
'0:13.570',114.9924484
'0:13.574',106.6305398
'0:13.578',88.54548165
'0:13.582',94.50901336
'0:13.586',99.8891561
'0:13.590',97.42595822
'0:13.594',91.00867953
'0:13.598',88.80476564
'0:13.602',77.78519618
'0:13.605',82.90605493
'0:13.609',80.76696203
'0:13.613',59.18157009
'0:13.617',57.56104517
'0:13.621',60.80209501
'0:13.625',64.56171283
'0:13.629',48.42128462
'0:13.633',44.59684581
'0:13.637',26.5766087
'0:13.641',12.83455737
'0:13.645',15.75150223
'0:13.648',-0.64820997
'0:13.652',-3.62997582
'0:13.656',-5.76906872
'0:13.660',-19.83522503
'0:13.664',-47.57861166
'0:13.668',-31.43818346
'0:13.672',-36.81832619
'0:13.676',-55.16266829
'0:13.680',-51.33822948
'0:13.684',-47.57861166
'0:13.688',-79.4057211
'0:13.691',-82.64677094
'0:13.695',-55.16266829
'0:13.699',-55.42195228
'0:13.703',-49.71770456
'0:13.707',-61.32066299
'0:13.711',-48.09717964
'0:13.715',-54.57927932
'0:13.719',-55.68123627
'0:13.723',-50.04180954
'0:13.727',-60.80209501
'0:13.730',-62.68190392
'0:13.734',-69.1640036
'0:13.738',-71.56238049
'0:13.742',-67.2841947
'0:13.746',-77.26662821
'0:13.750',-62.16333595
'0:13.754',-68.58061463
'0:13.758',-71.3030965
'0:13.762',-67.02491071
'0:13.766',-61.57994698
'0:13.770',-62.16333595
'0:13.773',-67.02491071
'0:13.777',-69.94185557
'0:13.781',-67.02491071
'0:13.785',-47.06004369
'0:13.789',-78.04448017
'0:13.793',-64.56171283
'0:13.797',-68.90471962
'0:13.801',-68.06204666
'0:13.805',-48.42128462
'0:13.809',-46.47665472
'0:13.813',-48.09717964
'0:13.816',-50.56037752
'0:13.820',-35.45708526
'0:13.824',-48.9398526
'0:13.828',-30.5955105
'0:13.832',-31.69746744
'0:13.836',-34.09584433
'0:13.840',-34.6144123
'0:13.844',-17.11274316
'0:13.848',-31.11407847
'0:13.852',-30.5955105
'0:13.855',-17.11274316
'0:13.859',-19.25183605
'0:13.863',-2.26873489
'0:13.867',0.38892598
'0:13.871',1.75016691
'0:13.875',0.38892598
'0:13.879',-17.37202715
'0:13.883',-1.75016691
'0:13.887',-0.97231495
'0:13.891',0.38892598
'0:13.895',0.64820997
'0:13.898',-0.38892598
'0:13.902',-1.49088293
'0:13.906',14.39026129
'0:13.910',15.23293425
'0:13.914',16.3348912
'0:13.918',16.59417519
'0:13.922',15.49221824
'0:13.926',14.71436628
'0:13.930',-0.38892598
'0:13.934',1.23159894
'0:13.938',0.38892598
'0:13.941',-16.85345917
'0:13.945',-16.85345917
'0:13.949',-16.59417519
'0:13.953',-16.01078621
'0:13.957',-16.3348912
'0:13.961',-16.59417519
'0:13.965',-1.49088293
'0:13.969',-1.49088293
'0:13.973',-0.12964199
'0:13.977',16.01078621
'0:13.980',15.23293425
'0:13.984',14.97365026
'0:13.988',30.85479449
'0:13.992',46.8007597
'0:13.996',47.06004369
'0:14.000',48.09717964
'0:14.004',48.42128462
'0:14.008',32.21603542
'0:14.012',16.3348912
'0:14.016',0.38892598
'0:14.020',-0.12964199
'0:14.023',-1.49088293
'0:14.027',13.87169332
'0:14.031',29.81765854
'0:14.035',15.75150223
'0:14.039',17.63131113
'0:14.043',16.59417519
'0:14.047',13.87169332
'0:14.051',13.09384136
'0:14.055',45.95808674
'0:14.059',78.04448017
'0:14.063',124.3914929
'0:14.066',202.0470471
'0:14.070',218.7708643
'0:14.074',178.3225622
'0:14.078',75.3219983
'0:14.082',10.37135949
'0:14.086',-80.18357306
'0:14.090',-88.80476564
'0:14.094',-57.0424772
'0:14.098',-64.82099682
'0:14.102',-103.9080579
'0:14.105',-91.00867953
'0:14.109',-87.5083457
'0:14.113',-61.32066299
'0:14.117',-21.97431792
'0:14.121',-10.37135949
'0:14.125',-8.49155058
'0:14.129',-17.63131113
'0:14.133',-10.1120755
'0:14.137',-7.13030965
'0:14.141',3.37069183
'0:14.145',-8.2322666
'0:14.148',-14.71436628
'0:14.152',-23.85412683
'0:14.156',-8.2322666
'0:14.160',-0.12964199
'0:14.164',6.35245769
'0:14.168',2.85212386
'0:14.172',10.1120755
'0:14.176',7.71369862
'0:14.180',14.71436628
'0:14.184',6.0931737
'0:14.188',35.19780127
'0:14.191',25.99321972
'0:14.195',23.85412683
'0:14.199',30.85479449
'0:14.203',22.23360191
'0:14.207',35.71636925
'0:14.211',11.21403245
'0:14.215',24.11341082
'0:14.219',13.87169332
'0:14.223',20.87236098
'0:14.227',35.19780127
'0:14.230',27.09517667
'0:14.234',9.01011856
'0:14.238',14.97365026
'0:14.242',20.09450901
'0:14.246',17.95541612
'0:14.250',11.73260042
'0:14.254',9.85279152
'0:14.258',-1.23159894
'0:14.262',3.62997582
'0:14.266',-13.61240933
'0:14.270',-19.25183605
'0:14.273',-37.59617815
'0:14.277',-33.83656034
'0:14.281',-30.07694252
'0:14.285',-30.85479449
'0:14.289',-34.93851728
'0:14.293',-36.81832619
'0:14.297',-18.73326808
'0:14.301',-31.11407847
'0:14.305',-30.07694252
'0:14.309',-32.99388738
'0:14.313',-36.23493722
'0:14.316',-35.19780127
'0:14.320',-16.3348912
'0:14.324',-15.23293425
'0:14.328',-16.59417519
'0:14.332',-2.85212386
'0:14.336',12.2511684
'0:14.340',14.39026129
'0:14.344',32.73460339
'0:14.348',47.57861166
'0:14.352',45.18023478
'0:14.355',45.43951877
'0:14.359',32.21603542
'0:14.363',49.19913658
'0:14.367',46.47665472
'0:14.371',44.59684581
'0:14.375',45.69880276
'0:14.379',48.09717964
'0:14.383',33.31799236
'0:14.387',16.3348912
'0:14.391',13.87169332
'0:14.395',12.51045239
'0:14.398',13.87169332
'0:14.402',0.38892598
'0:14.406',-14.45508229
'0:14.410',-16.85345917
'0:14.414',-4.47264878
'0:14.418',-4.99121675
'0:14.422',-16.3348912
'0:14.426',-13.09384136
'0:14.430',-46.47665472
'0:14.434',-65.92295376
'0:14.438',-67.80276267
'0:14.441',-82.06338197
'0:14.445',-63.45975588
'0:14.449',-48.9398526
'0:14.453',-82.06338197
'0:14.457',-81.02624602
'0:14.461',-49.45842057
'0:14.465',-35.45708526
'0:14.469',-50.30109353
'0:14.473',-46.8007597
'0:14.477',-61.90405196
'0:14.480',-33.31799236
'0:14.484',-37.33689417
'0:14.488',-4.1485438
'0:14.492',15.23293425
'0:14.496',18.21470011
'0:14.500',1.75016691
'0:14.504',14.71436628
'0:14.508',27.35446066
'0:14.512',28.97498558
'0:14.516',48.9398526
'0:14.520',49.97698855
'0:14.523',63.2004719
'0:14.527',91.00867953
'0:14.531',199.3893862
'0:14.535',217.1503393
'0:14.539',164.5805109
'0:14.543',109.0289167
'0:14.547',86.14710477
'0:14.551',147.8566937
'0:14.555',141.698699
'0:14.559',64.82099682
'0:14.563',-40.05937603
'0:14.566',-108.5103487
'0:14.570',-122.2524
'0:14.574',-124.9748819
'0:14.578',-62.16333595
'0:14.582',-19.57594104
'0:14.586',1.75016691
'0:14.590',-34.35512831
'0:14.594',-51.07894549
'0:14.598',-59.95942206
'0:14.602',-39.47598706
'0:14.605',-33.57727635
'0:14.609',-48.68056861
'0:14.613',-63.45975588
'0:14.617',-74.80343033
'0:14.621',-57.82032916
'0:14.625',-67.2841947
'0:14.629',-78.56304814
'0:14.633',-92.62920445
'0:14.637',-75.64610329
'0:14.641',-77.52591219
'0:14.645',-83.68390689
'0:14.648',-91.00867953
'0:14.652',-105.2692988
'0:14.656',-107.7324967
'0:14.660',-96.12953828
'0:14.664',-70.78452852
'0:14.668',-90.74939554
'0:14.672',-101.250397
'0:14.676',-104.7507309
'0:14.680',-81.80409798
'0:14.684',-74.02557837
'0:14.688',-74.54414634
'0:14.691',-66.44152174
'0:14.695',-71.04381251
'0:14.699',-65.92295376
'0:14.703',-58.33889714
'0:14.707',-42.7170369
'0:14.711',-49.71770456
'0:14.715',-38.17956713
'0:14.719',-34.09584433
'0:14.723',-27.09517667
'0:14.727',-25.99321972
'0:14.730',-31.69746744
'0:14.734',-67.2841947
'0:14.738',-64.30242884
'0:14.742',-91.00867953
'0:14.746',-90.42529056
'0:14.750',-96.12953828
'0:14.754',-100.1484401
'0:14.758',-97.49077921
'0:14.762',-91.78653149
'0:14.766',-75.06271431
'0:14.770',-64.30242884
'0:14.773',-67.54347868
'0:14.777',-64.30242884
'0:14.781',-58.92228611
'0:14.785',-12.2511684
'0:14.789',12.83455737
'0:14.793',73.18290541
'0:14.797',140.0781741
'0:14.801',163.21927
'0:14.805',136.8371243
'0:14.809',57.30176119
'0:14.813',20.353793
'0:14.816',-32.99388738
'0:14.820',-32.99388738
'0:14.824',-61.061379
'0:14.828',-120.1133071
'0:14.832',-198.5467133
'0:14.836',-204.769529
'0:14.840',-197.7688613
'0:14.844',-167.0437088
'0:14.848',-96.90739024
'0:14.852',-75.06271431
'0:14.855',-58.66300212
'0:14.859',-31.95675143
'0:14.863',10.88992747
'0:14.867',29.49355355
'0:14.871',52.9587544
'0:14.875',133.5960744
'0:14.879',204.18614
'0:14.883',277.8227924
'0:14.887',177.2854263
'0:14.891',24.3726948
'0:14.895',-68.32133065
'0:14.898',-110.1308736
'0:14.902',-118.4927822
'0:14.906',-126.5954068
'0:14.910',-82.64677094
'0:14.914',-26.31732471
'0:14.918',77.52591219
'0:14.922',102.028249
'0:14.926',130.0957406
'0:14.930',161.3394611
'0:14.934',93.6663404
'0:14.938',-19.25183605
'0:14.941',-122.2524
'0:14.945',-140.5967421
'0:14.949',-108.7696327
'0:14.953',-66.18223775
'0:14.957',-42.19846893
'0:14.961',-40.57794401
'0:14.965',-25.47465175
'0:14.969',-12.2511684
'0:14.973',-17.63131113
'0:14.977',-7.38959364
'0:14.980',24.69679979
'0:14.984',81.80409798
'0:14.988',109.2882006
'0:14.992',64.04314486
'0:14.996',-10.88992747
'0:15.000',-89.12887062
'0:15.004',-121.474548
'0:15.008',-121.733832
'0:15.012',-61.061379
'0:15.016',-37.07761018
'0:15.020',-26.31732471
'0:15.023',10.1120755
'0:15.027',23.33555885
'0:15.031',34.35512831
'0:15.035',28.97498558
'0:15.039',25.99321972
'0:15.043',13.35312534
'0:15.047',7.97298261
'0:15.051',0.64820997
'0:15.055',11.47331644
'0:15.059',86.66567274
'0:15.063',150.5791756
'0:15.066',147.5974098
'0:15.070',102.028249
'0:15.074',39.73527105
'0:15.078',0.64820997
'0:15.082',-23.59484284
'0:15.086',-3.11140785
'0:15.090',26.83589268
'0:15.094',63.45975588
'0:15.098',79.66500509
'0:15.102',92.62920445
'0:15.105',80.18357306
'0:15.109',137.6149762
'0:15.113',139.2355012
'0:15.117',82.38748695
'0:15.121',-7.13030965
'0:15.125',-68.58061463
'0:15.129',-71.82166447
'0:15.133',-48.09717964
'0:15.137',-40.31866002
'0:15.141',-25.99321972
'0:15.145',-34.35512831
'0:15.148',-6.87102566
'0:15.152',44.33756182
'0:15.156',67.2841947
'0:15.160',39.73527105
'0:15.164',-9.33422354
'0:15.168',46.47665472
'0:15.172',70.52524454
'0:15.176',13.87169332
'0:15.180',-65.0802808
'0:15.184',-140.3374581
'0:15.188',-110.3901576
'0:15.191',-99.04648314
'0:15.195',-62.94118791
'0:15.199',6.61174168
'0:15.203',2.52801888
'0:15.207',-38.43885111
'0:15.211',-71.04381251
'0:15.215',-90.42529056
'0:15.219',-62.16333595
'0:15.223',-21.19646596
'0:15.227',4.99121675
'0:15.230',-21.19646596
'0:15.234',-5.50978473
'0:15.238',2.85212386
'0:15.242',9.26940254
'0:15.246',5.76906872
'0:15.250',-2.59283987
'0:15.254',-4.73193277
'0:15.258',1.75016691
'0:15.262',7.71369862
'0:15.266',-25.21536776
'0:15.270',-46.47665472
'0:15.273',-50.56037752
'0:15.277',-48.68056861
'0:15.281',-44.07827784
'0:15.285',-57.82032916
'0:15.289',-60.54281103
'0:15.293',-49.71770456
'0:15.297',-50.30109353
'0:15.301',-45.43951877
'0:15.305',-41.35579597
'0:15.309',-43.55970986
'0:15.313',-63.78386087
'0:15.316',-95.28686532
'0:15.320',-122.511684
'0:15.324',-120.8911591
'0:15.328',-110.1308736
'0:15.332',-114.9924484
'0:15.336',-96.90739024
'0:15.340',-91.26796352
'0:15.344',-72.92362142
'0:15.348',-61.32066299
'0:15.352',-65.66366978
'0:15.355',-63.45975588
'0:15.359',-58.07961315
'0:15.363',-56.45908823
'0:15.367',-60.54281103
'0:15.371',-64.30242884
'0:15.375',-78.56304814
'0:15.379',-58.33889714
'0:15.383',-42.45775292
'0:15.387',-61.061379
'0:15.391',-61.90405196
'0:15.395',-75.90538727
'0:15.398',-58.33889714
'0:15.402',-75.3219983
'0:15.406',-76.42395525
'0:15.410',-76.94252322
'0:15.414',-76.16467126
'0:15.418',-90.42529056
'0:15.422',-89.90672259
'0:15.426',-91.78653149
'0:15.430',-93.40705641
'0:15.434',-76.94252322
'0:15.438',-59.95942206
'0:15.441',-58.92228611
'0:15.445',-42.7170369
'0:15.449',-74.80343033
'0:15.453',-58.33889714
'0:15.457',-44.33756182
'0:15.461',-60.54281103
'0:15.465',-73.44218939
'0:15.469',-72.14576946
'0:15.473',-74.28486235
'0:15.477',-77.26662821
'0:15.480',-45.69880276
'0:15.484',-43.81899385
'0:15.488',-40.31866002
'0:15.492',-55.42195228
'0:15.496',-42.45775292
'0:15.500',-30.33622651
'0:15.504',-29.49355355
'0:15.508',-9.01011856
'0:15.512',23.85412683
'0:15.516',67.2841947
'0:15.520',126.2713018
'0:15.523',206.1307699
'0:15.527',290.2036028
'0:15.531',295.5837455
'0:15.535',252.4777826
'0:15.539',188.5642797
'0:15.543',120.3725911
'0:15.547',52.9587544
'0:15.551',67.54347868
'0:15.555',35.71636925
'0:15.559',-54.57927932
'0:15.563',-67.54347868
'0:15.566',-59.44085408
'0:15.570',-6.35245769
'0:15.574',9.85279152
'0:15.578',38.11474613
'0:15.582',46.47665472
'0:15.586',41.09651198
'0:15.590',30.07694252
'0:15.594',27.61374464
'0:15.598',36.5590422
'0:15.602',44.07827784
'0:15.605',41.09651198
'0:15.609',31.95675143
'0:15.613',28.71570159
'0:15.617',35.19780127
'0:15.621',26.83589268
'0:15.625',25.73393574
'0:15.629',17.37202715
'0:15.633',13.09384136
'0:15.637',17.63131113
'0:15.641',9.26940254
'0:15.645',10.1120755
'0:15.648',2.85212386
'0:15.652',-2.85212386
'0:15.656',0.64820997
'0:15.660',7.71369862
'0:15.664',9.26940254
'0:15.668',3.62997582
'0:15.672',-16.85345917
'0:15.676',-14.45508229
'0:15.680',5.76906872
'0:15.684',6.61174168
'0:15.688',-11.73260042
'0:15.691',1.49088293
'0:15.695',16.85345917
'0:15.699',19.25183605
'0:15.703',6.87102566
'0:15.707',22.4928859
'0:15.711',33.31799236
'0:15.715',31.11407847
'0:15.719',50.56037752
'0:15.723',38.95741909
'0:15.727',39.73527105
'0:15.730',35.19780127
'0:15.734',47.06004369
'0:15.738',32.99388738
'0:15.742',38.6981351
'0:15.746',40.05937603
'0:15.750',35.45708526
'0:15.754',31.11407847
'0:15.758',32.73460339
'0:15.762',37.59617815
'0:15.766',39.21670307
'0:15.770',51.07894549
'0:15.773',62.42261994
'0:15.777',63.45975588
'0:15.781',69.42328759
'0:15.785',71.82166447
'0:15.789',52.69947041
'0:15.793',48.42128462
'0:15.797',47.57861166
'0:15.801',35.71636925
'0:15.805',38.95741909
'0:15.809',36.5590422
'0:15.813',16.59417519
'0:15.816',16.01078621
'0:15.820',18.99255207
'0:15.824',21.13164496
'0:15.828',19.83522503
'0:15.832',1.75016691
'0:15.836',1.49088293
'0:15.840',2.52801888
'0:15.844',3.62997582
'0:15.848',3.11140785
'0:15.852',2.0094509
'0:15.855',1.49088293
'0:15.859',2.26873489
'0:15.863',3.37069183
'0:15.867',3.11140785
'0:15.871',17.63131113
'0:15.875',1.23159894
'0:15.879',3.11140785
'0:15.883',19.57594104
'0:15.887',17.95541612
'0:15.891',1.75016691
'0:15.895',18.73326808
'0:15.898',3.11140785
'0:15.902',3.37069183
'0:15.906',2.26873489
'0:15.910',16.85345917
'0:15.914',16.85345917
'0:15.918',18.73326808
'0:15.922',20.09450901
'0:15.926',18.99255207
'0:15.930',1.75016691
'0:15.934',2.0094509
'0:15.938',2.52801888
'0:15.941',-12.51045239
'0:15.945',-12.51045239
'0:15.949',-29.49355355
'0:15.953',-45.43951877
'0:15.957',-45.18023478
'0:15.961',-61.061379
'0:15.965',-61.32066299
'0:15.969',-77.26662821
'0:15.973',-107.9917807
'0:15.977',-138.4576492
'0:15.980',-124.3914929
'0:15.984',-159.2003682
'0:15.988',-158.0984112
'0:15.992',-171.5811786
'0:15.996',-170.5440426
'0:16.000',-172.6831355
'0:16.004',-174.8222284
'0:16.008',-174.0443765
'0:16.012',-155.9593183
'0:16.016',-155.1814664
'0:16.020',-140.3374581
'0:16.023',-126.0120178
'0:16.027',-110.1308736
'0:16.031',-92.04581548
'0:16.035',-74.54414634
'0:16.039',-74.80343033
'0:16.043',-59.95942206
'0:16.047',-29.81765854
'0:16.051',1.75016691
'0:16.055',19.83522503
'0:16.059',7.38959364
'0:16.063',24.11341082
'0:16.066',35.71636925
'0:16.070',32.99388738
'0:16.074',51.33822948
'0:16.078',86.14710477
'0:16.082',101.768965
'0:16.086',100.1484401
'0:16.090',115.5110163
'0:16.094',147.0788418
'0:16.098',132.4941175
'0:16.102',119.5947391
'0:16.105',119.5947391
'0:16.109',100.1484401
'0:16.113',113.6312074
'0:16.117',129.5123516
'0:16.121',132.2348335
'0:16.125',134.6332104
'0:16.129',148.9586507
'0:16.133',130.0957406
'0:16.137',114.7331644
'0:16.141',70.78452852
'0:16.145',72.40505344
'0:16.148',51.59751347
'0:16.152',47.57861166
'0:16.156',48.09717964
'0:16.160',52.44018643
'0:16.164',39.21670307
'0:16.168',52.18090244
'0:16.172',62.68190392
'0:16.176',62.16333595
'0:16.180',67.54347868
'0:16.184',56.19980424
'0:16.188',115.7703003
'0:16.191',123.095073
'0:16.195',170.5440426
'0:16.199',240.0969722
'0:16.203',230.3738227
'0:16.207',154.8573614
'0:16.211',42.97632089
'0:16.215',-41.09651198
'0:16.219',-125.7527338
'0:16.223',-97.16667423
'0:16.227',-36.81832619
'0:16.230',-34.93851728
'0:16.234',-58.07961315
'0:16.238',-23.59484284
'0:16.242',-15.75150223
'0:16.246',8.75083457
'0:16.250',27.35446066
'0:16.254',37.59617815
'0:16.258',57.56104517
'0:16.262',35.45708526
'0:16.266',12.83455737
'0:16.270',13.61240933
'0:16.273',19.57594104
'0:16.277',7.13030965
'0:16.281',-11.47331644
'0:16.285',-16.85345917
'0:16.289',-18.73326808
'0:16.293',-30.5955105
'0:16.297',-25.73393574
'0:16.301',-27.35446066
'0:16.305',-48.09717964
'0:16.309',-49.71770456
'0:16.313',-62.42261994
'0:16.316',-58.66300212
'0:16.320',-59.95942206
'0:16.324',-64.04314486
'0:16.328',-34.6144123
'0:16.332',-17.11274316
'0:16.336',-12.2511684
'0:16.340',-10.1120755
'0:16.344',-12.83455737
'0:16.348',-1.49088293
'0:16.352',-1.75016691
'0:16.355',18.21470011
'0:16.359',21.13164496
'0:16.363',20.09450901
'0:16.367',31.95675143
'0:16.371',30.33622651
'0:16.375',49.19913658
'0:16.379',67.80276267
'0:16.383',67.54347868
'0:16.387',80.76696203
'0:16.391',79.4057211
'0:16.395',96.64810625
'0:16.398',114.4090594
'0:16.402',114.4090594
'0:16.406',98.26863118
'0:16.410',98.00934719
'0:16.414',81.544814
'0:16.418',66.18223775
'0:16.422',50.8196615
'0:16.426',49.97698855
'0:16.430',48.09717964
'0:16.434',47.57861166
'0:16.438',48.9398526
'0:16.441',50.30109353
'0:16.445',34.35512831
'0:16.449',32.99388738
'0:16.453',0.64820997
'0:16.457',-13.87169332
'0:16.461',-44.59684581
'0:16.465',-45.95808674
'0:16.469',-64.56171283
'0:16.473',-80.18357306
'0:16.477',-78.30376416
'0:16.480',-77.78519618
'0:16.484',-79.14643711
'0:16.488',-80.44285705
'0:16.492',-79.92428908
'0:16.496',-62.94118791
'0:16.500',-62.68190392
'0:16.504',-47.31932768
'0:16.508',-63.2004719
'0:16.512',-61.90405196
'0:16.516',-46.21737073
'0:16.520',-32.21603542
'0:16.523',-32.47531941
'0:16.527',-14.71436628
'0:16.531',-28.71570159
'0:16.535',-43.81899385
'0:16.539',-45.43951877
'0:16.543',-48.42128462
'0:16.547',-32.73460339
'0:16.551',15.49221824
'0:16.555',16.85345917
'0:16.559',19.57594104
'0:16.563',35.19780127
'0:16.566',32.73460339
'0:16.570',16.59417519
'0:16.574',34.09584433
'0:16.578',34.6144123
'0:16.582',34.09584433
'0:16.586',33.31799236
'0:16.590',32.99388738
'0:16.594',18.47398409
'0:16.598',19.25183605
'0:16.602',2.52801888
'0:16.605',-14.13097731
'0:16.609',-30.07694252
'0:16.613',-29.81765854
'0:16.617',-15.23293425
'0:16.621',-0.64820997
'0:16.625',0.12964199
'0:16.629',-27.87302863
'0:16.633',-26.31732471
'0:16.637',-30.07694252
'0:16.641',-18.47398409
'0:16.645',-18.21470011
'0:16.648',-12.83455737
'0:16.652',-9.85279152
'0:16.656',-28.19713362
'0:16.660',-47.83789565
'0:16.664',-64.04314486
'0:16.668',-61.32066299
'0:16.672',-60.28352704
'0:16.676',-61.57994698
'0:16.680',-63.78386087
'0:16.684',-63.45975588
'0:16.688',-45.95808674
'0:16.691',-45.18023478
'0:16.695',-45.18023478
'0:16.699',-30.5955105
'0:16.703',-31.43818346
'0:16.707',-30.07694252
'0:16.711',-43.81899385
'0:16.715',-58.92228611
'0:16.719',-61.061379
'0:16.723',-48.42128462
'0:16.727',-48.68056861
'0:16.730',-29.23426956
'0:16.734',-27.09517667
'0:16.738',-43.30042587
'0:16.742',-60.80209501
'0:16.746',-62.16333595
'0:16.750',-46.8007597
'0:16.754',-45.95808674
'0:16.758',-59.44085408
'0:16.762',-43.30042587
'0:16.766',-45.95808674
'0:16.770',-47.31932768
'0:16.773',-30.07694252
'0:16.777',-28.19713362
'0:16.781',-27.09517667
'0:16.785',-28.4564176
'0:16.789',-14.45508229
'0:16.793',-14.97365026
'0:16.797',-27.87302863
'0:16.801',-40.83722799
'0:16.805',-57.82032916
'0:16.809',-77.26662821
'0:16.813',-79.14643711
'0:16.816',-108.5103487
'0:16.820',-89.6474386
'0:16.824',-91.26796352
'0:16.828',-63.45975588
'0:16.832',-49.19913658
'0:16.836',-29.49355355
'0:16.840',-9.59350753
'0:16.844',5.76906872
'0:16.848',2.52801888
'0:16.852',16.85345917
'0:16.855',34.35512831
'0:16.859',68.06204666
'0:16.863',114.9924484
'0:16.867',190.4440887
'0:16.871',267.8403589
'0:16.875',272.9612176
'0:16.879',235.4946814
'0:16.883',145.1990329
'0:16.887',75.06271431
'0:16.891',15.75150223
'0:16.895',41.93918494
'0:16.898',31.11407847
'0:16.902',-51.33822948
'0:16.906',-63.45975588
'0:16.910',-61.57994698
'0:16.914',-44.33756182
'0:16.918',-24.69679979
'0:16.922',7.97298261
'0:16.926',16.3348912
'0:16.930',6.61174168
'0:16.934',8.49155058
'0:16.938',7.97298261
'0:16.941',6.0931737
'0:16.945',30.85479449
'0:16.949',23.07627487
'0:16.953',-4.99121675
'0:16.957',25.21536776
'0:16.961',34.6144123
'0:16.965',43.55970986
'0:16.969',25.21536776
'0:16.973',-30.85479449
'0:16.977',-49.71770456
'0:16.980',-46.47665472
'0:16.984',-57.56104517
'0:16.988',-57.30176119
'0:16.992',-62.42261994
'0:16.996',-81.02624602
'0:17.000',-78.04448017
'0:17.004',-74.28486235
'0:17.008',-74.54414634
'0:17.012',-78.04448017
'0:17.016',-49.19913658
'0:17.020',-17.11274316
'0:17.023',2.52801888
'0:17.027',6.35245769
'0:17.031',36.81832619
'0:17.035',47.83789565
'0:17.039',47.06004369
'0:17.043',36.5590422
'0:17.047',56.19980424
'0:17.051',68.06204666
'0:17.055',62.68190392
'0:17.059',78.88715313
'0:17.063',84.00801188
'0:17.066',103.1302059
'0:17.070',84.78586384
'0:17.074',96.38882227
'0:17.078',110.3901576
'0:17.082',98.26863118
'0:17.086',118.4927822
'0:17.090',116.8722573
'0:17.094',112.5292505
'0:17.098',110.9087256
'0:17.102',113.8904914
'0:17.105',101.509681
'0:17.109',101.250397
'0:17.113',81.28553001
'0:17.117',94.50901336
'0:17.121',126.2713018
'0:17.125',175.3407964
'0:17.129',192.9072865
'0:17.133',194.5278115
'0:17.137',148.4400827
'0:17.141',101.768965
'0:17.145',67.80276267
'0:17.148',48.09717964
'0:17.152',45.69880276
'0:17.156',47.06004369
'0:17.160',49.97698855
'0:17.164',50.56037752
'0:17.168',79.14643711
'0:17.172',60.80209501
'0:17.176',63.78386087
'0:17.180',67.2841947
'0:17.184',66.44152174
'0:17.188',62.68190392
'0:17.191',45.43951877
'0:17.195',48.09717964
'0:17.199',34.6144123
'0:17.203',18.73326808
'0:17.207',30.85479449
'0:17.211',27.87302863
'0:17.215',29.81765854
'0:17.219',18.73326808
'0:17.223',19.83522503
'0:17.227',0.12964199
'0:17.230',-3.37069183
'0:17.234',-18.47398409
'0:17.238',0.97231495
'0:17.242',1.49088293
'0:17.246',-16.01078621
'0:17.250',-17.37202715
'0:17.254',-32.99388738
'0:17.258',-62.16333595
'0:17.262',-76.68323923
'0:17.266',-95.02758133
'0:17.270',-113.8904914
'0:17.273',-129.5123516
'0:17.277',-142.476551
'0:17.281',-141.698699
'0:17.285',-144.0970759
'0:17.289',-131.1328766
'0:17.293',-130.6143086
'0:17.297',-157.3205593
'0:17.301',-169.7013697
'0:17.305',-188.5642797
'0:17.309',-178.9059512
'0:17.313',-165.4231839
'0:17.316',-160.3023251
'0:17.320',-123.095073
'0:17.324',-93.40705641
'0:17.328',-67.2841947
'0:17.332',-83.16533892
'0:17.336',-60.54281103
'0:17.340',-72.66433743
'0:17.344',-59.70013807
'0:17.348',-66.18223775
'0:17.352',-66.70080572
'0:17.355',-45.43951877
'0:17.359',-26.31732471
'0:17.363',-28.19713362
'0:17.367',-31.69746744
'0:17.371',-16.85345917
'0:17.375',-29.49355355
'0:17.379',-25.73393574
'0:17.383',-27.09517667
'0:17.387',-15.75150223
'0:17.391',-2.26873489
'0:17.395',-14.45508229
'0:17.398',-8.75083457
'0:17.402',-9.33422354
'0:17.406',-14.97365026
'0:17.410',-17.95541612
'0:17.414',-14.71436628
'0:17.418',-40.83722799
'0:17.422',-39.73527105
'0:17.426',-45.95808674
'0:17.430',-66.18223775
'0:17.434',-63.2004719
'0:17.438',-42.45775292
'0:17.441',-42.19846893
'0:17.445',-61.061379
'0:17.449',-78.56304814
'0:17.453',-61.90405196
'0:17.457',-45.43951877
'0:17.461',-29.49355355
'0:17.465',-29.23426956
'0:17.469',-28.4564176
'0:17.473',-12.51045239
'0:17.477',-13.35312534
'0:17.480',2.26873489
'0:17.484',2.85212386
'0:17.488',-11.21403245
'0:17.492',4.99121675
'0:17.496',17.95541612
'0:17.500',16.59417519
'0:17.504',34.35512831
'0:17.508',52.44018643
'0:17.512',52.44018643
'0:17.516',51.33822948
'0:17.520',50.56037752
'0:17.523',50.8196615
'0:17.527',82.64677094
'0:17.531',143.8377919
'0:17.535',189.4069527
'0:17.539',254.6168755
'0:17.543',336.2913315
'0:17.547',338.4952454
'0:17.551',264.080741
'0:17.555',173.2017035
'0:17.559',106.1119718
'0:17.563',18.21470011
'0:17.566',13.35312534
'0:17.570',-1.49088293
'0:17.574',-88.80476564
'0:17.578',-115.5110163
'0:17.582',-93.14777243
'0:17.586',-59.44085408
'0:17.590',-27.35446066
'0:17.594',18.47398409
'0:17.598',28.97498558
'0:17.602',8.75083457
'0:17.605',-3.62997582
'0:17.609',-8.2322666
'0:17.613',-0.12964199
'0:17.617',9.59350753
'0:17.621',8.2322666
'0:17.625',13.87169332
'0:17.629',8.49155058
'0:17.633',14.97365026
'0:17.637',9.01011856
'0:17.641',9.26940254
'0:17.645',15.23293425
'0:17.648',-7.38959364
'0:17.652',14.13097731
'0:17.656',22.75216988
'0:17.660',24.11341082
'0:17.664',16.85345917
'0:17.668',-4.47264878
'0:17.672',14.13097731
'0:17.676',35.45708526
'0:17.680',21.71503393
'0:17.684',34.35512831
'0:17.688',29.49355355
'0:17.691',30.07694252
'0:17.695',34.93851728
'0:17.699',52.69947041
'0:17.703',34.09584433
'0:17.707',31.11407847
'0:17.711',46.47665472
'0:17.715',33.31799236
'0:17.719',36.23493722
'0:17.723',50.56037752
'0:17.727',30.85479449
'0:17.730',31.11407847
'0:17.734',33.57727635
'0:17.738',35.19780127
'0:17.742',33.83656034
'0:17.746',16.01078621
'0:17.750',16.01078621
'0:17.754',1.75016691
'0:17.758',17.95541612
'0:17.762',16.01078621
'0:17.766',15.23293425
'0:17.770',16.3348912
'0:17.773',17.95541612
'0:17.777',17.95541612
'0:17.781',16.3348912
'0:17.785',15.23293425
'0:17.789',0.64820997
'0:17.793',17.95541612
'0:17.797',16.85345917
'0:17.801',30.85479449
'0:17.805',30.85479449
'0:17.809',32.99388738
'0:17.813',34.6144123
'0:17.816',33.57727635
'0:17.820',31.11407847
'0:17.824',30.85479449
'0:17.828',32.47531941
'0:17.832',49.45842057
'0:17.836',48.42128462
'0:17.840',47.31932768
'0:17.844',32.47531941
'0:17.848',49.19913658
'0:17.852',48.09717964
'0:17.855',31.69746744
'0:17.859',17.11274316
'0:17.863',17.63131113
'0:17.867',0.64820997
'0:17.871',-0.64820997
'0:17.875',-0.97231495
'0:17.879',-15.49221824
'0:17.883',1.23159894
'0:17.887',-15.75150223
'0:17.891',-16.3348912
'0:17.895',-16.59417519
'0:17.898',-16.01078621
'0:17.902',-15.75150223
'0:17.906',-31.11407847
'0:17.910',-31.11407847
'0:17.914',-47.57861166
'0:17.918',-32.47531941
'0:17.922',-33.31799236
'0:17.926',-47.57861166
'0:17.930',-45.95808674
'0:17.934',-62.16333595
'0:17.938',-79.4057211
'0:17.941',-95.87025429
'0:17.945',-95.54614931
'0:17.949',-110.9087256
'0:17.953',-126.0120178
'0:17.957',-141.957983
'0:17.961',-143.319224
'0:17.965',-144.6156439
'0:17.969',-144.0970759
'0:17.973',-127.1139748
'0:17.977',-141.957983
'0:17.980',-156.7371703
'0:17.984',-157.5798433
'0:17.988',-159.4596522
'0:17.992',-144.6156439
'0:17.996',-143.319224
'0:18.000',-125.2341659
'0:18.004',-124.9748819
'0:18.008',-95.02758133
'0:18.012',-96.38882227
'0:18.016',-93.92562439
'0:18.020',-91.00867953
'0:18.023',-75.64610329
'0:18.027',-63.45975588
'0:18.031',-49.19913658
'0:18.035',-45.95808674
'0:18.039',-26.31732471
'0:18.043',-26.5766087
'0:18.047',-45.18023478
'0:18.051',-15.23293425
'0:18.055',-15.23293425
'0:18.059',3.62997582
'0:18.063',20.87236098
'0:18.066',34.93851728
'0:18.070',33.31799236
'0:18.074',34.6144123
'0:18.078',36.81832619
'0:18.082',52.69947041
'0:18.086',65.66366978
'0:18.090',64.56171283
'0:18.094',67.2841947
'0:18.098',69.94185557
'0:18.102',68.90471962
'0:18.105',50.56037752
'0:18.109',65.0802808
'0:18.113',81.02624602
'0:18.117',51.92161845
'0:18.121',70.20113955
'0:18.125',67.2841947
'0:18.129',64.04314486
'0:18.133',64.56171283
'0:18.137',83.16533892
'0:18.141',68.90471962
'0:18.145',68.06204666
'0:18.148',49.97698855
'0:18.152',33.57727635
'0:18.156',3.88925981
'0:18.160',5.25050074
'0:18.164',2.26873489
'0:18.168',14.97365026
'0:18.172',-0.12964199
'0:18.176',4.1485438
'0:18.180',5.50978473
'0:18.184',2.26873489
'0:18.188',14.39026129
'0:18.191',14.71436628
'0:18.195',34.93851728
'0:18.199',52.44018643
'0:18.203',96.64810625
'0:18.207',154.8573614
'0:18.211',202.6304361
'0:18.215',210.1496717
'0:18.219',170.8033266
'0:18.223',76.68323923
'0:18.227',-9.01011856
'0:18.230',-95.54614931
'0:18.234',-128.7344997
'0:18.238',-64.82099682
'0:18.242',-80.76696203
'0:18.246',-123.8729249
'0:18.250',-105.7878668
'0:18.254',-64.56171283
'0:18.258',-39.47598706
'0:18.262',-20.09450901
'0:18.266',-10.37135949
'0:18.270',-21.71503393
'0:18.273',-43.30042587
'0:18.277',-51.33822948
'0:18.281',-83.4246229
'0:18.285',-91.00867953
'0:18.289',-71.3030965
'0:18.293',-92.88848844
'0:18.297',-98.78719915
'0:18.301',-113.6312074
'0:18.305',-107.1491077
'0:18.309',-104.7507309
'0:18.313',-108.7696327
'0:18.316',-98.26863118
'0:18.320',-113.3719234
'0:18.324',-106.8898238
'0:18.328',-103.9080579
'0:18.332',-92.62920445
'0:18.336',-98.26863118
'0:18.340',-81.28553001
'0:18.344',-59.95942206
'0:18.348',-25.99321972
'0:18.352',-13.35312534
'0:18.355',-31.43818346
'0:18.359',-28.97498558
'0:18.363',4.73193277
'0:18.367',18.99255207
'0:18.371',32.99388738
'0:18.375',33.83656034
'0:18.379',37.07761018
'0:18.383',38.11474613
'0:18.387',51.33822948
'0:18.391',63.78386087
'0:18.395',49.19913658
'0:18.398',69.68257158
'0:18.402',85.5637158
'0:18.406',82.38748695
'0:18.410',80.44285705
'0:18.414',82.64677094
'0:18.418',85.30443181
'0:18.422',85.04514782
'0:18.426',97.7500632
'0:18.430',80.18357306
'0:18.434',51.92161845
'0:18.438',39.73527105
'0:18.441',37.33689417
'0:18.445',31.69746744
'0:18.449',14.71436628
'0:18.453',19.25183605
'0:18.457',7.13030965
'0:18.461',5.25050074
'0:18.465',15.23293425
'0:18.469',13.09384136
'0:18.473',33.31799236
'0:18.477',37.85546214
'0:18.480',37.59617815
'0:18.484',33.31799236
'0:18.488',30.5955105
'0:18.492',48.09717964
'0:18.496',67.2841947
'0:18.500',68.06204666
'0:18.504',82.06338197
'0:18.508',79.66500509
'0:18.512',80.76696203
'0:18.516',98.78719915
'0:18.520',99.04648314
'0:18.523',82.38748695
'0:18.527',97.16667423
'0:18.531',96.12953828
'0:18.535',81.544814
'0:18.539',68.32133065
'0:18.543',52.18090244
'0:18.547',64.56171283
'0:18.551',45.95808674
'0:18.555',48.42128462
'0:18.559',35.97565323
'0:18.563',20.87236098
'0:18.566',17.37202715
'0:18.570',13.35312534
'0:18.574',14.13097731
'0:18.578',18.21470011
'0:18.582',35.45708526
'0:18.586',17.11274316
'0:18.590',-0.38892598
'0:18.594',15.75150223
'0:18.598',16.3348912
'0:18.602',2.0094509
'0:18.605',2.52801888
'0:18.609',16.01078621
'0:18.613',13.87169332
'0:18.617',15.49221824
'0:18.621',3.11140785
'0:18.625',3.88925981
'0:18.629',-14.97365026
'0:18.633',-17.37202715
'0:18.637',-17.11274316
'0:18.641',0.64820997
'0:18.645',1.75016691
'0:18.648',1.23159894
'0:18.652',0.12964199
'0:18.656',-15.75150223
'0:18.660',-29.81765854
'0:18.664',-29.49355355
'0:18.668',-31.69746744
'0:18.672',-33.31799236
'0:18.676',-32.47531941
'0:18.680',-14.71436628
'0:18.684',-14.45508229
'0:18.688',-15.23293425
'0:18.691',-15.75150223
'0:18.695',-15.49221824
'0:18.699',-30.33622651
'0:18.703',-14.13097731
'0:18.707',-0.38892598
'0:18.711',-1.49088293
'0:18.715',-14.71436628
'0:18.719',-11.99188441
'0:18.723',-13.35312534
'0:18.727',-16.85345917
'0:18.730',-17.63131113
'0:18.734',-30.5955105
'0:18.738',-27.61374464
'0:18.742',-29.23426956
'0:18.746',-17.63131113
'0:18.750',-49.71770456
'0:18.754',-44.8561298
'0:18.758',-42.97632089
'0:18.762',-46.21737073
'0:18.766',-50.04180954
'0:18.770',-49.45842057
'0:18.773',-45.69880276
'0:18.777',-43.55970986
'0:18.781',-45.69880276
'0:18.785',-48.9398526
'0:18.789',-48.9398526
'0:18.793',-45.95808674
'0:18.797',-43.81899385
'0:18.801',-45.18023478
'0:18.805',-63.45975588
'0:18.809',-78.88715313
'0:18.813',-107.9917807
'0:18.816',-137.8742602
'0:18.820',-140.3374581
'0:18.824',-129.8364566
'0:18.828',-130.6143086
'0:18.832',-110.1308736
'0:18.836',-90.74939554
'0:18.840',-92.04581548
'0:18.844',-79.66500509
'0:18.848',-65.40438579
'0:18.852',-62.42261994
'0:18.855',-42.7170369
'0:18.859',-11.99188441
'0:18.863',30.33622651
'0:18.867',75.64610329
'0:18.871',158.0984112
'0:18.875',240.8748242
'0:18.879',258.9598823
'0:18.883',229.8552547
'0:18.887',137.8742602
'0:18.891',74.54414634
'0:18.895',-9.85279152
'0:18.898',-15.75150223
'0:18.902',-50.04180954
'0:18.906',-122.770968
'0:18.910',-117.1315413
'0:18.914',-92.62920445
'0:18.918',-87.18424072
'0:18.922',-39.47598706
'0:18.926',-13.87169332
'0:18.930',-5.25050074
'0:18.934',-7.97298261
'0:18.938',-17.63131113
'0:18.941',-21.19646596
'0:18.945',-30.33622651
'0:18.949',-6.87102566
'0:18.953',-9.01011856
'0:18.957',-32.21603542
'0:18.961',-34.6144123
'0:18.965',-45.69880276
'0:18.969',-55.68123627
'0:18.973',-72.40505344
'0:18.977',-78.88715313
'0:18.980',-98.52791516
'0:18.984',-110.1308736
'0:18.988',-104.4914469
'0:18.992',-105.2692988
'0:18.996',-141.957983
'0:19.000',-143.8377919
'0:19.004',-126.5954068
'0:19.008',-123.8729249
'0:19.012',-107.1491077
'0:19.016',-108.7696327
'0:19.020',-109.8715896
'0:19.023',-93.40705641
'0:19.027',-61.061379
'0:19.031',-45.43951877
'0:19.035',-44.33756182
'0:19.039',-42.7170369
'0:19.043',-27.09517667
'0:19.047',-13.35312534
'0:19.051',1.49088293
'0:19.055',3.62997582
'0:19.059',37.59617815
'0:19.063',36.81832619
'0:19.066',51.07894549
'0:19.070',50.8196615
'0:19.074',68.06204666
'0:19.078',69.1640036
'0:19.082',69.1640036
'0:19.086',99.04648314
'0:19.090',112.8533555
'0:19.094',130.0957406
'0:19.098',148.6993667
'0:19.102',149.7365027
'0:19.105',148.6993667
'0:19.109',146.4954528
'0:19.113',130.8735926
'0:19.117',148.1159777
'0:19.121',147.8566937
'0:19.125',147.0788418
'0:19.129',146.4954528
'0:19.133',162.182134
'0:19.137',146.8195578
'0:19.141',147.8566937
'0:19.145',147.3381258
'0:19.148',114.7331644
'0:19.152',130.3550246
'0:19.156',128.9937837
'0:19.160',144.3563599
'0:19.164',145.1990329
'0:19.168',131.1328766
'0:19.172',116.3536893
'0:19.176',114.4090594
'0:19.180',95.87025429
'0:19.184',95.87025429
'0:19.188',97.42595822
'0:19.191',67.2841947
'0:19.195',67.2841947
'0:19.199',32.99388738
'0:19.203',47.06004369
'0:19.207',46.47665472
'0:19.211',32.99388738
'0:19.215',35.19780127
'0:19.219',33.57727635
'0:19.223',14.97365026
'0:19.227',30.33622651
'0:19.230',31.43818346
'0:19.234',33.57727635
'0:19.238',33.83656034
'0:19.242',31.95675143
'0:19.246',30.5955105
'0:19.250',31.11407847
'0:19.254',32.99388738
'0:19.258',17.95541612
'0:19.262',32.47531941
'0:19.266',14.39026129
'0:19.270',15.23293425
'0:19.273',16.85345917
'0:19.277',1.75016691
'0:19.281',0.97231495
'0:19.285',-1.23159894
'0:19.289',-17.37202715
'0:19.293',-15.23293425
'0:19.297',-30.07694252
'0:19.301',-31.11407847
'0:19.305',-33.57727635
'0:19.309',-34.09584433
'0:19.313',-62.94118791
'0:19.316',-75.90538727
'0:19.320',-77.78519618
'0:19.324',-98.00934719
'0:19.328',-98.78719915
'0:19.332',-111.4921145
'0:19.336',-92.88848844
'0:19.340',-110.3901576
'0:19.344',-112.8533555
'0:19.348',-113.6312074
'0:19.352',-111.7513985
'0:19.355',-94.24972937
'0:19.359',-94.76829735
'0:19.363',-111.2328305
'0:19.367',-95.28686532
'0:19.371',-95.54614931
'0:19.375',-79.4057211
'0:19.379',-79.14643711
'0:19.383',-62.68190392
'0:19.387',-62.94118791
'0:19.391',-77.78519618
'0:19.395',-76.94252322
'0:19.398',-62.42261994
'0:19.402',-64.30242884
'0:19.406',-32.47531941
'0:19.410',-30.85479449
'0:19.414',-28.4564176
'0:19.418',-28.19713362
'0:19.422',-14.71436628
'0:19.426',-16.85345917
'0:19.430',-14.97365026
'0:19.434',-11.73260042
'0:19.438',3.88925981
'0:19.441',-14.71436628
'0:19.445',-30.5955105
'0:19.449',-28.97498558
'0:19.453',-13.09384136
'0:19.457',-14.71436628
'0:19.461',-14.97365026
'0:19.465',-28.97498558
'0:19.469',-42.7170369
'0:19.473',-74.80343033
'0:19.477',-107.9917807
'0:19.480',-125.4934498
'0:19.484',-111.2328305
'0:19.488',-111.2328305
'0:19.492',-109.0289167
'0:19.496',-92.04581548
'0:19.500',-93.14777243
'0:19.504',-94.24972937
'0:19.508',-78.30376416
'0:19.512',-61.90405196
'0:19.516',-60.80209501
'0:19.520',-28.97498558
'0:19.523',31.95675143
'0:19.527',92.62920445
'0:19.531',204.18614
'0:19.535',270.8221247
'0:19.539',277.3042244
'0:19.543',219.8728212
'0:19.547',140.8560261
'0:19.551',71.04381251
'0:19.555',31.95675143
'0:19.559',76.42395525
'0:19.563',78.88715313
'0:19.566',8.49155058
'0:19.570',12.83455737
'0:19.574',126.5954068
'0:19.578',174.5629444
'0:19.582',182.665569
'0:19.586',81.544814
'0:19.590',-77.78519618
'0:19.594',-143.319224
'0:19.598',-130.8735926
'0:19.602',-78.30376416
'0:19.605',-4.47264878
'0:19.609',9.85279152
'0:19.613',23.33555885
'0:19.617',39.21670307
'0:19.621',67.80276267
'0:19.625',86.40638876
'0:19.629',56.71837222
'0:19.633',15.75150223
'0:19.637',-45.18023478
'0:19.641',-72.14576946
'0:19.645',-48.68056861
'0:19.648',-50.04180954
'0:19.652',-67.02491071
'0:19.656',-71.3030965
'0:19.660',-99.62987211
'0:19.664',-83.16533892
'0:19.668',-56.45908823
'0:19.672',-23.59484284
'0:19.676',-21.71503393
'0:19.680',-45.69880276
'0:19.684',-47.57861166
'0:19.688',-11.21403245
'0:19.691',3.62997582
'0:19.695',-4.73193277
'0:19.699',-8.49155058
'0:19.703',-13.35312534
'0:19.707',2.26873489
'0:19.711',16.85345917
'0:19.715',11.99188441
'0:19.719',-20.09450901
'0:19.723',-25.99321972
'0:19.727',-0.12964199
'0:19.730',26.83589268
'0:19.734',25.73393574
'0:19.738',15.23293425
'0:19.742',9.85279152
'0:19.746',15.75150223
'0:19.750',40.05937603
'0:19.754',40.05937603
'0:19.758',2.0094509
'0:19.762',-1.75016691
'0:19.766',-0.12964199
'0:19.770',4.47264878
'0:19.773',5.76906872
'0:19.777',17.95541612
'0:19.781',29.49355355
'0:19.785',30.85479449
'0:19.789',36.5590422
'0:19.793',38.6981351
'0:19.797',35.19780127
'0:19.801',15.23293425
'0:19.805',16.01078621
'0:19.809',81.28553001
'0:19.813',173.4609875
'0:19.816',187.7864278
'0:19.820',132.2348335
'0:19.824',31.95675143
'0:19.828',-94.24972937
'0:19.832',-108.2510647
'0:19.836',-109.0289167
'0:19.840',-106.8898238
'0:19.844',-120.1133071
'0:19.848',-78.56304814
'0:19.852',31.95675143
'0:19.855',136.5778403
'0:19.859',65.40438579
'0:19.863',-71.56238049
'0:19.867',-165.0990789
'0:19.871',-196.4076204
'0:19.875',-222.7897661
'0:19.879',-190.1848047
'0:19.883',-72.92362142
'0:19.887',-1.75016691
'0:19.891',-17.63131113
'0:19.895',-93.6663404
'0:19.898',-127.6325427
'0:19.902',-74.02557837
'0:19.906',32.73460339
'0:19.910',67.54347868
'0:19.914',83.68390689
'0:19.918',56.71837222
'0:19.922',29.81765854
'0:19.926',-9.01011856
'0:19.930',-24.3726948
'0:19.934',1.49088293
'0:19.938',16.59417519
'0:19.941',69.1640036
'0:19.945',68.58061463
'0:19.949',91.78653149
'0:19.953',101.768965
'0:19.957',96.90739024
'0:19.961',84.26729586
'0:19.965',86.14710477
'0:19.969',78.04448017
'0:19.973',102.028249
'0:19.977',93.6663404
'0:19.980',65.92295376
'0:19.984',40.57794401
'0:19.988',3.62997582
'0:19.992',-22.23360191
'0:19.996',-35.97565323
'0:20.000',-20.87236098
